# == pyFAI calibration ==
# Distance Sample to Detector: 0.3999999939076516 m
# PONI: 9.750e-02, 1.135e-01 m
# Rotations: -0.000175 0.000000 -0.000000 rad
# 
# == Fit2d calibration ==
# Distance Sample-beamCenter: 400.000 mm
# Center: x=1514.000, y=1300.000 pix
# Tilt: 0.010 deg  TiltPlanRot: 0.010 deg
# 
# Detector Detector	 Spline= None	 PixelSize= 7.500e-05, 7.500e-05 m
#    Detector has a mask: False 
#    Detector has a dark current: False 
#    detector has a flat field: False 
# 
# Wavelength: 6.888e-11 m
# Mask applied: user provided
# Dark current applied: False
# Flat field applied: False
# Polarization factor: 0.99
# Normalization factor: 1.0
# --> /home/myspot/data/2024_07_Rosario/Ru-CGO-ex/2024-07-27_003_Ru-CGO-ex_Reaction_dwell_000023_data_000118.dat
#       q_nm^-1             I 
  2.003187e-02    0.000000e+00
  3.590745e-02    0.000000e+00
  5.178302e-02    1.477777e-01
  6.765859e-02    2.503727e-01
  8.353417e-02    1.800748e-01
  9.940974e-02    1.194632e-01
  1.152853e-01    9.470908e-02
  1.311609e-01    6.786813e-02
  1.470365e-01    4.543896e-02
  1.629120e-01    6.368306e-02
  1.787876e-01    6.998403e-02
  1.946632e-01    2.806532e-02
  2.105388e-01    1.930963e-02
  2.264143e-01    2.085362e-02
  2.422899e-01    2.791178e-02
  2.581655e-01    1.209949e-02
  2.740411e-01    2.313715e-02
  2.899166e-01    2.177012e-02
  3.057922e-01    4.593484e-02
  3.216678e-01    2.829635e-02
  3.375433e-01    1.473410e-02
  3.534189e-01    4.637975e-02
  3.692945e-01    5.887103e-02
  3.851701e-01    5.817147e-02
  4.010456e-01    7.691510e-02
  4.169212e-01    3.665080e-02
  4.327968e-01    1.457745e-02
  4.486724e-01    2.811024e-02
  4.645479e-01    6.084684e-02
  4.804235e-01    6.743968e-02
  4.962991e-01    3.684057e-02
  5.121747e-01    3.018216e-02
  5.280502e-01    3.784033e-02
  5.439258e-01    2.124361e-02
  5.598014e-01    1.390264e-02
  5.756770e-01    3.439911e-02
  5.915525e-01    4.681768e-02
  6.074281e-01    5.741531e-02
  6.233037e-01    3.513750e-02
  6.391793e-01    4.295089e-02
  6.550548e-01    2.425786e-02
  6.709304e-01    2.187755e-02
  6.868060e-01    2.206353e-02
  7.026815e-01    4.045346e-02
  7.185571e-01    3.353417e-02
  7.344327e-01    2.568898e-02
  7.503083e-01    4.814852e-02
  7.661838e-01    7.985978e-02
  7.820594e-01    1.077313e-01
  7.979350e-01    1.747824e-01
  8.138106e-01    2.359770e-01
  8.296861e-01    2.991047e-01
  8.455617e-01    4.231026e-01
  8.614373e-01    4.102084e-01
  8.773129e-01    5.408036e-01
  8.931884e-01    5.855691e-01
  9.090640e-01    5.313410e-01
  9.249396e-01    6.811193e-01
  9.408152e-01    8.731893e-01
  9.566907e-01    9.231032e-01
  9.725663e-01    1.008695e+00
  9.884419e-01    1.053760e+00
  1.004317e+00    1.156094e+00
  1.020193e+00    1.323052e+00
  1.036069e+00    1.350720e+00
  1.051944e+00    1.347368e+00
  1.067820e+00    1.416635e+00
  1.083695e+00    1.449304e+00
  1.099571e+00    1.463652e+00
  1.115446e+00    1.524946e+00
  1.131322e+00    1.588823e+00
  1.147198e+00    1.576077e+00
  1.163073e+00    1.718322e+00
  1.178949e+00    1.696991e+00
  1.194824e+00    1.831280e+00
  1.210700e+00    1.978055e+00
  1.226575e+00    2.164594e+00
  1.242451e+00    2.357862e+00
  1.258327e+00    2.442455e+00
  1.274202e+00    2.746046e+00
  1.290078e+00    2.672232e+00
  1.305953e+00    2.810567e+00
  1.321829e+00    2.793676e+00
  1.337705e+00    2.702179e+00
  1.353580e+00    2.855915e+00
  1.369456e+00    3.157874e+00
  1.385331e+00    2.977824e+00
  1.401207e+00    2.821062e+00
  1.417082e+00    2.991779e+00
  1.432958e+00    2.937766e+00
  1.448834e+00    3.028467e+00
  1.464709e+00    2.976439e+00
  1.480585e+00    3.068657e+00
  1.496460e+00    3.124331e+00
  1.512336e+00    3.205612e+00
  1.528211e+00    3.142258e+00
  1.544087e+00    3.279146e+00
  1.559963e+00    3.205772e+00
  1.575838e+00    3.045937e+00
  1.591714e+00    2.976637e+00
  1.607589e+00    3.139341e+00
  1.623465e+00    3.350589e+00
  1.639340e+00    3.256423e+00
  1.655216e+00    3.162877e+00
  1.671092e+00    3.206817e+00
  1.686967e+00    3.288788e+00
  1.702843e+00    3.292371e+00
  1.718718e+00    3.182166e+00
  1.734594e+00    3.219388e+00
  1.750469e+00    3.126952e+00
  1.766345e+00    3.208144e+00
  1.782221e+00    3.248066e+00
  1.798096e+00    3.194513e+00
  1.813972e+00    3.113808e+00
  1.829847e+00    3.161994e+00
  1.845723e+00    3.030597e+00
  1.861598e+00    3.027200e+00
  1.877474e+00    3.006578e+00
  1.893350e+00    2.966783e+00
  1.909225e+00    3.019737e+00
  1.925101e+00    3.069980e+00
  1.940976e+00    3.008004e+00
  1.956852e+00    3.060867e+00
  1.972727e+00    3.090187e+00
  1.988603e+00    3.101234e+00
  2.004479e+00    3.085151e+00
  2.020354e+00    3.056263e+00
  2.036230e+00    3.123498e+00
  2.052105e+00    3.209531e+00
  2.067981e+00    3.128633e+00
  2.083856e+00    3.169632e+00
  2.099732e+00    3.228544e+00
  2.115608e+00    3.024698e+00
  2.131483e+00    3.091880e+00
  2.147359e+00    3.157584e+00
  2.163234e+00    3.066613e+00
  2.179110e+00    3.038025e+00
  2.194985e+00    3.087164e+00
  2.210861e+00    3.170662e+00
  2.226737e+00    3.139190e+00
  2.242612e+00    3.116199e+00
  2.258488e+00    3.329729e+00
  2.274363e+00    3.388792e+00
  2.290239e+00    3.200243e+00
  2.306115e+00    3.171316e+00
  2.321990e+00    3.143872e+00
  2.337866e+00    3.113792e+00
  2.353741e+00    3.061032e+00
  2.369617e+00    3.149932e+00
  2.385492e+00    3.203913e+00
  2.401368e+00    3.136589e+00
  2.417244e+00    3.196899e+00
  2.433119e+00    3.215686e+00
  2.448995e+00    3.187207e+00
  2.464870e+00    3.191137e+00
  2.480746e+00    3.154047e+00
  2.496621e+00    3.143530e+00
  2.512497e+00    3.120167e+00
  2.528373e+00    3.241107e+00
  2.544248e+00    3.218341e+00
  2.560124e+00    3.207122e+00
  2.575999e+00    3.207274e+00
  2.591875e+00    3.200106e+00
  2.607750e+00    3.080292e+00
  2.623626e+00    3.242636e+00
  2.639502e+00    3.249737e+00
  2.655377e+00    3.268788e+00
  2.671253e+00    3.276917e+00
  2.687128e+00    3.253493e+00
  2.703004e+00    3.170754e+00
  2.718879e+00    3.213406e+00
  2.734755e+00    3.283519e+00
  2.750631e+00    3.258091e+00
  2.766506e+00    3.232179e+00
  2.782382e+00    3.159663e+00
  2.798257e+00    3.306181e+00
  2.814133e+00    3.283465e+00
  2.830008e+00    3.237980e+00
  2.845884e+00    3.290664e+00
  2.861760e+00    3.325385e+00
  2.877635e+00    3.244696e+00
  2.893511e+00    3.304930e+00
  2.909386e+00    3.302972e+00
  2.925262e+00    3.252201e+00
  2.941137e+00    3.265661e+00
  2.957013e+00    3.246242e+00
  2.972889e+00    3.286740e+00
  2.988764e+00    3.297451e+00
  3.004640e+00    3.291390e+00
  3.020515e+00    3.384953e+00
  3.036391e+00    3.412935e+00
  3.052266e+00    3.307110e+00
  3.068142e+00    3.324094e+00
  3.084018e+00    3.323792e+00
  3.099893e+00    3.444405e+00
  3.115769e+00    3.347072e+00
  3.131644e+00    3.345711e+00
  3.147520e+00    3.387545e+00
  3.163395e+00    3.411815e+00
  3.179271e+00    3.387365e+00
  3.195147e+00    3.331125e+00
  3.211022e+00    3.358459e+00
  3.226898e+00    3.259321e+00
  3.242773e+00    3.278837e+00
  3.258649e+00    3.359310e+00
  3.274525e+00    3.354409e+00
  3.290400e+00    3.343709e+00
  3.306276e+00    3.319835e+00
  3.322151e+00    3.413183e+00
  3.338027e+00    3.426608e+00
  3.353902e+00    3.485750e+00
  3.369778e+00    3.513954e+00
  3.385654e+00    3.359623e+00
  3.401529e+00    3.375682e+00
  3.417405e+00    3.557968e+00
  3.433280e+00    3.471589e+00
  3.449156e+00    3.480808e+00
  3.465031e+00    3.467705e+00
  3.480907e+00    3.458535e+00
  3.496783e+00    3.544858e+00
  3.512658e+00    3.428226e+00
  3.528534e+00    3.449029e+00
  3.544409e+00    3.437022e+00
  3.560285e+00    3.425461e+00
  3.576160e+00    3.418156e+00
  3.592036e+00    3.447970e+00
  3.607912e+00    3.388069e+00
  3.623787e+00    3.419832e+00
  3.639663e+00    3.435202e+00
  3.655538e+00    3.417867e+00
  3.671414e+00    3.450869e+00
  3.687289e+00    3.468659e+00
  3.703165e+00    3.515088e+00
  3.719041e+00    3.474000e+00
  3.734916e+00    3.456312e+00
  3.750792e+00    3.401823e+00
  3.766667e+00    3.520186e+00
  3.782543e+00    3.589553e+00
  3.798418e+00    3.528130e+00
  3.814294e+00    3.520124e+00
  3.830170e+00    3.568276e+00
  3.846045e+00    3.495534e+00
  3.861921e+00    3.430498e+00
  3.877796e+00    3.487595e+00
  3.893672e+00    3.518735e+00
  3.909547e+00    3.520506e+00
  3.925423e+00    3.576046e+00
  3.941299e+00    3.533931e+00
  3.957174e+00    3.546632e+00
  3.973050e+00    3.580955e+00
  3.988925e+00    3.560647e+00
  4.004801e+00    3.491311e+00
  4.020676e+00    3.454357e+00
  4.036552e+00    3.553936e+00
  4.052428e+00    3.586870e+00
  4.068303e+00    3.525670e+00
  4.084179e+00    3.471155e+00
  4.100054e+00    3.441710e+00
  4.115930e+00    3.424839e+00
  4.131806e+00    3.517293e+00
  4.147681e+00    3.564792e+00
  4.163557e+00    3.621814e+00
  4.179432e+00    3.639941e+00
  4.195308e+00    3.610840e+00
  4.211183e+00    3.525489e+00
  4.227059e+00    3.540248e+00
  4.242935e+00    3.491195e+00
  4.258810e+00    3.471940e+00
  4.274686e+00    3.543668e+00
  4.290561e+00    3.577006e+00
  4.306437e+00    3.519728e+00
  4.322312e+00    3.554499e+00
  4.338188e+00    3.529788e+00
  4.354064e+00    3.520865e+00
  4.369939e+00    3.589326e+00
  4.385815e+00    3.569615e+00
  4.401690e+00    3.560391e+00
  4.417566e+00    3.538950e+00
  4.433441e+00    3.532350e+00
  4.449317e+00    3.596640e+00
  4.465193e+00    3.547562e+00
  4.481068e+00    3.617670e+00
  4.496944e+00    3.579913e+00
  4.512819e+00    3.495265e+00
  4.528695e+00    3.497687e+00
  4.544570e+00    3.619853e+00
  4.560446e+00    3.653109e+00
  4.576322e+00    3.704278e+00
  4.592197e+00    3.664713e+00
  4.608073e+00    3.561976e+00
  4.623948e+00    3.544688e+00
  4.639824e+00    3.651498e+00
  4.655699e+00    3.606163e+00
  4.671575e+00    3.602224e+00
  4.687451e+00    3.648376e+00
  4.703326e+00    3.569518e+00
  4.719202e+00    3.583395e+00
  4.735077e+00    3.681020e+00
  4.750953e+00    3.664356e+00
  4.766828e+00    3.518601e+00
  4.782704e+00    3.561907e+00
  4.798580e+00    3.630470e+00
  4.814455e+00    3.679390e+00
  4.830331e+00    3.673871e+00
  4.846206e+00    3.743207e+00
  4.862082e+00    3.631378e+00
  4.877957e+00    3.646938e+00
  4.893833e+00    3.633644e+00
  4.909709e+00    3.618813e+00
  4.925584e+00    3.713724e+00
  4.941460e+00    3.658940e+00
  4.957335e+00    3.551871e+00
  4.973211e+00    3.550188e+00
  4.989086e+00    3.611693e+00
  5.004962e+00    3.613322e+00
  5.020838e+00    3.667210e+00
  5.036713e+00    3.703411e+00
  5.052589e+00    3.619210e+00
  5.068464e+00    3.624402e+00
  5.084340e+00    3.606842e+00
  5.100216e+00    3.603238e+00
  5.116091e+00    3.673640e+00
  5.131967e+00    3.723439e+00
  5.147842e+00    3.759998e+00
  5.163718e+00    3.663643e+00
  5.179593e+00    3.710555e+00
  5.195469e+00    3.691471e+00
  5.211345e+00    3.670729e+00
  5.227220e+00    3.736780e+00
  5.243096e+00    3.665071e+00
  5.258971e+00    3.629164e+00
  5.274847e+00    3.671174e+00
  5.290722e+00    3.668955e+00
  5.306598e+00    3.703562e+00
  5.322474e+00    3.690574e+00
  5.338349e+00    3.665524e+00
  5.354225e+00    3.641645e+00
  5.370100e+00    3.672168e+00
  5.385976e+00    3.677397e+00
  5.401851e+00    3.673900e+00
  5.417727e+00    3.623190e+00
  5.433603e+00    3.614828e+00
  5.449478e+00    3.675396e+00
  5.465354e+00    3.652295e+00
  5.481229e+00    3.663235e+00
  5.497105e+00    3.631780e+00
  5.512980e+00    3.586070e+00
  5.528856e+00    3.633974e+00
  5.544732e+00    3.563864e+00
  5.560607e+00    3.580687e+00
  5.576483e+00    3.607821e+00
  5.592358e+00    3.633995e+00
  5.608234e+00    3.669284e+00
  5.624109e+00    3.674207e+00
  5.639985e+00    3.703990e+00
  5.655861e+00    3.624898e+00
  5.671736e+00    3.633665e+00
  5.687612e+00    3.627959e+00
  5.703487e+00    3.598912e+00
  5.719363e+00    3.497987e+00
  5.735238e+00    3.552397e+00
  5.751114e+00    3.616400e+00
  5.766990e+00    3.627696e+00
  5.782865e+00    3.566180e+00
  5.798741e+00    3.467862e+00
  5.814616e+00    3.495599e+00
  5.830492e+00    3.523665e+00
  5.846367e+00    3.550756e+00
  5.862243e+00    3.600678e+00
  5.878119e+00    3.602127e+00
  5.893994e+00    3.492011e+00
  5.909870e+00    3.489822e+00
  5.925745e+00    3.495768e+00
  5.941621e+00    3.505252e+00
  5.957497e+00    3.463102e+00
  5.973372e+00    3.534970e+00
  5.989248e+00    3.524602e+00
  6.005123e+00    3.521376e+00
  6.020999e+00    3.645195e+00
  6.036874e+00    3.619106e+00
  6.052750e+00    3.545575e+00
  6.068626e+00    3.529670e+00
  6.084501e+00    3.597610e+00
  6.100377e+00    3.605987e+00
  6.116252e+00    3.597607e+00
  6.132128e+00    3.627584e+00
  6.148003e+00    3.589662e+00
  6.163879e+00    3.602676e+00
  6.179755e+00    3.639802e+00
  6.195630e+00    3.591476e+00
  6.211506e+00    3.581850e+00
  6.227381e+00    3.534927e+00
  6.243257e+00    3.636835e+00
  6.259132e+00    3.552464e+00
  6.275008e+00    3.541575e+00
  6.290884e+00    3.536683e+00
  6.306759e+00    3.508520e+00
  6.322635e+00    3.556690e+00
  6.338510e+00    3.566113e+00
  6.354386e+00    3.644605e+00
  6.370261e+00    3.650992e+00
  6.386137e+00    3.608610e+00
  6.402013e+00    3.599355e+00
  6.417888e+00    3.599476e+00
  6.433764e+00    3.545031e+00
  6.449639e+00    3.618117e+00
  6.465515e+00    3.541890e+00
  6.481390e+00    3.563352e+00
  6.497266e+00    3.541425e+00
  6.513142e+00    3.556671e+00
  6.529017e+00    3.496172e+00
  6.544893e+00    3.565223e+00
  6.560768e+00    3.543808e+00
  6.576644e+00    3.537870e+00
  6.592519e+00    3.510353e+00
  6.608395e+00    3.598039e+00
  6.624271e+00    3.572636e+00
  6.640146e+00    3.565930e+00
  6.656022e+00    3.603433e+00
  6.671897e+00    3.547554e+00
  6.687773e+00    3.577641e+00
  6.703648e+00    3.599927e+00
  6.719524e+00    3.666361e+00
  6.735400e+00    3.678351e+00
  6.751275e+00    3.553182e+00
  6.767151e+00    3.606472e+00
  6.783026e+00    3.583848e+00
  6.798902e+00    3.546467e+00
  6.814777e+00    3.464359e+00
  6.830653e+00    3.570360e+00
  6.846529e+00    3.589314e+00
  6.862404e+00    3.554105e+00
  6.878280e+00    3.543847e+00
  6.894155e+00    3.560636e+00
  6.910031e+00    3.518766e+00
  6.925907e+00    3.543571e+00
  6.941782e+00    3.556292e+00
  6.957658e+00    3.505833e+00
  6.973533e+00    3.545566e+00
  6.989409e+00    3.577913e+00
  7.005284e+00    3.507596e+00
  7.021160e+00    3.615898e+00
  7.037036e+00    3.612924e+00
  7.052911e+00    3.547065e+00
  7.068787e+00    3.546398e+00
  7.084662e+00    3.506112e+00
  7.100538e+00    3.497259e+00
  7.116413e+00    3.505003e+00
  7.132289e+00    3.540488e+00
  7.148165e+00    3.484474e+00
  7.164040e+00    3.532347e+00
  7.179916e+00    3.548185e+00
  7.195791e+00    3.527894e+00
  7.211667e+00    3.513303e+00
  7.227542e+00    3.493006e+00
  7.243418e+00    3.488709e+00
  7.259294e+00    3.444968e+00
  7.275169e+00    3.473090e+00
  7.291045e+00    3.510117e+00
  7.306920e+00    3.599665e+00
  7.322796e+00    3.591899e+00
  7.338671e+00    3.441524e+00
  7.354547e+00    3.465298e+00
  7.370423e+00    3.497204e+00
  7.386298e+00    3.428326e+00
  7.402174e+00    3.466809e+00
  7.418049e+00    3.521467e+00
  7.433925e+00    3.495047e+00
  7.449800e+00    3.518864e+00
  7.465676e+00    3.472870e+00
  7.481552e+00    3.460695e+00
  7.497427e+00    3.463594e+00
  7.513303e+00    3.470459e+00
  7.529178e+00    3.485899e+00
  7.545054e+00    3.532611e+00
  7.560929e+00    3.467956e+00
  7.576805e+00    3.427128e+00
  7.592681e+00    3.443353e+00
  7.608556e+00    3.390223e+00
  7.624432e+00    3.419212e+00
  7.640307e+00    3.438482e+00
  7.656183e+00    3.472868e+00
  7.672058e+00    3.428453e+00
  7.687934e+00    3.451704e+00
  7.703810e+00    3.490230e+00
  7.719685e+00    3.449888e+00
  7.735561e+00    3.469333e+00
  7.751436e+00    3.487881e+00
  7.767312e+00    3.463516e+00
  7.783187e+00    3.381213e+00
  7.799063e+00    3.456151e+00
  7.814939e+00    3.546871e+00
  7.830814e+00    3.503564e+00
  7.846690e+00    3.402526e+00
  7.862565e+00    3.345475e+00
  7.878441e+00    3.478932e+00
  7.894317e+00    3.473134e+00
  7.910192e+00    3.437989e+00
  7.926068e+00    3.412796e+00
  7.941943e+00    3.441040e+00
  7.957819e+00    3.456095e+00
  7.973694e+00    3.460159e+00
  7.989570e+00    3.494096e+00
  8.005446e+00    3.440797e+00
  8.021321e+00    3.445623e+00
  8.037197e+00    3.384450e+00
  8.053072e+00    3.383443e+00
  8.068948e+00    3.401595e+00
  8.084823e+00    3.469894e+00
  8.100699e+00    3.460386e+00
  8.116575e+00    3.483128e+00
  8.132450e+00    3.467591e+00
  8.148326e+00    3.437798e+00
  8.164201e+00    3.396272e+00
  8.180077e+00    3.475086e+00
  8.195952e+00    3.472905e+00
  8.211828e+00    3.507599e+00
  8.227704e+00    3.404850e+00
  8.243579e+00    3.373460e+00
  8.259455e+00    3.424520e+00
  8.275330e+00    3.477064e+00
  8.291206e+00    3.439862e+00
  8.307081e+00    3.349010e+00
  8.322957e+00    3.378670e+00
  8.338833e+00    3.385795e+00
  8.354708e+00    3.398386e+00
  8.370584e+00    3.426073e+00
  8.386459e+00    3.465178e+00
  8.402335e+00    3.427265e+00
  8.418210e+00    3.464059e+00
  8.434086e+00    3.415596e+00
  8.449962e+00    3.371081e+00
  8.465837e+00    3.332807e+00
  8.481713e+00    3.320255e+00
  8.497588e+00    3.390800e+00
  8.513464e+00    3.439239e+00
  8.529339e+00    3.354709e+00
  8.545215e+00    3.329793e+00
  8.561091e+00    3.326717e+00
  8.576966e+00    3.353767e+00
  8.592842e+00    3.321980e+00
  8.608717e+00    3.391731e+00
  8.624593e+00    3.325038e+00
  8.640468e+00    3.355507e+00
  8.656344e+00    3.318934e+00
  8.672220e+00    3.401341e+00
  8.688095e+00    3.368566e+00
  8.703971e+00    3.328869e+00
  8.719846e+00    3.267092e+00
  8.735722e+00    3.338251e+00
  8.751598e+00    3.326034e+00
  8.767473e+00    3.237517e+00
  8.783349e+00    3.341990e+00
  8.799224e+00    3.360248e+00
  8.815100e+00    3.324737e+00
  8.830975e+00    3.332407e+00
  8.846851e+00    3.313589e+00
  8.862727e+00    3.336414e+00
  8.878602e+00    3.350764e+00
  8.894478e+00    3.336122e+00
  8.910353e+00    3.334653e+00
  8.926229e+00    3.288061e+00
  8.942104e+00    3.294209e+00
  8.957980e+00    3.231622e+00
  8.973856e+00    3.297918e+00
  8.989731e+00    3.295424e+00
  9.005607e+00    3.315406e+00
  9.021482e+00    3.258722e+00
  9.037358e+00    3.228659e+00
  9.053233e+00    3.328223e+00
  9.069109e+00    3.333209e+00
  9.084985e+00    3.297671e+00
  9.100860e+00    3.282038e+00
  9.116736e+00    3.285680e+00
  9.132611e+00    3.256483e+00
  9.148487e+00    3.208882e+00
  9.164362e+00    3.210817e+00
  9.180238e+00    3.214509e+00
  9.196114e+00    3.229721e+00
  9.211989e+00    3.235944e+00
  9.227865e+00    3.234023e+00
  9.243740e+00    3.282023e+00
  9.259616e+00    3.272463e+00
  9.275491e+00    3.237905e+00
  9.291367e+00    3.210971e+00
  9.307243e+00    3.184318e+00
  9.323118e+00    3.224438e+00
  9.338994e+00    3.232191e+00
  9.354869e+00    3.268793e+00
  9.370745e+00    3.265899e+00
  9.386620e+00    3.217863e+00
  9.402496e+00    3.183827e+00
  9.418372e+00    3.176176e+00
  9.434247e+00    3.166747e+00
  9.450123e+00    3.197497e+00
  9.465998e+00    3.196434e+00
  9.481874e+00    3.194276e+00
  9.497749e+00    3.252037e+00
  9.513625e+00    3.262334e+00
  9.529501e+00    3.228992e+00
  9.545376e+00    3.238430e+00
  9.561252e+00    3.252083e+00
  9.577127e+00    3.266423e+00
  9.593003e+00    3.231155e+00
  9.608878e+00    3.204452e+00
  9.624754e+00    3.213379e+00
  9.640630e+00    3.241038e+00
  9.656505e+00    3.265367e+00
  9.672381e+00    3.223488e+00
  9.688256e+00    3.164810e+00
  9.704132e+00    3.199676e+00
  9.720008e+00    3.187653e+00
  9.735883e+00    3.136476e+00
  9.751759e+00    3.124562e+00
  9.767634e+00    3.136612e+00
  9.783510e+00    3.180979e+00
  9.799385e+00    3.144000e+00
  9.815261e+00    3.165246e+00
  9.831137e+00    3.143633e+00
  9.847012e+00    3.102556e+00
  9.862888e+00    3.131828e+00
  9.878763e+00    3.111573e+00
  9.894639e+00    3.066899e+00
  9.910514e+00    3.132147e+00
  9.926390e+00    3.112361e+00
  9.942266e+00    3.089130e+00
  9.958141e+00    3.123740e+00
  9.974017e+00    3.074766e+00
  9.989892e+00    3.101941e+00
  1.000577e+01    3.142016e+00
  1.002164e+01    3.151939e+00
  1.003752e+01    3.158331e+00
  1.005339e+01    3.124205e+00
  1.006927e+01    3.090066e+00
  1.008515e+01    3.101010e+00
  1.010102e+01    3.135362e+00
  1.011690e+01    3.116067e+00
  1.013277e+01    3.076312e+00
  1.014865e+01    3.057250e+00
  1.016452e+01    3.064054e+00
  1.018040e+01    3.081732e+00
  1.019627e+01    3.068348e+00
  1.021215e+01    3.070669e+00
  1.022803e+01    3.045463e+00
  1.024390e+01    3.042554e+00
  1.025978e+01    3.014387e+00
  1.027565e+01    3.026953e+00
  1.029153e+01    3.068198e+00
  1.030740e+01    3.094071e+00
  1.032328e+01    2.991246e+00
  1.033915e+01    3.059440e+00
  1.035503e+01    3.047740e+00
  1.037091e+01    3.052782e+00
  1.038678e+01    3.062281e+00
  1.040266e+01    3.021353e+00
  1.041853e+01    3.033729e+00
  1.043441e+01    3.047414e+00
  1.045028e+01    2.998018e+00
  1.046616e+01    3.043777e+00
  1.048204e+01    3.077226e+00
  1.049791e+01    3.064541e+00
  1.051379e+01    3.027239e+00
  1.052966e+01    2.987249e+00
  1.054554e+01    2.986383e+00
  1.056141e+01    2.965764e+00
  1.057729e+01    3.027986e+00
  1.059316e+01    2.996926e+00
  1.060904e+01    2.993748e+00
  1.062492e+01    2.982945e+00
  1.064079e+01    2.998331e+00
  1.065667e+01    3.047404e+00
  1.067254e+01    3.030699e+00
  1.068842e+01    3.000409e+00
  1.070429e+01    2.958388e+00
  1.072017e+01    2.978888e+00
  1.073604e+01    2.969791e+00
  1.075192e+01    2.917939e+00
  1.076780e+01    2.951652e+00
  1.078367e+01    2.970712e+00
  1.079955e+01    2.933515e+00
  1.081542e+01    2.906760e+00
  1.083130e+01    2.962391e+00
  1.084717e+01    2.959357e+00
  1.086305e+01    2.939685e+00
  1.087892e+01    2.963006e+00
  1.089480e+01    2.978380e+00
  1.091068e+01    2.956378e+00
  1.092655e+01    2.963927e+00
  1.094243e+01    2.969708e+00
  1.095830e+01    2.890661e+00
  1.097418e+01    2.879552e+00
  1.099005e+01    2.831651e+00
  1.100593e+01    2.860908e+00
  1.102180e+01    2.905763e+00
  1.103768e+01    2.915685e+00
  1.105356e+01    2.859108e+00
  1.106943e+01    2.840076e+00
  1.108531e+01    2.864347e+00
  1.110118e+01    2.914812e+00
  1.111706e+01    2.909110e+00
  1.113293e+01    2.918416e+00
  1.114881e+01    2.848018e+00
  1.116468e+01    2.877490e+00
  1.118056e+01    2.827481e+00
  1.119644e+01    2.798916e+00
  1.121231e+01    2.870459e+00
  1.122819e+01    2.866901e+00
  1.124406e+01    2.838499e+00
  1.125994e+01    2.836131e+00
  1.127581e+01    2.832731e+00
  1.129169e+01    2.793858e+00
  1.130756e+01    2.790911e+00
  1.132344e+01    2.840071e+00
  1.133932e+01    2.858914e+00
  1.135519e+01    2.853818e+00
  1.137107e+01    2.802322e+00
  1.138694e+01    2.835289e+00
  1.140282e+01    2.779145e+00
  1.141869e+01    2.793576e+00
  1.143457e+01    2.787418e+00
  1.145045e+01    2.783392e+00
  1.146632e+01    2.788141e+00
  1.148220e+01    2.764990e+00
  1.149807e+01    2.785611e+00
  1.151395e+01    2.755105e+00
  1.152982e+01    2.767396e+00
  1.154570e+01    2.777525e+00
  1.156157e+01    2.849606e+00
  1.157745e+01    2.853775e+00
  1.159333e+01    2.784266e+00
  1.160920e+01    2.779080e+00
  1.162508e+01    2.799738e+00
  1.164095e+01    2.780532e+00
  1.165683e+01    2.706600e+00
  1.167270e+01    2.749392e+00
  1.168858e+01    2.791742e+00
  1.170445e+01    2.798905e+00
  1.172033e+01    2.792161e+00
  1.173621e+01    2.754163e+00
  1.175208e+01    2.766569e+00
  1.176796e+01    2.763092e+00
  1.178383e+01    2.667264e+00
  1.179971e+01    2.752099e+00
  1.181558e+01    2.794449e+00
  1.183146e+01    2.740376e+00
  1.184733e+01    2.716828e+00
  1.186321e+01    2.793172e+00
  1.187909e+01    2.785474e+00
  1.189496e+01    2.749334e+00
  1.191084e+01    2.712332e+00
  1.192671e+01    2.736490e+00
  1.194259e+01    2.781120e+00
  1.195846e+01    2.730820e+00
  1.197434e+01    2.703470e+00
  1.199021e+01    2.700397e+00
  1.200609e+01    2.745704e+00
  1.202197e+01    2.709986e+00
  1.203784e+01    2.693219e+00
  1.205372e+01    2.666594e+00
  1.206959e+01    2.635182e+00
  1.208547e+01    2.659940e+00
  1.210134e+01    2.701362e+00
  1.211722e+01    2.726132e+00
  1.213309e+01    2.654254e+00
  1.214897e+01    2.714984e+00
  1.216485e+01    2.737022e+00
  1.218072e+01    2.664210e+00
  1.219660e+01    2.664712e+00
  1.221247e+01    2.678383e+00
  1.222835e+01    2.617720e+00
  1.224422e+01    2.661361e+00
  1.226010e+01    2.697478e+00
  1.227597e+01    2.764187e+00
  1.229185e+01    2.742942e+00
  1.230773e+01    2.761870e+00
  1.232360e+01    2.745383e+00
  1.233948e+01    2.641989e+00
  1.235535e+01    2.692960e+00
  1.237123e+01    2.729560e+00
  1.238710e+01    2.711915e+00
  1.240298e+01    2.713051e+00
  1.241886e+01    2.704202e+00
  1.243473e+01    2.721899e+00
  1.245061e+01    2.699876e+00
  1.246648e+01    2.677922e+00
  1.248236e+01    2.682467e+00
  1.249823e+01    2.658482e+00
  1.251411e+01    2.679616e+00
  1.252998e+01    2.733412e+00
  1.254586e+01    2.701702e+00
  1.256174e+01    2.702912e+00
  1.257761e+01    2.728184e+00
  1.259349e+01    2.756981e+00
  1.260936e+01    2.763627e+00
  1.262524e+01    2.771796e+00
  1.264111e+01    2.786439e+00
  1.265699e+01    2.799620e+00
  1.267286e+01    2.790672e+00
  1.268874e+01    2.763262e+00
  1.270462e+01    2.811611e+00
  1.272049e+01    2.893165e+00
  1.273637e+01    2.923793e+00
  1.275224e+01    2.913110e+00
  1.276812e+01    2.919770e+00
  1.278399e+01    2.973140e+00
  1.279987e+01    3.007815e+00
  1.281574e+01    3.060842e+00
  1.283162e+01    3.125619e+00
  1.284750e+01    3.175782e+00
  1.286337e+01    3.227871e+00
  1.287925e+01    3.361788e+00
  1.289512e+01    3.507770e+00
  1.291100e+01    3.645089e+00
  1.292687e+01    3.832117e+00
  1.294275e+01    4.024006e+00
  1.295862e+01    4.458460e+00
  1.297450e+01    4.877219e+00
  1.299038e+01    5.268101e+00
  1.300625e+01    5.899890e+00
  1.302213e+01    6.702948e+00
  1.303800e+01    7.739226e+00
  1.305388e+01    8.907130e+00
  1.306975e+01    1.017424e+01
  1.308563e+01    1.142835e+01
  1.310150e+01    1.264356e+01
  1.311738e+01    1.383413e+01
  1.313326e+01    1.498389e+01
  1.314913e+01    1.573391e+01
  1.316501e+01    1.634214e+01
  1.318088e+01    1.631653e+01
  1.319676e+01    1.567612e+01
  1.321263e+01    1.430595e+01
  1.322851e+01    1.245456e+01
  1.324438e+01    1.069917e+01
  1.326026e+01    9.092926e+00
  1.327614e+01    7.812927e+00
  1.329201e+01    6.780058e+00
  1.330789e+01    5.930034e+00
  1.332376e+01    5.369198e+00
  1.333964e+01    4.846624e+00
  1.335551e+01    4.449863e+00
  1.337139e+01    4.124509e+00
  1.338727e+01    3.881804e+00
  1.340314e+01    3.647210e+00
  1.341902e+01    3.470146e+00
  1.343489e+01    3.296455e+00
  1.345077e+01    3.209157e+00
  1.346664e+01    3.151692e+00
  1.348252e+01    3.056273e+00
  1.349839e+01    2.928838e+00
  1.351427e+01    2.908974e+00
  1.353015e+01    2.922708e+00
  1.354602e+01    2.804974e+00
  1.356190e+01    2.741426e+00
  1.357777e+01    2.765731e+00
  1.359365e+01    2.705933e+00
  1.360952e+01    2.688599e+00
  1.362540e+01    2.678536e+00
  1.364127e+01    2.652456e+00
  1.365715e+01    2.609372e+00
  1.367303e+01    2.613821e+00
  1.368890e+01    2.594299e+00
  1.370478e+01    2.547102e+00
  1.372065e+01    2.481987e+00
  1.373653e+01    2.483807e+00
  1.375240e+01    2.541451e+00
  1.376828e+01    2.542874e+00
  1.378415e+01    2.494353e+00
  1.380003e+01    2.412840e+00
  1.381591e+01    2.446942e+00
  1.383178e+01    2.459878e+00
  1.384766e+01    2.447479e+00
  1.386353e+01    2.432312e+00
  1.387941e+01    2.402886e+00
  1.389528e+01    2.400389e+00
  1.391116e+01    2.408042e+00
  1.392703e+01    2.402165e+00
  1.394291e+01    2.361273e+00
  1.395879e+01    2.395204e+00
  1.397466e+01    2.395094e+00
  1.399054e+01    2.396119e+00
  1.400641e+01    2.364715e+00
  1.402229e+01    2.370226e+00
  1.403816e+01    2.395452e+00
  1.405404e+01    2.353617e+00
  1.406991e+01    2.359564e+00
  1.408579e+01    2.314204e+00
  1.410167e+01    2.331706e+00
  1.411754e+01    2.335291e+00
  1.413342e+01    2.340415e+00
  1.414929e+01    2.268131e+00
  1.416517e+01    2.280586e+00
  1.418104e+01    2.298163e+00
  1.419692e+01    2.309969e+00
  1.421279e+01    2.303963e+00
  1.422867e+01    2.269028e+00
  1.424455e+01    2.283400e+00
  1.426042e+01    2.291600e+00
  1.427630e+01    2.276191e+00
  1.429217e+01    2.253637e+00
  1.430805e+01    2.246008e+00
  1.432392e+01    2.271661e+00
  1.433980e+01    2.287400e+00
  1.435568e+01    2.275444e+00
  1.437155e+01    2.236955e+00
  1.438743e+01    2.293780e+00
  1.440330e+01    2.269988e+00
  1.441918e+01    2.252531e+00
  1.443505e+01    2.254200e+00
  1.445093e+01    2.243258e+00
  1.446680e+01    2.232386e+00
  1.448268e+01    2.238008e+00
  1.449856e+01    2.199195e+00
  1.451443e+01    2.213874e+00
  1.453031e+01    2.226135e+00
  1.454618e+01    2.255386e+00
  1.456206e+01    2.217344e+00
  1.457793e+01    2.197013e+00
  1.459381e+01    2.201627e+00
  1.460968e+01    2.268596e+00
  1.462556e+01    2.239170e+00
  1.464144e+01    2.229841e+00
  1.465731e+01    2.252730e+00
  1.467319e+01    2.207212e+00
  1.468906e+01    2.164036e+00
  1.470494e+01    2.162556e+00
  1.472081e+01    2.167445e+00
  1.473669e+01    2.169770e+00
  1.475256e+01    2.188332e+00
  1.476844e+01    2.230868e+00
  1.478432e+01    2.211079e+00
  1.480019e+01    2.215356e+00
  1.481607e+01    2.205692e+00
  1.483194e+01    2.237726e+00
  1.484782e+01    2.248645e+00
  1.486369e+01    2.225780e+00
  1.487957e+01    2.200745e+00
  1.489544e+01    2.176150e+00
  1.491132e+01    2.239570e+00
  1.492720e+01    2.231385e+00
  1.494307e+01    2.244294e+00
  1.495895e+01    2.306576e+00
  1.497482e+01    2.326250e+00
  1.499070e+01    2.383248e+00
  1.500657e+01    2.440641e+00
  1.502245e+01    2.518203e+00
  1.503832e+01    2.598511e+00
  1.505420e+01    2.691387e+00
  1.507008e+01    2.772887e+00
  1.508595e+01    3.012209e+00
  1.510183e+01    3.214471e+00
  1.511770e+01    3.521077e+00
  1.513358e+01    3.831954e+00
  1.514945e+01    4.205763e+00
  1.516533e+01    4.514135e+00
  1.518120e+01    4.914910e+00
  1.519708e+01    5.224201e+00
  1.521296e+01    5.431607e+00
  1.522883e+01    5.658963e+00
  1.524471e+01    5.763994e+00
  1.526058e+01    5.786754e+00
  1.527646e+01    5.730543e+00
  1.529233e+01    5.472769e+00
  1.530821e+01    5.098634e+00
  1.532409e+01    4.642881e+00
  1.533996e+01    4.159667e+00
  1.535584e+01    3.728744e+00
  1.537171e+01    3.395441e+00
  1.538759e+01    3.207544e+00
  1.540346e+01    2.950018e+00
  1.541934e+01    2.761707e+00
  1.543521e+01    2.671336e+00
  1.545109e+01    2.595433e+00
  1.546697e+01    2.436862e+00
  1.548284e+01    2.349778e+00
  1.549872e+01    2.315654e+00
  1.551459e+01    2.267213e+00
  1.553047e+01    2.228623e+00
  1.554634e+01    2.187454e+00
  1.556222e+01    2.146101e+00
  1.557809e+01    2.096744e+00
  1.559397e+01    2.107663e+00
  1.560985e+01    2.101619e+00
  1.562572e+01    2.086565e+00
  1.564160e+01    2.061165e+00
  1.565747e+01    2.050373e+00
  1.567335e+01    2.031919e+00
  1.568922e+01    1.985838e+00
  1.570510e+01    1.951755e+00
  1.572097e+01    1.952698e+00
  1.573685e+01    1.960070e+00
  1.575273e+01    1.936996e+00
  1.576860e+01    1.932394e+00
  1.578448e+01    1.975612e+00
  1.580035e+01    1.951434e+00
  1.581623e+01    1.961115e+00
  1.583210e+01    1.938910e+00
  1.584798e+01    1.926353e+00
  1.586385e+01    1.883623e+00
  1.587973e+01    1.861157e+00
  1.589561e+01    1.894750e+00
  1.591148e+01    1.925566e+00
  1.592736e+01    1.915850e+00
  1.594323e+01    1.920607e+00
  1.595911e+01    1.906279e+00
  1.597498e+01    1.858451e+00
  1.599086e+01    1.877427e+00
  1.600673e+01    1.903502e+00
  1.602261e+01    1.888055e+00
  1.603849e+01    1.869125e+00
  1.605436e+01    1.846985e+00
  1.607024e+01    1.821760e+00
  1.608611e+01    1.845256e+00
  1.610199e+01    1.869979e+00
  1.611786e+01    1.829098e+00
  1.613374e+01    1.825589e+00
  1.614961e+01    1.832684e+00
  1.616549e+01    1.836915e+00
  1.618137e+01    1.820965e+00
  1.619724e+01    1.793486e+00
  1.621312e+01    1.802743e+00
  1.622899e+01    1.811867e+00
  1.624487e+01    1.812970e+00
  1.626074e+01    1.779606e+00
  1.627662e+01    1.802808e+00
  1.629250e+01    1.813632e+00
  1.630837e+01    1.810322e+00
  1.632425e+01    1.816134e+00
  1.634012e+01    1.762566e+00
  1.635600e+01    1.777923e+00
  1.637187e+01    1.819672e+00
  1.638775e+01    1.793944e+00
  1.640362e+01    1.786995e+00
  1.641950e+01    1.808975e+00
  1.643538e+01    1.782767e+00
  1.645125e+01    1.772744e+00
  1.646713e+01    1.779307e+00
  1.648300e+01    1.779766e+00
  1.649888e+01    1.736206e+00
  1.651475e+01    1.764008e+00
  1.653063e+01    1.745745e+00
  1.654650e+01    1.741431e+00
  1.656238e+01    1.761347e+00
  1.657826e+01    1.749377e+00
  1.659413e+01    1.741473e+00
  1.661001e+01    1.726040e+00
  1.662588e+01    1.705358e+00
  1.664176e+01    1.685047e+00
  1.665763e+01    1.655215e+00
  1.667351e+01    1.718262e+00
  1.668938e+01    1.741116e+00
  1.670526e+01    1.769133e+00
  1.672114e+01    1.762614e+00
  1.673701e+01    1.695011e+00
  1.675289e+01    1.734847e+00
  1.676876e+01    1.740548e+00
  1.678464e+01    1.666474e+00
  1.680051e+01    1.719400e+00
  1.681639e+01    1.730764e+00
  1.683226e+01    1.688166e+00
  1.684814e+01    1.737303e+00
  1.686402e+01    1.719221e+00
  1.687989e+01    1.700535e+00
  1.689577e+01    1.691210e+00
  1.691164e+01    1.714151e+00
  1.692752e+01    1.688604e+00
  1.694339e+01    1.660680e+00
  1.695927e+01    1.675267e+00
  1.697514e+01    1.690996e+00
  1.699102e+01    1.685354e+00
  1.700690e+01    1.665393e+00
  1.702277e+01    1.663754e+00
  1.703865e+01    1.643638e+00
  1.705452e+01    1.638804e+00
  1.707040e+01    1.671043e+00
  1.708627e+01    1.651566e+00
  1.710215e+01    1.611216e+00
  1.711802e+01    1.632694e+00
  1.713390e+01    1.653386e+00
  1.714978e+01    1.640261e+00
  1.716565e+01    1.646419e+00
  1.718153e+01    1.631740e+00
  1.719740e+01    1.615627e+00
  1.721328e+01    1.625734e+00
  1.722915e+01    1.590594e+00
  1.724503e+01    1.621338e+00
  1.726091e+01    1.664230e+00
  1.727678e+01    1.635328e+00
  1.729266e+01    1.608947e+00
  1.730853e+01    1.625218e+00
  1.732441e+01    1.613885e+00
  1.734028e+01    1.624272e+00
  1.735616e+01    1.634894e+00
  1.737203e+01    1.626119e+00
  1.738791e+01    1.614977e+00
  1.740379e+01    1.591837e+00
  1.741966e+01    1.608329e+00
  1.743554e+01    1.613536e+00
  1.745141e+01    1.599845e+00
  1.746729e+01    1.606258e+00
  1.748316e+01    1.615472e+00
  1.749904e+01    1.600736e+00
  1.751491e+01    1.601452e+00
  1.753079e+01    1.606707e+00
  1.754667e+01    1.546553e+00
  1.756254e+01    1.552233e+00
  1.757842e+01    1.561035e+00
  1.759429e+01    1.581840e+00
  1.761017e+01    1.546914e+00
  1.762604e+01    1.557859e+00
  1.764192e+01    1.559865e+00
  1.765779e+01    1.544352e+00
  1.767367e+01    1.559581e+00
  1.768955e+01    1.556085e+00
  1.770542e+01    1.550288e+00
  1.772130e+01    1.548806e+00
  1.773717e+01    1.553729e+00
  1.775305e+01    1.570508e+00
  1.776892e+01    1.544177e+00
  1.778480e+01    1.528268e+00
  1.780067e+01    1.529195e+00
  1.781655e+01    1.511690e+00
  1.783243e+01    1.510372e+00
  1.784830e+01    1.519015e+00
  1.786418e+01    1.531377e+00
  1.788005e+01    1.539099e+00
  1.789593e+01    1.528653e+00
  1.791180e+01    1.526017e+00
  1.792768e+01    1.541785e+00
  1.794355e+01    1.539612e+00
  1.795943e+01    1.508270e+00
  1.797531e+01    1.495434e+00
  1.799118e+01    1.518679e+00
  1.800706e+01    1.527103e+00
  1.802293e+01    1.518799e+00
  1.803881e+01    1.512172e+00
  1.805468e+01    1.505919e+00
  1.807056e+01    1.500945e+00
  1.808643e+01    1.503272e+00
  1.810231e+01    1.507067e+00
  1.811819e+01    1.472114e+00
  1.813406e+01    1.494234e+00
  1.814994e+01    1.499059e+00
  1.816581e+01    1.477679e+00
  1.818169e+01    1.480312e+00
  1.819756e+01    1.472142e+00
  1.821344e+01    1.461412e+00
  1.822932e+01    1.477087e+00
  1.824519e+01    1.464171e+00
  1.826107e+01    1.464679e+00
  1.827694e+01    1.493852e+00
  1.829282e+01    1.496757e+00
  1.830869e+01    1.483669e+00
  1.832457e+01    1.450531e+00
  1.834044e+01    1.461247e+00
  1.835632e+01    1.454902e+00
  1.837220e+01    1.449550e+00
  1.838807e+01    1.450769e+00
  1.840395e+01    1.409540e+00
  1.841982e+01    1.445701e+00
  1.843570e+01    1.458124e+00
  1.845157e+01    1.438680e+00
  1.846745e+01    1.432320e+00
  1.848332e+01    1.435932e+00
  1.849920e+01    1.453330e+00
  1.851508e+01    1.447836e+00
  1.853095e+01    1.462049e+00
  1.854683e+01    1.455331e+00
  1.856270e+01    1.438666e+00
  1.857858e+01    1.442560e+00
  1.859445e+01    1.426937e+00
  1.861033e+01    1.411524e+00
  1.862620e+01    1.435658e+00
  1.864208e+01    1.430372e+00
  1.865796e+01    1.425701e+00
  1.867383e+01    1.425381e+00
  1.868971e+01    1.409642e+00
  1.870558e+01    1.422260e+00
  1.872146e+01    1.432066e+00
  1.873733e+01    1.439819e+00
  1.875321e+01    1.437801e+00
  1.876908e+01    1.430790e+00
  1.878496e+01    1.410131e+00
  1.880084e+01    1.391687e+00
  1.881671e+01    1.399909e+00
  1.883259e+01    1.408288e+00
  1.884846e+01    1.401925e+00
  1.886434e+01    1.392743e+00
  1.888021e+01    1.398889e+00
  1.889609e+01    1.421856e+00
  1.891196e+01    1.387149e+00
  1.892784e+01    1.384238e+00
  1.894372e+01    1.383381e+00
  1.895959e+01    1.380179e+00
  1.897547e+01    1.383809e+00
  1.899134e+01    1.382626e+00
  1.900722e+01    1.364580e+00
  1.902309e+01    1.366079e+00
  1.903897e+01    1.387613e+00
  1.905484e+01    1.394632e+00
  1.907072e+01    1.396960e+00
  1.908660e+01    1.395735e+00
  1.910247e+01    1.388907e+00
  1.911835e+01    1.359612e+00
  1.913422e+01    1.375840e+00
  1.915010e+01    1.369801e+00
  1.916597e+01    1.368015e+00
  1.918185e+01    1.362990e+00
  1.919773e+01    1.345805e+00
  1.921360e+01    1.363296e+00
  1.922948e+01    1.360927e+00
  1.924535e+01    1.392433e+00
  1.926123e+01    1.390738e+00
  1.927710e+01    1.386357e+00
  1.929298e+01    1.372074e+00
  1.930885e+01    1.393328e+00
  1.932473e+01    1.400150e+00
  1.934061e+01    1.366821e+00
  1.935648e+01    1.347112e+00
  1.937236e+01    1.339793e+00
  1.938823e+01    1.337289e+00
  1.940411e+01    1.340578e+00
  1.941998e+01    1.356055e+00
  1.943586e+01    1.329538e+00
  1.945173e+01    1.367404e+00
  1.946761e+01    1.373893e+00
  1.948349e+01    1.364311e+00
  1.949936e+01    1.348312e+00
  1.951524e+01    1.333894e+00
  1.953111e+01    1.337173e+00
  1.954699e+01    1.344656e+00
  1.956286e+01    1.336462e+00
  1.957874e+01    1.330713e+00
  1.959461e+01    1.333915e+00
  1.961049e+01    1.320089e+00
  1.962637e+01    1.318617e+00
  1.964224e+01    1.325689e+00
  1.965812e+01    1.312532e+00
  1.967399e+01    1.298480e+00
  1.968987e+01    1.312820e+00
  1.970574e+01    1.292644e+00
  1.972162e+01    1.299986e+00
  1.973749e+01    1.319060e+00
  1.975337e+01    1.296957e+00
  1.976925e+01    1.300285e+00
  1.978512e+01    1.309190e+00
  1.980100e+01    1.286271e+00
  1.981687e+01    1.305137e+00
  1.983275e+01    1.298817e+00
  1.984862e+01    1.285800e+00
  1.986450e+01    1.296031e+00
  1.988037e+01    1.283079e+00
  1.989625e+01    1.307069e+00
  1.991213e+01    1.310755e+00
  1.992800e+01    1.294862e+00
  1.994388e+01    1.307533e+00
  1.995975e+01    1.285455e+00
  1.997563e+01    1.249124e+00
  1.999150e+01    1.258467e+00
  2.000738e+01    1.273892e+00
  2.002325e+01    1.267637e+00
  2.003913e+01    1.282836e+00
  2.005501e+01    1.258339e+00
  2.007088e+01    1.258804e+00
  2.008676e+01    1.269961e+00
  2.010263e+01    1.279362e+00
  2.011851e+01    1.273210e+00
  2.013438e+01    1.244588e+00
  2.015026e+01    1.253378e+00
  2.016614e+01    1.279621e+00
  2.018201e+01    1.310346e+00
  2.019789e+01    1.264346e+00
  2.021376e+01    1.268702e+00
  2.022964e+01    1.249890e+00
  2.024551e+01    1.258208e+00
  2.026139e+01    1.253253e+00
  2.027726e+01    1.265483e+00
  2.029314e+01    1.288582e+00
  2.030902e+01    1.275193e+00
  2.032489e+01    1.254084e+00
  2.034077e+01    1.251354e+00
  2.035664e+01    1.249573e+00
  2.037252e+01    1.249054e+00
  2.038839e+01    1.251222e+00
  2.040427e+01    1.242379e+00
  2.042014e+01    1.258745e+00
  2.043602e+01    1.245817e+00
  2.045190e+01    1.248438e+00
  2.046777e+01    1.250636e+00
  2.048365e+01    1.240783e+00
  2.049952e+01    1.219925e+00
  2.051540e+01    1.240701e+00
  2.053127e+01    1.254268e+00
  2.054715e+01    1.249203e+00
  2.056302e+01    1.250796e+00
  2.057890e+01    1.236448e+00
  2.059478e+01    1.226564e+00
  2.061065e+01    1.217555e+00
  2.062653e+01    1.207527e+00
  2.064240e+01    1.229632e+00
  2.065828e+01    1.236714e+00
  2.067415e+01    1.221052e+00
  2.069003e+01    1.247655e+00
  2.070590e+01    1.239778e+00
  2.072178e+01    1.235622e+00
  2.073766e+01    1.224618e+00
  2.075353e+01    1.246192e+00
  2.076941e+01    1.252367e+00
  2.078528e+01    1.226948e+00
  2.080116e+01    1.240818e+00
  2.081703e+01    1.239031e+00
  2.083291e+01    1.224733e+00
  2.084878e+01    1.237028e+00
  2.086466e+01    1.240448e+00
  2.088054e+01    1.223873e+00
  2.089641e+01    1.221601e+00
  2.091229e+01    1.235844e+00
  2.092816e+01    1.227760e+00
  2.094404e+01    1.244987e+00
  2.095991e+01    1.235149e+00
  2.097579e+01    1.216329e+00
  2.099166e+01    1.244096e+00
  2.100754e+01    1.236937e+00
  2.102342e+01    1.205310e+00
  2.103929e+01    1.225697e+00
  2.105517e+01    1.234535e+00
  2.107104e+01    1.213896e+00
  2.108692e+01    1.218935e+00
  2.110279e+01    1.227785e+00
  2.111867e+01    1.230000e+00
  2.113455e+01    1.212010e+00
  2.115042e+01    1.232586e+00
  2.116630e+01    1.216207e+00
  2.118217e+01    1.201484e+00
  2.119805e+01    1.241739e+00
  2.121392e+01    1.251593e+00
  2.122980e+01    1.254547e+00
  2.124567e+01    1.254441e+00
  2.126155e+01    1.245480e+00
  2.127743e+01    1.253111e+00
  2.129330e+01    1.260570e+00
  2.130918e+01    1.274264e+00
  2.132505e+01    1.280728e+00
  2.134093e+01    1.278815e+00
  2.135680e+01    1.286747e+00
  2.137268e+01    1.283377e+00
  2.138855e+01    1.291386e+00
  2.140443e+01    1.323166e+00
  2.142031e+01    1.314048e+00
  2.143618e+01    1.345034e+00
  2.145206e+01    1.354351e+00
  2.146793e+01    1.363429e+00
  2.148381e+01    1.383912e+00
  2.149968e+01    1.430886e+00
  2.151556e+01    1.456857e+00
  2.153143e+01    1.472638e+00
  2.154731e+01    1.521113e+00
  2.156319e+01    1.556278e+00
  2.157906e+01    1.618514e+00
  2.159494e+01    1.715111e+00
  2.161081e+01    1.774968e+00
  2.162669e+01    1.873397e+00
  2.164256e+01    1.996169e+00
  2.165844e+01    2.130970e+00
  2.167431e+01    2.292442e+00
  2.169019e+01    2.539341e+00
  2.170607e+01    2.767620e+00
  2.172194e+01    3.111297e+00
  2.173782e+01    3.546100e+00
  2.175369e+01    4.050392e+00
  2.176957e+01    4.594341e+00
  2.178544e+01    5.211983e+00
  2.180132e+01    5.825778e+00
  2.181719e+01    6.497521e+00
  2.183307e+01    7.182301e+00
  2.184895e+01    7.802599e+00
  2.186482e+01    8.382976e+00
  2.188070e+01    8.842520e+00
  2.189657e+01    8.982219e+00
  2.191245e+01    8.788350e+00
  2.192832e+01    8.266874e+00
  2.194420e+01    7.506540e+00
  2.196007e+01    6.580868e+00
  2.197595e+01    5.672209e+00
  2.199183e+01    4.883060e+00
  2.200770e+01    4.210494e+00
  2.202358e+01    3.621021e+00
  2.203945e+01    3.179641e+00
  2.205533e+01    2.819652e+00
  2.207120e+01    2.573848e+00
  2.208708e+01    2.348766e+00
  2.210296e+01    2.160834e+00
  2.211883e+01    1.999542e+00
  2.213471e+01    1.875462e+00
  2.215058e+01    1.768752e+00
  2.216646e+01    1.694256e+00
  2.218233e+01    1.606040e+00
  2.219821e+01    1.536236e+00
  2.221408e+01    1.481701e+00
  2.222996e+01    1.440650e+00
  2.224584e+01    1.415453e+00
  2.226171e+01    1.399311e+00
  2.227759e+01    1.333048e+00
  2.229346e+01    1.296165e+00
  2.230934e+01    1.292851e+00
  2.232521e+01    1.289064e+00
  2.234109e+01    1.267250e+00
  2.235696e+01    1.247800e+00
  2.237284e+01    1.218228e+00
  2.238872e+01    1.181568e+00
  2.240459e+01    1.191780e+00
  2.242047e+01    1.198822e+00
  2.243634e+01    1.192120e+00
  2.245222e+01    1.173579e+00
  2.246809e+01    1.165127e+00
  2.248397e+01    1.161477e+00
  2.249984e+01    1.151696e+00
  2.251572e+01    1.147755e+00
  2.253160e+01    1.139426e+00
  2.254747e+01    1.090576e+00
  2.256335e+01    1.100146e+00
  2.257922e+01    1.099862e+00
  2.259510e+01    1.112923e+00
  2.261097e+01    1.106924e+00
  2.262685e+01    1.107550e+00
  2.264272e+01    1.086648e+00
  2.265860e+01    1.079143e+00
  2.267448e+01    1.097447e+00
  2.269035e+01    1.085607e+00
  2.270623e+01    1.069754e+00
  2.272210e+01    1.080082e+00
  2.273798e+01    1.062915e+00
  2.275385e+01    1.069888e+00
  2.276973e+01    1.051013e+00
  2.278560e+01    1.066366e+00
  2.280148e+01    1.050056e+00
  2.281736e+01    1.047256e+00
  2.283323e+01    1.037933e+00
  2.284911e+01    1.041255e+00
  2.286498e+01    1.050938e+00
  2.288086e+01    1.036497e+00
  2.289673e+01    1.032352e+00
  2.291261e+01    1.064424e+00
  2.292848e+01    1.037311e+00
  2.294436e+01    1.013349e+00
  2.296024e+01    1.025660e+00
  2.297611e+01    1.047430e+00
  2.299199e+01    1.058334e+00
  2.300786e+01    1.041761e+00
  2.302374e+01    1.031307e+00
  2.303961e+01    9.848301e-01
  2.305549e+01    1.012810e+00
  2.307137e+01    1.022134e+00
  2.308724e+01    9.960113e-01
  2.310312e+01    1.027547e+00
  2.311899e+01    1.018949e+00
  2.313487e+01    9.954183e-01
  2.315074e+01    1.009027e+00
  2.316662e+01    9.898250e-01
  2.318249e+01    9.912443e-01
  2.319837e+01    1.000126e+00
  2.321425e+01    9.962874e-01
  2.323012e+01    9.929891e-01
  2.324600e+01    9.884528e-01
  2.326187e+01    1.001175e+00
  2.327775e+01    9.814688e-01
  2.329362e+01    9.758861e-01
  2.330950e+01    9.781470e-01
  2.332537e+01    9.929194e-01
  2.334125e+01    9.919552e-01
  2.335713e+01    9.949704e-01
  2.337300e+01    9.853925e-01
  2.338888e+01    9.870932e-01
  2.340475e+01    9.817970e-01
  2.342063e+01    9.797890e-01
  2.343650e+01    9.682692e-01
  2.345238e+01    9.550768e-01
  2.346825e+01    9.638928e-01
  2.348413e+01    9.665277e-01
  2.350001e+01    9.698955e-01
  2.351588e+01    9.738935e-01
  2.353176e+01    9.558913e-01
  2.354763e+01    9.713079e-01
  2.356351e+01    9.542997e-01
  2.357938e+01    9.477656e-01
  2.359526e+01    9.590254e-01
  2.361113e+01    9.820580e-01
  2.362701e+01    9.739889e-01
  2.364289e+01    9.711913e-01
  2.365876e+01    9.498925e-01
  2.367464e+01    9.420964e-01
  2.369051e+01    9.372394e-01
  2.370639e+01    9.579588e-01
  2.372226e+01    9.538277e-01
  2.373814e+01    9.450517e-01
  2.375401e+01    9.239410e-01
  2.376989e+01    9.422287e-01
  2.378577e+01    9.399041e-01
  2.380164e+01    9.268305e-01
  2.381752e+01    9.275522e-01
  2.383339e+01    9.205649e-01
  2.384927e+01    9.391617e-01
  2.386514e+01    9.078219e-01
  2.388102e+01    9.022948e-01
  2.389689e+01    9.177681e-01
  2.391277e+01    9.101084e-01
  2.392865e+01    9.023314e-01
  2.394452e+01    9.077587e-01
  2.396040e+01    9.185480e-01
  2.397627e+01    9.069842e-01
  2.399215e+01    8.890910e-01
  2.400802e+01    8.962063e-01
  2.402390e+01    8.958334e-01
  2.403978e+01    8.856131e-01
  2.405565e+01    8.799390e-01
  2.407153e+01    9.093015e-01
  2.408740e+01    8.796970e-01
  2.410328e+01    8.905709e-01
  2.411915e+01    8.932649e-01
  2.413503e+01    8.811270e-01
  2.415090e+01    8.760258e-01
  2.416678e+01    8.636475e-01
  2.418266e+01    8.747120e-01
  2.419853e+01    8.870928e-01
  2.421441e+01    8.973992e-01
  2.423028e+01    8.790756e-01
  2.424616e+01    8.969957e-01
  2.426203e+01    8.945656e-01
  2.427791e+01    8.926337e-01
  2.429378e+01    8.970111e-01
  2.430966e+01    8.938511e-01
  2.432554e+01    9.091465e-01
  2.434141e+01    9.175747e-01
  2.435729e+01    8.943005e-01
  2.437316e+01    8.719110e-01
  2.438904e+01    8.755057e-01
  2.440491e+01    8.691370e-01
  2.442079e+01    8.865314e-01
  2.443666e+01    8.945817e-01
  2.445254e+01    8.882874e-01
  2.446842e+01    8.883455e-01
  2.448429e+01    9.093802e-01
  2.450017e+01    9.018779e-01
  2.451604e+01    8.693826e-01
  2.453192e+01    8.872369e-01
  2.454779e+01    8.969882e-01
  2.456367e+01    8.904860e-01
  2.457954e+01    8.808780e-01
  2.459542e+01    8.882986e-01
  2.461130e+01    8.880678e-01
  2.462717e+01    9.033151e-01
  2.464305e+01    9.084159e-01
  2.465892e+01    9.161018e-01
  2.467480e+01    9.104455e-01
  2.469067e+01    9.005152e-01
  2.470655e+01    9.085548e-01
  2.472242e+01    8.853743e-01
  2.473830e+01    8.845717e-01
  2.475418e+01    8.797034e-01
  2.477005e+01    8.959262e-01
  2.478593e+01    8.999252e-01
  2.480180e+01    9.071126e-01
  2.481768e+01    9.102744e-01
  2.483355e+01    9.028318e-01
  2.484943e+01    8.875409e-01
  2.486530e+01    9.102135e-01
  2.488118e+01    9.101793e-01
  2.489706e+01    9.109542e-01
  2.491293e+01    9.066003e-01
  2.492881e+01    8.974766e-01
  2.494468e+01    8.944089e-01
  2.496056e+01    8.890752e-01
  2.497643e+01    8.852644e-01
  2.499231e+01    8.882180e-01
  2.500819e+01    9.030063e-01
  2.502406e+01    9.154779e-01
  2.503994e+01    9.252923e-01
  2.505581e+01    9.121249e-01
  2.507169e+01    8.927112e-01
  2.508756e+01    8.920696e-01
  2.510344e+01    9.146647e-01
  2.511931e+01    9.389796e-01
  2.513519e+01    9.200222e-01
  2.515107e+01    8.999814e-01
  2.516694e+01    9.191787e-01
  2.518282e+01    9.162071e-01
  2.519869e+01    9.260753e-01
  2.521457e+01    9.337586e-01
  2.523044e+01    9.355243e-01
  2.524632e+01    9.289556e-01
  2.526219e+01    9.390260e-01
  2.527807e+01    9.630802e-01
  2.529395e+01    9.649364e-01
  2.530982e+01    9.507096e-01
  2.532570e+01    9.611379e-01
  2.534157e+01    9.613756e-01
  2.535745e+01    9.737976e-01
  2.537332e+01    9.908291e-01
  2.538920e+01    1.003916e+00
  2.540507e+01    9.894391e-01
  2.542095e+01    1.015642e+00
  2.543683e+01    1.007158e+00
  2.545270e+01    1.032631e+00
  2.546858e+01    1.058292e+00
  2.548445e+01    1.043684e+00
  2.550033e+01    1.064860e+00
  2.551620e+01    1.081660e+00
  2.553208e+01    1.089211e+00
  2.554795e+01    1.098208e+00
  2.556383e+01    1.129137e+00
  2.557971e+01    1.169306e+00
  2.559558e+01    1.195908e+00
  2.561146e+01    1.212159e+00
  2.562733e+01    1.243590e+00
  2.564321e+01    1.299102e+00
  2.565908e+01    1.381307e+00
  2.567496e+01    1.412147e+00
  2.569083e+01    1.484948e+00
  2.570671e+01    1.594635e+00
  2.572259e+01    1.695915e+00
  2.573846e+01    1.838360e+00
  2.575434e+01    2.015701e+00
  2.577021e+01    2.202793e+00
  2.578609e+01    2.485590e+00
  2.580196e+01    2.805726e+00
  2.581784e+01    3.194513e+00
  2.583371e+01    3.628644e+00
  2.584959e+01    4.141394e+00
  2.586547e+01    4.679111e+00
  2.588134e+01    5.271707e+00
  2.589722e+01    5.770292e+00
  2.591309e+01    6.333903e+00
  2.592897e+01    6.812763e+00
  2.594484e+01    7.097264e+00
  2.596072e+01    7.193253e+00
  2.597660e+01    6.956962e+00
  2.599247e+01    6.549255e+00
  2.600835e+01    5.973476e+00
  2.602422e+01    5.291727e+00
  2.604010e+01    4.594226e+00
  2.605597e+01    4.004014e+00
  2.607185e+01    3.454787e+00
  2.608772e+01    3.042857e+00
  2.610360e+01    2.638489e+00
  2.611948e+01    2.351530e+00
  2.613535e+01    2.131181e+00
  2.615123e+01    1.933077e+00
  2.616710e+01    1.784319e+00
  2.618298e+01    1.679819e+00
  2.619885e+01    1.584315e+00
  2.621473e+01    1.488596e+00
  2.623060e+01    1.417164e+00
  2.624648e+01    1.340872e+00
  2.626236e+01    1.305394e+00
  2.627823e+01    1.251484e+00
  2.629411e+01    1.191260e+00
  2.630998e+01    1.174810e+00
  2.632586e+01    1.130997e+00
  2.634173e+01    1.119388e+00
  2.635761e+01    1.092624e+00
  2.637348e+01    1.079908e+00
  2.638936e+01    1.078485e+00
  2.640524e+01    1.062728e+00
  2.642111e+01    1.036351e+00
  2.643699e+01    1.017243e+00
  2.645286e+01    1.035139e+00
  2.646874e+01    1.037359e+00
  2.648461e+01    1.041154e+00
  2.650049e+01    1.025588e+00
  2.651636e+01    9.916676e-01
  2.653224e+01    9.905168e-01
  2.654812e+01    9.944547e-01
  2.656399e+01    9.865168e-01
  2.657987e+01    9.938042e-01
  2.659574e+01    1.001158e+00
  2.661162e+01    9.744841e-01
  2.662749e+01    9.698314e-01
  2.664337e+01    9.620761e-01
  2.665924e+01    9.672452e-01
  2.667512e+01    9.696789e-01
  2.669100e+01    9.564574e-01
  2.670687e+01    9.621767e-01
  2.672275e+01    9.580748e-01
  2.673862e+01    9.634736e-01
  2.675450e+01    9.637755e-01
  2.677037e+01    9.714797e-01
  2.678625e+01    9.674699e-01
  2.680212e+01    9.536453e-01
  2.681800e+01    9.782680e-01
  2.683388e+01    9.752916e-01
  2.684975e+01    9.839024e-01
  2.686563e+01    9.988443e-01
  2.688150e+01    9.974667e-01
  2.689738e+01    9.998504e-01
  2.691325e+01    1.010537e+00
  2.692913e+01    1.014076e+00
  2.694501e+01    1.023739e+00
  2.696088e+01    1.029039e+00
  2.697676e+01    1.060607e+00
  2.699263e+01    1.090597e+00
  2.700851e+01    1.127214e+00
  2.702438e+01    1.202000e+00
  2.704026e+01    1.216175e+00
  2.705613e+01    1.240844e+00
  2.707201e+01    1.303872e+00
  2.708789e+01    1.367692e+00
  2.710376e+01    1.473872e+00
  2.711964e+01    1.582069e+00
  2.713551e+01    1.671430e+00
  2.715139e+01    1.854749e+00
  2.716726e+01    1.994555e+00
  2.718314e+01    2.092078e+00
  2.719901e+01    2.129809e+00
  2.721489e+01    2.159626e+00
  2.723077e+01    2.148829e+00
  2.724664e+01    2.079626e+00
  2.726252e+01    1.933553e+00
  2.727839e+01    1.831094e+00
  2.729427e+01    1.717556e+00
  2.731014e+01    1.578029e+00
  2.732602e+01    1.444177e+00
  2.734189e+01    1.359095e+00
  2.735777e+01    1.280101e+00
  2.737365e+01    1.225276e+00
  2.738952e+01    1.164461e+00
  2.740540e+01    1.128639e+00
  2.742127e+01    1.104591e+00
  2.743715e+01    1.052872e+00
  2.745302e+01    1.029005e+00
  2.746890e+01    1.026425e+00
  2.748477e+01    1.017506e+00
  2.750065e+01    9.973065e-01
  2.751653e+01    9.900509e-01
  2.753240e+01    9.727553e-01
  2.754828e+01    9.383747e-01
  2.756415e+01    9.292789e-01
  2.758003e+01    9.434126e-01
  2.759590e+01    9.527829e-01
  2.761178e+01    9.154829e-01
  2.762765e+01    9.269598e-01
  2.764353e+01    9.254891e-01
  2.765941e+01    9.206212e-01
  2.767528e+01    9.091861e-01
  2.769116e+01    9.331950e-01
  2.770703e+01    9.030477e-01
  2.772291e+01    9.005004e-01
  2.773878e+01    9.100861e-01
  2.775466e+01    8.976367e-01
  2.777054e+01    8.812432e-01
  2.778641e+01    8.746452e-01
  2.780229e+01    8.578498e-01
  2.781816e+01    8.652205e-01
  2.783404e+01    8.742707e-01
  2.784991e+01    8.904639e-01
  2.786579e+01    8.853730e-01
  2.788166e+01    8.685461e-01
  2.789754e+01    8.769811e-01
  2.791342e+01    8.861285e-01
  2.792929e+01    8.794078e-01
  2.794517e+01    8.770698e-01
  2.796104e+01    8.794776e-01
  2.797692e+01    8.722798e-01
  2.799279e+01    8.536920e-01
  2.800867e+01    8.759100e-01
  2.802454e+01    8.755541e-01
  2.804042e+01    8.434243e-01
  2.805630e+01    8.614360e-01
  2.807217e+01    8.658562e-01
  2.808805e+01    8.768521e-01
  2.810392e+01    8.757159e-01
  2.811980e+01    8.617545e-01
  2.813567e+01    8.496775e-01
  2.815155e+01    8.439649e-01
  2.816742e+01    8.442219e-01
  2.818330e+01    8.689862e-01
  2.819918e+01    8.852998e-01
  2.821505e+01    8.451636e-01
  2.823093e+01    8.499092e-01
  2.824680e+01    8.576671e-01
  2.826268e+01    8.631052e-01
  2.827855e+01    8.573222e-01
  2.829443e+01    8.408517e-01
  2.831030e+01    8.500006e-01
  2.832618e+01    8.538201e-01
  2.834206e+01    8.402330e-01
  2.835793e+01    8.265266e-01
  2.837381e+01    8.395341e-01
  2.838968e+01    8.582407e-01
  2.840556e+01    8.635044e-01
  2.842143e+01    8.501800e-01
  2.843731e+01    8.448486e-01
  2.845318e+01    8.297044e-01
  2.846906e+01    8.204345e-01
  2.848494e+01    8.242281e-01
  2.850081e+01    8.359224e-01
  2.851669e+01    8.415341e-01
  2.853256e+01    8.411472e-01
  2.854844e+01    8.568594e-01
  2.856431e+01    8.516688e-01
  2.858019e+01    8.409824e-01
  2.859606e+01    8.408775e-01
  2.861194e+01    8.217182e-01
  2.862782e+01    8.301471e-01
  2.864369e+01    8.355780e-01
  2.865957e+01    8.487448e-01
  2.867544e+01    8.323309e-01
  2.869132e+01    8.463276e-01
  2.870719e+01    8.434432e-01
  2.872307e+01    8.195494e-01
  2.873895e+01    8.385301e-01
  2.875482e+01    8.516126e-01
  2.877070e+01    8.444469e-01
  2.878657e+01    8.295555e-01
  2.880245e+01    8.293135e-01
  2.881832e+01    8.307142e-01
  2.883420e+01    8.496840e-01
  2.885007e+01    8.444271e-01
  2.886595e+01    8.553399e-01
  2.888183e+01    8.258509e-01
  2.889770e+01    8.151390e-01
  2.891358e+01    8.118346e-01
  2.892945e+01    8.298236e-01
  2.894533e+01    8.176359e-01
  2.896120e+01    7.996413e-01
  2.897708e+01    8.132843e-01
  2.899295e+01    8.212104e-01
  2.900883e+01    8.054825e-01
  2.902471e+01    7.982315e-01
  2.904058e+01    8.218279e-01
  2.905646e+01    7.965388e-01
  2.907233e+01    8.005733e-01
  2.908821e+01    8.083107e-01
  2.910408e+01    8.057600e-01
  2.911996e+01    8.194815e-01
  2.913583e+01    8.169531e-01
  2.915171e+01    8.135276e-01
  2.916759e+01    8.265117e-01
  2.918346e+01    8.279383e-01
  2.919934e+01    8.185407e-01
  2.921521e+01    7.966489e-01
  2.923109e+01    7.959220e-01
  2.924696e+01    8.244282e-01
  2.926284e+01    8.189877e-01
  2.927871e+01    8.188766e-01
  2.929459e+01    8.217350e-01
  2.931047e+01    8.064441e-01
  2.932634e+01    8.036355e-01
  2.934222e+01    8.164795e-01
  2.935809e+01    7.926241e-01
  2.937397e+01    8.023519e-01
  2.938984e+01    8.078573e-01
  2.940572e+01    8.113313e-01
  2.942159e+01    8.053381e-01
  2.943747e+01    7.897043e-01
  2.945335e+01    7.995085e-01
  2.946922e+01    7.976850e-01
  2.948510e+01    7.935436e-01
  2.950097e+01    8.097063e-01
  2.951685e+01    8.084295e-01
  2.953272e+01    7.885268e-01
  2.954860e+01    7.983777e-01
  2.956447e+01    8.010861e-01
  2.958035e+01    8.196267e-01
  2.959623e+01    8.265985e-01
  2.961210e+01    7.941029e-01
  2.962798e+01    8.012072e-01
  2.964385e+01    8.116238e-01
  2.965973e+01    7.864491e-01
  2.967560e+01    8.105387e-01
  2.969148e+01    8.093258e-01
  2.970736e+01    7.975414e-01
  2.972323e+01    8.112078e-01
  2.973911e+01    7.908175e-01
  2.975498e+01    7.726350e-01
  2.977086e+01    7.815470e-01
  2.978673e+01    7.780347e-01
  2.980261e+01    7.961481e-01
  2.981848e+01    7.852018e-01
  2.983436e+01    7.874536e-01
  2.985024e+01    7.807915e-01
  2.986611e+01    7.931266e-01
  2.988199e+01    8.036975e-01
  2.989786e+01    8.080988e-01
  2.991374e+01    8.086138e-01
  2.992961e+01    8.032315e-01
  2.994549e+01    7.989755e-01
  2.996136e+01    7.999581e-01
  2.997724e+01    8.098736e-01
  2.999312e+01    8.082084e-01
  3.000899e+01    8.121704e-01
  3.002487e+01    8.054534e-01
  3.004074e+01    8.292391e-01
  3.005662e+01    8.040571e-01
  3.007249e+01    8.092471e-01
  3.008837e+01    8.220806e-01
  3.010424e+01    7.947481e-01
  3.012012e+01    7.846348e-01
  3.013600e+01    7.784951e-01
  3.015187e+01    7.886019e-01
  3.016775e+01    8.195989e-01
  3.018362e+01    8.031651e-01
  3.019950e+01    7.825254e-01
  3.021537e+01    7.810563e-01
  3.023125e+01    7.705144e-01
  3.024712e+01    7.938037e-01
  3.026300e+01    7.861813e-01
  3.027888e+01    8.029473e-01
  3.029475e+01    8.001722e-01
  3.031063e+01    7.927400e-01
  3.032650e+01    8.003048e-01
  3.034238e+01    7.996165e-01
  3.035825e+01    7.868034e-01
  3.037413e+01    7.843426e-01
  3.039000e+01    7.944843e-01
  3.040588e+01    7.812979e-01
  3.042176e+01    7.954851e-01
  3.043763e+01    7.611434e-01
  3.045351e+01    7.655019e-01
  3.046938e+01    7.806246e-01
  3.048526e+01    7.747180e-01
  3.050113e+01    7.778789e-01
  3.051701e+01    7.619414e-01
  3.053288e+01    7.762435e-01
  3.054876e+01    7.964314e-01
  3.056464e+01    7.898011e-01
  3.058051e+01    7.932447e-01
  3.059639e+01    8.031145e-01
  3.061226e+01    8.015578e-01
  3.062814e+01    7.973976e-01
  3.064401e+01    8.141035e-01
  3.065989e+01    8.086854e-01
  3.067577e+01    7.983445e-01
  3.069164e+01    7.973925e-01
  3.070752e+01    7.865456e-01
  3.072339e+01    7.710423e-01
  3.073927e+01    7.818139e-01
  3.075514e+01    7.753660e-01
  3.077102e+01    8.007224e-01
  3.078689e+01    7.947686e-01
  3.080277e+01    7.679078e-01
  3.081865e+01    7.913900e-01
  3.083452e+01    8.083908e-01
  3.085040e+01    7.978942e-01
  3.086627e+01    7.795216e-01
  3.088215e+01    8.037730e-01
  3.089802e+01    7.987300e-01
  3.091390e+01    7.975439e-01
  3.092977e+01    7.863353e-01
  3.094565e+01    7.789306e-01
  3.096153e+01    7.790488e-01
  3.097740e+01    7.925535e-01
  3.099328e+01    7.953503e-01
  3.100915e+01    7.947714e-01
  3.102503e+01    7.924141e-01
  3.104090e+01    7.950102e-01
  3.105678e+01    7.763759e-01
  3.107265e+01    7.822614e-01
  3.108853e+01    7.798868e-01
  3.110441e+01    7.771350e-01
  3.112028e+01    7.741327e-01
  3.113616e+01    7.879782e-01
  3.115203e+01    7.782426e-01
  3.116791e+01    7.799344e-01
  3.118378e+01    7.929311e-01
  3.119966e+01    8.110912e-01
  3.121553e+01    7.902913e-01
  3.123141e+01    7.927402e-01
  3.124729e+01    8.085999e-01
  3.126316e+01    8.053603e-01
  3.127904e+01    7.838390e-01
  3.129491e+01    7.995697e-01
  3.131079e+01    8.189790e-01
  3.132666e+01    8.148420e-01
  3.134254e+01    8.030756e-01
  3.135841e+01    7.949810e-01
  3.137429e+01    8.095976e-01
  3.139017e+01    8.239554e-01
  3.140604e+01    8.090728e-01
  3.142192e+01    7.965456e-01
  3.143779e+01    8.126040e-01
  3.145367e+01    8.249478e-01
  3.146954e+01    8.404327e-01
  3.148542e+01    8.155387e-01
  3.150129e+01    8.291845e-01
  3.151717e+01    8.309073e-01
  3.153305e+01    8.429635e-01
  3.154892e+01    8.379064e-01
  3.156480e+01    8.476999e-01
  3.158067e+01    8.648426e-01
  3.159655e+01    8.768647e-01
  3.161242e+01    8.715775e-01
  3.162830e+01    8.925424e-01
  3.164418e+01    9.225153e-01
  3.166005e+01    9.549483e-01
  3.167593e+01    9.672711e-01
  3.169180e+01    1.002404e+00
  3.170768e+01    1.043142e+00
  3.172355e+01    1.055745e+00
  3.173943e+01    1.130602e+00
  3.175530e+01    1.175271e+00
  3.177118e+01    1.253313e+00
  3.178706e+01    1.363703e+00
  3.180293e+01    1.454519e+00
  3.181881e+01    1.586414e+00
  3.183468e+01    1.687684e+00
  3.185056e+01    1.837795e+00
  3.186643e+01    1.932972e+00
  3.188231e+01    2.037884e+00
  3.189818e+01    2.110328e+00
  3.191406e+01    2.088120e+00
  3.192994e+01    2.083666e+00
  3.194581e+01    1.981324e+00
  3.196169e+01    1.828711e+00
  3.197756e+01    1.715087e+00
  3.199344e+01    1.565531e+00
  3.200931e+01    1.445540e+00
  3.202519e+01    1.320949e+00
  3.204106e+01    1.213308e+00
  3.205694e+01    1.135066e+00
  3.207282e+01    1.098481e+00
  3.208869e+01    1.051632e+00
  3.210457e+01    9.925542e-01
  3.212044e+01    9.632763e-01
  3.213632e+01    9.263287e-01
  3.215219e+01    9.114311e-01
  3.216807e+01    8.955187e-01
  3.218394e+01    9.087061e-01
  3.219982e+01    8.929563e-01
  3.221570e+01    8.768725e-01
  3.223157e+01    8.496204e-01
  3.224745e+01    8.562138e-01
  3.226332e+01    8.436214e-01
  3.227920e+01    8.463781e-01
  3.229507e+01    7.997995e-01
  3.231095e+01    7.983143e-01
  3.232682e+01    8.139750e-01
  3.234270e+01    8.254051e-01
  3.235858e+01    8.140100e-01
  3.237445e+01    7.783836e-01
  3.239033e+01    7.964624e-01
  3.240620e+01    7.979466e-01
  3.242208e+01    7.742580e-01
  3.243795e+01    8.022012e-01
  3.245383e+01    7.823587e-01
  3.246970e+01    7.969204e-01
  3.248558e+01    7.952932e-01
  3.250146e+01    7.933990e-01
  3.251733e+01    7.861249e-01
  3.253321e+01    7.734288e-01
  3.254908e+01    7.884983e-01
