# == pyFAI calibration ==
# Distance Sample to Detector: 0.3999999939076516 m
# PONI: 9.750e-02, 1.135e-01 m
# Rotations: -0.000175 0.000000 -0.000000 rad
# 
# == Fit2d calibration ==
# Distance Sample-beamCenter: 400.000 mm
# Center: x=1514.000, y=1300.000 pix
# Tilt: 0.010 deg  TiltPlanRot: 0.010 deg
# 
# Detector Detector	 Spline= None	 PixelSize= 7.500e-05, 7.500e-05 m
#    Detector has a mask: False 
#    Detector has a dark current: False 
#    detector has a flat field: False 
# 
# Wavelength: 6.888e-11 m
# Mask applied: user provided
# Dark current applied: False
# Flat field applied: False
# Polarization factor: 0.99
# Normalization factor: 1.0
# --> /home/myspot/data/2024_07_Rosario/Ru-CGO-ex/2024-07-27_003_Ru-CGO-ex_Reaction_dwell_000023_data_000133.dat
#       q_nm^-1             I 
  2.003187e-02    1.424646e-01
  3.590745e-02    0.000000e+00
  5.178302e-02    7.451738e-02
  6.765859e-02    1.635042e-01
  8.353417e-02    1.379245e-01
  9.940974e-02    8.124194e-02
  1.152853e-01    1.038401e-01
  1.311609e-01    2.618030e-02
  1.470365e-01    2.606039e-02
  1.629120e-01    9.534026e-03
  1.787876e-01    2.078079e-02
  1.946632e-01    1.009009e-02
  2.105388e-01    4.848365e-02
  2.264143e-01    3.236492e-02
  2.422899e-01    2.126491e-02
  2.581655e-01    3.930198e-02
  2.740411e-01    4.550103e-02
  2.899166e-01    4.535636e-02
  3.057922e-01    4.426540e-02
  3.216678e-01    3.643912e-02
  3.375433e-01    1.998535e-02
  3.534189e-01    1.777546e-02
  3.692945e-01    3.305097e-02
  3.851701e-01    4.077704e-02
  4.010456e-01    6.559672e-02
  4.169212e-01    4.243800e-02
  4.327968e-01    7.652459e-02
  4.486724e-01    4.583162e-02
  4.645479e-01    4.287158e-02
  4.804235e-01    3.440736e-02
  4.962991e-01    5.071634e-02
  5.121747e-01    5.152607e-02
  5.280502e-01    4.102847e-02
  5.439258e-01    4.998829e-02
  5.598014e-01    5.650999e-02
  5.756770e-01    5.573185e-02
  5.915525e-01    6.234323e-02
  6.074281e-01    5.015552e-02
  6.233037e-01    3.947035e-02
  6.391793e-01    3.889506e-02
  6.550548e-01    1.633296e-02
  6.709304e-01    2.510733e-02
  6.868060e-01    1.617809e-02
  7.026815e-01    2.623950e-02
  7.185571e-01    3.772553e-02
  7.344327e-01    3.382165e-02
  7.503083e-01    5.281201e-02
  7.661838e-01    7.863761e-02
  7.820594e-01    9.720356e-02
  7.979350e-01    1.625854e-01
  8.138106e-01    1.965044e-01
  8.296861e-01    3.195898e-01
  8.455617e-01    4.455289e-01
  8.614373e-01    4.773585e-01
  8.773129e-01    4.511541e-01
  8.931884e-01    5.716954e-01
  9.090640e-01    6.327676e-01
  9.249396e-01    7.892348e-01
  9.408152e-01    8.380455e-01
  9.566907e-01    9.148415e-01
  9.725663e-01    1.089143e+00
  9.884419e-01    1.102581e+00
  1.004317e+00    1.136423e+00
  1.020193e+00    1.276059e+00
  1.036069e+00    1.373211e+00
  1.051944e+00    1.453421e+00
  1.067820e+00    1.440872e+00
  1.083695e+00    1.525148e+00
  1.099571e+00    1.655700e+00
  1.115446e+00    1.822630e+00
  1.131322e+00    1.762339e+00
  1.147198e+00    1.688432e+00
  1.163073e+00    1.692980e+00
  1.178949e+00    1.748561e+00
  1.194824e+00    1.936930e+00
  1.210700e+00    2.136070e+00
  1.226575e+00    2.251128e+00
  1.242451e+00    2.335002e+00
  1.258327e+00    2.446727e+00
  1.274202e+00    2.588652e+00
  1.290078e+00    2.730959e+00
  1.305953e+00    2.562949e+00
  1.321829e+00    2.803380e+00
  1.337705e+00    2.779260e+00
  1.353580e+00    2.646308e+00
  1.369456e+00    2.716664e+00
  1.385331e+00    2.887643e+00
  1.401207e+00    2.926847e+00
  1.417082e+00    2.823889e+00
  1.432958e+00    2.797827e+00
  1.448834e+00    3.030733e+00
  1.464709e+00    3.116117e+00
  1.480585e+00    3.125923e+00
  1.496460e+00    3.146138e+00
  1.512336e+00    3.175580e+00
  1.528211e+00    3.232813e+00
  1.544087e+00    3.205565e+00
  1.559963e+00    3.225300e+00
  1.575838e+00    3.254300e+00
  1.591714e+00    3.218407e+00
  1.607589e+00    3.237505e+00
  1.623465e+00    3.140153e+00
  1.639340e+00    3.124881e+00
  1.655216e+00    3.155481e+00
  1.671092e+00    3.084774e+00
  1.686967e+00    3.126422e+00
  1.702843e+00    2.987825e+00
  1.718718e+00    3.123335e+00
  1.734594e+00    3.080204e+00
  1.750469e+00    3.126939e+00
  1.766345e+00    3.057145e+00
  1.782221e+00    3.075510e+00
  1.798096e+00    3.102957e+00
  1.813972e+00    3.098983e+00
  1.829847e+00    3.082045e+00
  1.845723e+00    3.055829e+00
  1.861598e+00    3.057624e+00
  1.877474e+00    3.053819e+00
  1.893350e+00    2.976538e+00
  1.909225e+00    3.043074e+00
  1.925101e+00    3.135565e+00
  1.940976e+00    3.035028e+00
  1.956852e+00    2.991065e+00
  1.972727e+00    3.204212e+00
  1.988603e+00    3.204314e+00
  2.004479e+00    3.131232e+00
  2.020354e+00    3.004185e+00
  2.036230e+00    3.066648e+00
  2.052105e+00    3.210515e+00
  2.067981e+00    3.256109e+00
  2.083856e+00    3.154341e+00
  2.099732e+00    3.137462e+00
  2.115608e+00    3.152183e+00
  2.131483e+00    3.129214e+00
  2.147359e+00    3.149805e+00
  2.163234e+00    3.093431e+00
  2.179110e+00    2.997660e+00
  2.194985e+00    2.936399e+00
  2.210861e+00    3.049282e+00
  2.226737e+00    3.092747e+00
  2.242612e+00    3.122063e+00
  2.258488e+00    3.097334e+00
  2.274363e+00    3.146273e+00
  2.290239e+00    3.171551e+00
  2.306115e+00    3.195936e+00
  2.321990e+00    3.199930e+00
  2.337866e+00    3.115430e+00
  2.353741e+00    3.152820e+00
  2.369617e+00    3.206856e+00
  2.385492e+00    3.156566e+00
  2.401368e+00    3.110363e+00
  2.417244e+00    3.146612e+00
  2.433119e+00    3.244552e+00
  2.448995e+00    3.217767e+00
  2.464870e+00    3.223645e+00
  2.480746e+00    3.211050e+00
  2.496621e+00    3.217842e+00
  2.512497e+00    3.243098e+00
  2.528373e+00    3.287177e+00
  2.544248e+00    3.275472e+00
  2.560124e+00    3.283786e+00
  2.575999e+00    3.255206e+00
  2.591875e+00    3.327070e+00
  2.607750e+00    3.329185e+00
  2.623626e+00    3.331220e+00
  2.639502e+00    3.298908e+00
  2.655377e+00    3.277525e+00
  2.671253e+00    3.234179e+00
  2.687128e+00    3.246508e+00
  2.703004e+00    3.260933e+00
  2.718879e+00    3.184799e+00
  2.734755e+00    3.275499e+00
  2.750631e+00    3.250761e+00
  2.766506e+00    3.256073e+00
  2.782382e+00    3.286604e+00
  2.798257e+00    3.285514e+00
  2.814133e+00    3.286003e+00
  2.830008e+00    3.299197e+00
  2.845884e+00    3.322798e+00
  2.861760e+00    3.301602e+00
  2.877635e+00    3.313706e+00
  2.893511e+00    3.311548e+00
  2.909386e+00    3.334816e+00
  2.925262e+00    3.357285e+00
  2.941137e+00    3.396743e+00
  2.957013e+00    3.339397e+00
  2.972889e+00    3.328865e+00
  2.988764e+00    3.396193e+00
  3.004640e+00    3.486953e+00
  3.020515e+00    3.417057e+00
  3.036391e+00    3.360711e+00
  3.052266e+00    3.437405e+00
  3.068142e+00    3.287897e+00
  3.084018e+00    3.293745e+00
  3.099893e+00    3.328245e+00
  3.115769e+00    3.380834e+00
  3.131644e+00    3.374156e+00
  3.147520e+00    3.330829e+00
  3.163395e+00    3.426365e+00
  3.179271e+00    3.368284e+00
  3.195147e+00    3.348510e+00
  3.211022e+00    3.452567e+00
  3.226898e+00    3.424875e+00
  3.242773e+00    3.519872e+00
  3.258649e+00    3.498127e+00
  3.274525e+00    3.366514e+00
  3.290400e+00    3.363810e+00
  3.306276e+00    3.355257e+00
  3.322151e+00    3.370720e+00
  3.338027e+00    3.324727e+00
  3.353902e+00    3.404387e+00
  3.369778e+00    3.500741e+00
  3.385654e+00    3.393470e+00
  3.401529e+00    3.483936e+00
  3.417405e+00    3.594070e+00
  3.433280e+00    3.569106e+00
  3.449156e+00    3.511910e+00
  3.465031e+00    3.498820e+00
  3.480907e+00    3.507567e+00
  3.496783e+00    3.448288e+00
  3.512658e+00    3.466892e+00
  3.528534e+00    3.462246e+00
  3.544409e+00    3.445263e+00
  3.560285e+00    3.431721e+00
  3.576160e+00    3.488273e+00
  3.592036e+00    3.424627e+00
  3.607912e+00    3.474033e+00
  3.623787e+00    3.473970e+00
  3.639663e+00    3.369004e+00
  3.655538e+00    3.365410e+00
  3.671414e+00    3.411761e+00
  3.687289e+00    3.425159e+00
  3.703165e+00    3.436156e+00
  3.719041e+00    3.467276e+00
  3.734916e+00    3.475331e+00
  3.750792e+00    3.567562e+00
  3.766667e+00    3.558595e+00
  3.782543e+00    3.538902e+00
  3.798418e+00    3.523177e+00
  3.814294e+00    3.564554e+00
  3.830170e+00    3.590064e+00
  3.846045e+00    3.539832e+00
  3.861921e+00    3.518917e+00
  3.877796e+00    3.524627e+00
  3.893672e+00    3.531780e+00
  3.909547e+00    3.524239e+00
  3.925423e+00    3.545908e+00
  3.941299e+00    3.569681e+00
  3.957174e+00    3.527966e+00
  3.973050e+00    3.597927e+00
  3.988925e+00    3.559385e+00
  4.004801e+00    3.553916e+00
  4.020676e+00    3.542364e+00
  4.036552e+00    3.526661e+00
  4.052428e+00    3.488668e+00
  4.068303e+00    3.490799e+00
  4.084179e+00    3.510629e+00
  4.100054e+00    3.576620e+00
  4.115930e+00    3.497798e+00
  4.131806e+00    3.449974e+00
  4.147681e+00    3.494789e+00
  4.163557e+00    3.533139e+00
  4.179432e+00    3.597658e+00
  4.195308e+00    3.583956e+00
  4.211183e+00    3.579229e+00
  4.227059e+00    3.655074e+00
  4.242935e+00    3.615617e+00
  4.258810e+00    3.654607e+00
  4.274686e+00    3.614519e+00
  4.290561e+00    3.613096e+00
  4.306437e+00    3.641814e+00
  4.322312e+00    3.518176e+00
  4.338188e+00    3.551200e+00
  4.354064e+00    3.488433e+00
  4.369939e+00    3.509838e+00
  4.385815e+00    3.626999e+00
  4.401690e+00    3.599584e+00
  4.417566e+00    3.595912e+00
  4.433441e+00    3.699762e+00
  4.449317e+00    3.640680e+00
  4.465193e+00    3.645334e+00
  4.481068e+00    3.671364e+00
  4.496944e+00    3.587819e+00
  4.512819e+00    3.625260e+00
  4.528695e+00    3.627938e+00
  4.544570e+00    3.605947e+00
  4.560446e+00    3.574270e+00
  4.576322e+00    3.543226e+00
  4.592197e+00    3.563695e+00
  4.608073e+00    3.651688e+00
  4.623948e+00    3.581548e+00
  4.639824e+00    3.610862e+00
  4.655699e+00    3.507616e+00
  4.671575e+00    3.581756e+00
  4.687451e+00    3.695373e+00
  4.703326e+00    3.722583e+00
  4.719202e+00    3.662843e+00
  4.735077e+00    3.603799e+00
  4.750953e+00    3.598173e+00
  4.766828e+00    3.618960e+00
  4.782704e+00    3.705479e+00
  4.798580e+00    3.669090e+00
  4.814455e+00    3.677203e+00
  4.830331e+00    3.685773e+00
  4.846206e+00    3.667934e+00
  4.862082e+00    3.672251e+00
  4.877957e+00    3.706288e+00
  4.893833e+00    3.758362e+00
  4.909709e+00    3.644072e+00
  4.925584e+00    3.619923e+00
  4.941460e+00    3.666305e+00
  4.957335e+00    3.640798e+00
  4.973211e+00    3.698219e+00
  4.989086e+00    3.688700e+00
  5.004962e+00    3.666987e+00
  5.020838e+00    3.658187e+00
  5.036713e+00    3.654221e+00
  5.052589e+00    3.663650e+00
  5.068464e+00    3.646943e+00
  5.084340e+00    3.634711e+00
  5.100216e+00    3.668298e+00
  5.116091e+00    3.623957e+00
  5.131967e+00    3.665766e+00
  5.147842e+00    3.659991e+00
  5.163718e+00    3.661917e+00
  5.179593e+00    3.699447e+00
  5.195469e+00    3.737987e+00
  5.211345e+00    3.675405e+00
  5.227220e+00    3.710563e+00
  5.243096e+00    3.704547e+00
  5.258971e+00    3.682338e+00
  5.274847e+00    3.694060e+00
  5.290722e+00    3.757979e+00
  5.306598e+00    3.741464e+00
  5.322474e+00    3.768632e+00
  5.338349e+00    3.721168e+00
  5.354225e+00    3.752580e+00
  5.370100e+00    3.673974e+00
  5.385976e+00    3.591876e+00
  5.401851e+00    3.723696e+00
  5.417727e+00    3.808969e+00
  5.433603e+00    3.696900e+00
  5.449478e+00    3.657271e+00
  5.465354e+00    3.650559e+00
  5.481229e+00    3.558624e+00
  5.497105e+00    3.564160e+00
  5.512980e+00    3.591863e+00
  5.528856e+00    3.642092e+00
  5.544732e+00    3.613242e+00
  5.560607e+00    3.684310e+00
  5.576483e+00    3.620385e+00
  5.592358e+00    3.588235e+00
  5.608234e+00    3.644319e+00
  5.624109e+00    3.676340e+00
  5.639985e+00    3.669930e+00
  5.655861e+00    3.647011e+00
  5.671736e+00    3.665366e+00
  5.687612e+00    3.678889e+00
  5.703487e+00    3.663370e+00
  5.719363e+00    3.573659e+00
  5.735238e+00    3.558481e+00
  5.751114e+00    3.649896e+00
  5.766990e+00    3.554163e+00
  5.782865e+00    3.550037e+00
  5.798741e+00    3.476684e+00
  5.814616e+00    3.545751e+00
  5.830492e+00    3.595281e+00
  5.846367e+00    3.517452e+00
  5.862243e+00    3.433907e+00
  5.878119e+00    3.555068e+00
  5.893994e+00    3.624994e+00
  5.909870e+00    3.563448e+00
  5.925745e+00    3.522664e+00
  5.941621e+00    3.452726e+00
  5.957497e+00    3.539219e+00
  5.973372e+00    3.681032e+00
  5.989248e+00    3.590517e+00
  6.005123e+00    3.537498e+00
  6.020999e+00    3.482531e+00
  6.036874e+00    3.568974e+00
  6.052750e+00    3.603514e+00
  6.068626e+00    3.590625e+00
  6.084501e+00    3.679579e+00
  6.100377e+00    3.669519e+00
  6.116252e+00    3.638742e+00
  6.132128e+00    3.632631e+00
  6.148003e+00    3.598749e+00
  6.163879e+00    3.579951e+00
  6.179755e+00    3.544144e+00
  6.195630e+00    3.545551e+00
  6.211506e+00    3.534231e+00
  6.227381e+00    3.473175e+00
  6.243257e+00    3.506261e+00
  6.259132e+00    3.574052e+00
  6.275008e+00    3.602928e+00
  6.290884e+00    3.607068e+00
  6.306759e+00    3.584517e+00
  6.322635e+00    3.581006e+00
  6.338510e+00    3.585609e+00
  6.354386e+00    3.652422e+00
  6.370261e+00    3.582992e+00
  6.386137e+00    3.561534e+00
  6.402013e+00    3.547974e+00
  6.417888e+00    3.600583e+00
  6.433764e+00    3.537440e+00
  6.449639e+00    3.559711e+00
  6.465515e+00    3.553713e+00
  6.481390e+00    3.556283e+00
  6.497266e+00    3.529715e+00
  6.513142e+00    3.539675e+00
  6.529017e+00    3.562793e+00
  6.544893e+00    3.518239e+00
  6.560768e+00    3.551663e+00
  6.576644e+00    3.547688e+00
  6.592519e+00    3.512597e+00
  6.608395e+00    3.600454e+00
  6.624271e+00    3.626141e+00
  6.640146e+00    3.607395e+00
  6.656022e+00    3.564896e+00
  6.671897e+00    3.511747e+00
  6.687773e+00    3.435356e+00
  6.703648e+00    3.585783e+00
  6.719524e+00    3.618459e+00
  6.735400e+00    3.479344e+00
  6.751275e+00    3.592177e+00
  6.767151e+00    3.628451e+00
  6.783026e+00    3.528247e+00
  6.798902e+00    3.591096e+00
  6.814777e+00    3.633014e+00
  6.830653e+00    3.682482e+00
  6.846529e+00    3.628248e+00
  6.862404e+00    3.578223e+00
  6.878280e+00    3.602252e+00
  6.894155e+00    3.585027e+00
  6.910031e+00    3.532461e+00
  6.925907e+00    3.486549e+00
  6.941782e+00    3.514908e+00
  6.957658e+00    3.511928e+00
  6.973533e+00    3.563038e+00
  6.989409e+00    3.556000e+00
  7.005284e+00    3.586017e+00
  7.021160e+00    3.582232e+00
  7.037036e+00    3.495167e+00
  7.052911e+00    3.541262e+00
  7.068787e+00    3.570011e+00
  7.084662e+00    3.521032e+00
  7.100538e+00    3.535285e+00
  7.116413e+00    3.542870e+00
  7.132289e+00    3.552100e+00
  7.148165e+00    3.575261e+00
  7.164040e+00    3.601293e+00
  7.179916e+00    3.494625e+00
  7.195791e+00    3.559012e+00
  7.211667e+00    3.601015e+00
  7.227542e+00    3.508707e+00
  7.243418e+00    3.491848e+00
  7.259294e+00    3.517266e+00
  7.275169e+00    3.484375e+00
  7.291045e+00    3.467388e+00
  7.306920e+00    3.497231e+00
  7.322796e+00    3.497991e+00
  7.338671e+00    3.543831e+00
  7.354547e+00    3.568306e+00
  7.370423e+00    3.544893e+00
  7.386298e+00    3.556446e+00
  7.402174e+00    3.593744e+00
  7.418049e+00    3.532746e+00
  7.433925e+00    3.440112e+00
  7.449800e+00    3.503285e+00
  7.465676e+00    3.504468e+00
  7.481552e+00    3.466937e+00
  7.497427e+00    3.547194e+00
  7.513303e+00    3.549314e+00
  7.529178e+00    3.510597e+00
  7.545054e+00    3.457799e+00
  7.560929e+00    3.422744e+00
  7.576805e+00    3.468844e+00
  7.592681e+00    3.510359e+00
  7.608556e+00    3.515399e+00
  7.624432e+00    3.526321e+00
  7.640307e+00    3.485109e+00
  7.656183e+00    3.403958e+00
  7.672058e+00    3.405406e+00
  7.687934e+00    3.471802e+00
  7.703810e+00    3.514043e+00
  7.719685e+00    3.545563e+00
  7.735561e+00    3.541449e+00
  7.751436e+00    3.459911e+00
  7.767312e+00    3.496623e+00
  7.783187e+00    3.433331e+00
  7.799063e+00    3.437483e+00
  7.814939e+00    3.412472e+00
  7.830814e+00    3.427169e+00
  7.846690e+00    3.542994e+00
  7.862565e+00    3.485894e+00
  7.878441e+00    3.472178e+00
  7.894317e+00    3.475847e+00
  7.910192e+00    3.436160e+00
  7.926068e+00    3.413950e+00
  7.941943e+00    3.403132e+00
  7.957819e+00    3.412520e+00
  7.973694e+00    3.359454e+00
  7.989570e+00    3.359702e+00
  8.005446e+00    3.462044e+00
  8.021321e+00    3.523384e+00
  8.037197e+00    3.436321e+00
  8.053072e+00    3.411226e+00
  8.068948e+00    3.453980e+00
  8.084823e+00    3.443525e+00
  8.100699e+00    3.455923e+00
  8.116575e+00    3.439307e+00
  8.132450e+00    3.428722e+00
  8.148326e+00    3.447698e+00
  8.164201e+00    3.456870e+00
  8.180077e+00    3.448507e+00
  8.195952e+00    3.493095e+00
  8.211828e+00    3.459982e+00
  8.227704e+00    3.474947e+00
  8.243579e+00    3.418767e+00
  8.259455e+00    3.471349e+00
  8.275330e+00    3.388855e+00
  8.291206e+00    3.444177e+00
  8.307081e+00    3.383762e+00
  8.322957e+00    3.375767e+00
  8.338833e+00    3.388416e+00
  8.354708e+00    3.431474e+00
  8.370584e+00    3.450356e+00
  8.386459e+00    3.409357e+00
  8.402335e+00    3.354130e+00
  8.418210e+00    3.397538e+00
  8.434086e+00    3.401979e+00
  8.449962e+00    3.374944e+00
  8.465837e+00    3.398570e+00
  8.481713e+00    3.341772e+00
  8.497588e+00    3.352441e+00
  8.513464e+00    3.310163e+00
  8.529339e+00    3.307383e+00
  8.545215e+00    3.388089e+00
  8.561091e+00    3.352371e+00
  8.576966e+00    3.349400e+00
  8.592842e+00    3.347935e+00
  8.608717e+00    3.422538e+00
  8.624593e+00    3.388019e+00
  8.640468e+00    3.366611e+00
  8.656344e+00    3.374889e+00
  8.672220e+00    3.426258e+00
  8.688095e+00    3.318343e+00
  8.703971e+00    3.323280e+00
  8.719846e+00    3.403230e+00
  8.735722e+00    3.383972e+00
  8.751598e+00    3.342259e+00
  8.767473e+00    3.301676e+00
  8.783349e+00    3.378501e+00
  8.799224e+00    3.417555e+00
  8.815100e+00    3.292369e+00
  8.830975e+00    3.274561e+00
  8.846851e+00    3.367616e+00
  8.862727e+00    3.379587e+00
  8.878602e+00    3.326480e+00
  8.894478e+00    3.351725e+00
  8.910353e+00    3.273503e+00
  8.926229e+00    3.315419e+00
  8.942104e+00    3.347279e+00
  8.957980e+00    3.325648e+00
  8.973856e+00    3.248197e+00
  8.989731e+00    3.218824e+00
  9.005607e+00    3.267702e+00
  9.021482e+00    3.297616e+00
  9.037358e+00    3.248821e+00
  9.053233e+00    3.197387e+00
  9.069109e+00    3.240376e+00
  9.084985e+00    3.232624e+00
  9.100860e+00    3.231512e+00
  9.116736e+00    3.261841e+00
  9.132611e+00    3.289277e+00
  9.148487e+00    3.282708e+00
  9.164362e+00    3.263431e+00
  9.180238e+00    3.289595e+00
  9.196114e+00    3.295264e+00
  9.211989e+00    3.292804e+00
  9.227865e+00    3.270339e+00
  9.243740e+00    3.274300e+00
  9.259616e+00    3.265625e+00
  9.275491e+00    3.307252e+00
  9.291367e+00    3.313990e+00
  9.307243e+00    3.299975e+00
  9.323118e+00    3.276257e+00
  9.338994e+00    3.263678e+00
  9.354869e+00    3.313926e+00
  9.370745e+00    3.263820e+00
  9.386620e+00    3.234400e+00
  9.402496e+00    3.232233e+00
  9.418372e+00    3.239955e+00
  9.434247e+00    3.287236e+00
  9.450123e+00    3.239055e+00
  9.465998e+00    3.215582e+00
  9.481874e+00    3.203043e+00
  9.497749e+00    3.184779e+00
  9.513625e+00    3.258035e+00
  9.529501e+00    3.271049e+00
  9.545376e+00    3.282920e+00
  9.561252e+00    3.314594e+00
  9.577127e+00    3.270494e+00
  9.593003e+00    3.209985e+00
  9.608878e+00    3.193587e+00
  9.624754e+00    3.222200e+00
  9.640630e+00    3.181530e+00
  9.656505e+00    3.189785e+00
  9.672381e+00    3.145147e+00
  9.688256e+00    3.170781e+00
  9.704132e+00    3.208722e+00
  9.720008e+00    3.242384e+00
  9.735883e+00    3.139111e+00
  9.751759e+00    3.120712e+00
  9.767634e+00    3.156395e+00
  9.783510e+00    3.105089e+00
  9.799385e+00    3.194505e+00
  9.815261e+00    3.212592e+00
  9.831137e+00    3.161610e+00
  9.847012e+00    3.171631e+00
  9.862888e+00    3.181504e+00
  9.878763e+00    3.162346e+00
  9.894639e+00    3.167711e+00
  9.910514e+00    3.202166e+00
  9.926390e+00    3.181138e+00
  9.942266e+00    3.182065e+00
  9.958141e+00    3.191456e+00
  9.974017e+00    3.148250e+00
  9.989892e+00    3.159363e+00
  1.000577e+01    3.233803e+00
  1.002164e+01    3.150862e+00
  1.003752e+01    3.155216e+00
  1.005339e+01    3.156749e+00
  1.006927e+01    3.134320e+00
  1.008515e+01    3.093528e+00
  1.010102e+01    3.093936e+00
  1.011690e+01    3.068428e+00
  1.013277e+01    3.042722e+00
  1.014865e+01    3.077220e+00
  1.016452e+01    3.090068e+00
  1.018040e+01    3.052169e+00
  1.019627e+01    3.078070e+00
  1.021215e+01    3.076431e+00
  1.022803e+01    3.107064e+00
  1.024390e+01    3.084452e+00
  1.025978e+01    3.111472e+00
  1.027565e+01    3.091779e+00
  1.029153e+01    3.019484e+00
  1.030740e+01    3.021640e+00
  1.032328e+01    3.054767e+00
  1.033915e+01    3.112452e+00
  1.035503e+01    2.979331e+00
  1.037091e+01    3.017142e+00
  1.038678e+01    3.080695e+00
  1.040266e+01    3.113885e+00
  1.041853e+01    3.038670e+00
  1.043441e+01    3.000153e+00
  1.045028e+01    3.049999e+00
  1.046616e+01    3.074522e+00
  1.048204e+01    3.076262e+00
  1.049791e+01    3.066509e+00
  1.051379e+01    3.045845e+00
  1.052966e+01    3.073441e+00
  1.054554e+01    3.061745e+00
  1.056141e+01    3.032911e+00
  1.057729e+01    3.067938e+00
  1.059316e+01    3.033967e+00
  1.060904e+01    3.007951e+00
  1.062492e+01    2.955350e+00
  1.064079e+01    2.960517e+00
  1.065667e+01    2.968976e+00
  1.067254e+01    2.999958e+00
  1.068842e+01    3.023416e+00
  1.070429e+01    3.006659e+00
  1.072017e+01    2.966736e+00
  1.073604e+01    2.954375e+00
  1.075192e+01    2.907319e+00
  1.076780e+01    2.923706e+00
  1.078367e+01    2.962036e+00
  1.079955e+01    2.934342e+00
  1.081542e+01    2.956156e+00
  1.083130e+01    2.954096e+00
  1.084717e+01    2.967108e+00
  1.086305e+01    3.001703e+00
  1.087892e+01    2.965360e+00
  1.089480e+01    2.924872e+00
  1.091068e+01    2.928468e+00
  1.092655e+01    2.899050e+00
  1.094243e+01    2.927055e+00
  1.095830e+01    2.970938e+00
  1.097418e+01    2.954142e+00
  1.099005e+01    2.916757e+00
  1.100593e+01    2.893124e+00
  1.102180e+01    2.859971e+00
  1.103768e+01    2.864591e+00
  1.105356e+01    2.896480e+00
  1.106943e+01    2.895891e+00
  1.108531e+01    2.866365e+00
  1.110118e+01    2.885111e+00
  1.111706e+01    2.856425e+00
  1.113293e+01    2.867090e+00
  1.114881e+01    2.889574e+00
  1.116468e+01    2.900149e+00
  1.118056e+01    2.867779e+00
  1.119644e+01    2.867916e+00
  1.121231e+01    2.860386e+00
  1.122819e+01    2.884593e+00
  1.124406e+01    2.902776e+00
  1.125994e+01    2.870075e+00
  1.127581e+01    2.866128e+00
  1.129169e+01    2.847000e+00
  1.130756e+01    2.837359e+00
  1.132344e+01    2.882107e+00
  1.133932e+01    2.854452e+00
  1.135519e+01    2.830227e+00
  1.137107e+01    2.827924e+00
  1.138694e+01    2.826346e+00
  1.140282e+01    2.784163e+00
  1.141869e+01    2.784492e+00
  1.143457e+01    2.841141e+00
  1.145045e+01    2.802571e+00
  1.146632e+01    2.772333e+00
  1.148220e+01    2.835412e+00
  1.149807e+01    2.781104e+00
  1.151395e+01    2.775931e+00
  1.152982e+01    2.806911e+00
  1.154570e+01    2.769983e+00
  1.156157e+01    2.756799e+00
  1.157745e+01    2.815999e+00
  1.159333e+01    2.816222e+00
  1.160920e+01    2.815153e+00
  1.162508e+01    2.780117e+00
  1.164095e+01    2.754222e+00
  1.165683e+01    2.758823e+00
  1.167270e+01    2.753713e+00
  1.168858e+01    2.801067e+00
  1.170445e+01    2.803513e+00
  1.172033e+01    2.786486e+00
  1.173621e+01    2.753793e+00
  1.175208e+01    2.798829e+00
  1.176796e+01    2.788229e+00
  1.178383e+01    2.780952e+00
  1.179971e+01    2.817428e+00
  1.181558e+01    2.786735e+00
  1.183146e+01    2.726791e+00
  1.184733e+01    2.724316e+00
  1.186321e+01    2.792147e+00
  1.187909e+01    2.762810e+00
  1.189496e+01    2.724795e+00
  1.191084e+01    2.721943e+00
  1.192671e+01    2.722180e+00
  1.194259e+01    2.664146e+00
  1.195846e+01    2.679986e+00
  1.197434e+01    2.724345e+00
  1.199021e+01    2.753016e+00
  1.200609e+01    2.751807e+00
  1.202197e+01    2.705215e+00
  1.203784e+01    2.700892e+00
  1.205372e+01    2.727019e+00
  1.206959e+01    2.704723e+00
  1.208547e+01    2.672760e+00
  1.210134e+01    2.712183e+00
  1.211722e+01    2.714973e+00
  1.213309e+01    2.719154e+00
  1.214897e+01    2.724408e+00
  1.216485e+01    2.709939e+00
  1.218072e+01    2.699686e+00
  1.219660e+01    2.677736e+00
  1.221247e+01    2.683632e+00
  1.222835e+01    2.700119e+00
  1.224422e+01    2.693374e+00
  1.226010e+01    2.731680e+00
  1.227597e+01    2.671794e+00
  1.229185e+01    2.706576e+00
  1.230773e+01    2.697828e+00
  1.232360e+01    2.702094e+00
  1.233948e+01    2.709364e+00
  1.235535e+01    2.707902e+00
  1.237123e+01    2.716674e+00
  1.238710e+01    2.708853e+00
  1.240298e+01    2.752520e+00
  1.241886e+01    2.689926e+00
  1.243473e+01    2.687680e+00
  1.245061e+01    2.746040e+00
  1.246648e+01    2.715995e+00
  1.248236e+01    2.689540e+00
  1.249823e+01    2.742900e+00
  1.251411e+01    2.727284e+00
  1.252998e+01    2.716696e+00
  1.254586e+01    2.705011e+00
  1.256174e+01    2.722026e+00
  1.257761e+01    2.748461e+00
  1.259349e+01    2.737339e+00
  1.260936e+01    2.734150e+00
  1.262524e+01    2.738308e+00
  1.264111e+01    2.817847e+00
  1.265699e+01    2.832811e+00
  1.267286e+01    2.808427e+00
  1.268874e+01    2.804389e+00
  1.270462e+01    2.869436e+00
  1.272049e+01    2.824024e+00
  1.273637e+01    2.867659e+00
  1.275224e+01    2.925866e+00
  1.276812e+01    2.891483e+00
  1.278399e+01    2.935848e+00
  1.279987e+01    3.029477e+00
  1.281574e+01    3.054292e+00
  1.283162e+01    3.122277e+00
  1.284750e+01    3.215397e+00
  1.286337e+01    3.282643e+00
  1.287925e+01    3.420462e+00
  1.289512e+01    3.498937e+00
  1.291100e+01    3.624665e+00
  1.292687e+01    3.855260e+00
  1.294275e+01    4.096767e+00
  1.295862e+01    4.391062e+00
  1.297450e+01    4.751019e+00
  1.299038e+01    5.297041e+00
  1.300625e+01    5.914259e+00
  1.302213e+01    6.681559e+00
  1.303800e+01    7.691315e+00
  1.305388e+01    8.894672e+00
  1.306975e+01    1.015801e+01
  1.308563e+01    1.141809e+01
  1.310150e+01    1.257836e+01
  1.311738e+01    1.379721e+01
  1.313326e+01    1.468599e+01
  1.314913e+01    1.562237e+01
  1.316501e+01    1.620458e+01
  1.318088e+01    1.633325e+01
  1.319676e+01    1.573793e+01
  1.321263e+01    1.427572e+01
  1.322851e+01    1.245538e+01
  1.324438e+01    1.070937e+01
  1.326026e+01    9.096646e+00
  1.327614e+01    7.776628e+00
  1.329201e+01    6.759177e+00
  1.330789e+01    5.985082e+00
  1.332376e+01    5.389606e+00
  1.333964e+01    4.904597e+00
  1.335551e+01    4.554512e+00
  1.337139e+01    4.183125e+00
  1.338727e+01    3.884679e+00
  1.340314e+01    3.641042e+00
  1.341902e+01    3.520093e+00
  1.343489e+01    3.408243e+00
  1.345077e+01    3.268686e+00
  1.346664e+01    3.145216e+00
  1.348252e+01    3.062470e+00
  1.349839e+01    2.998333e+00
  1.351427e+01    2.930146e+00
  1.353015e+01    2.891777e+00
  1.354602e+01    2.862967e+00
  1.356190e+01    2.833437e+00
  1.357777e+01    2.776131e+00
  1.359365e+01    2.712228e+00
  1.360952e+01    2.745794e+00
  1.362540e+01    2.655755e+00
  1.364127e+01    2.581513e+00
  1.365715e+01    2.588231e+00
  1.367303e+01    2.591824e+00
  1.368890e+01    2.597110e+00
  1.370478e+01    2.587179e+00
  1.372065e+01    2.527344e+00
  1.373653e+01    2.502931e+00
  1.375240e+01    2.515605e+00
  1.376828e+01    2.480093e+00
  1.378415e+01    2.431309e+00
  1.380003e+01    2.451061e+00
  1.381591e+01    2.486633e+00
  1.383178e+01    2.484548e+00
  1.384766e+01    2.474040e+00
  1.386353e+01    2.496691e+00
  1.387941e+01    2.433582e+00
  1.389528e+01    2.415581e+00
  1.391116e+01    2.389488e+00
  1.392703e+01    2.424093e+00
  1.394291e+01    2.427893e+00
  1.395879e+01    2.404615e+00
  1.397466e+01    2.386749e+00
  1.399054e+01    2.390939e+00
  1.400641e+01    2.407341e+00
  1.402229e+01    2.373198e+00
  1.403816e+01    2.365673e+00
  1.405404e+01    2.369265e+00
  1.406991e+01    2.372487e+00
  1.408579e+01    2.397268e+00
  1.410167e+01    2.378430e+00
  1.411754e+01    2.319699e+00
  1.413342e+01    2.367431e+00
  1.414929e+01    2.387593e+00
  1.416517e+01    2.334909e+00
  1.418104e+01    2.345896e+00
  1.419692e+01    2.336182e+00
  1.421279e+01    2.336115e+00
  1.422867e+01    2.311957e+00
  1.424455e+01    2.296238e+00
  1.426042e+01    2.242413e+00
  1.427630e+01    2.236626e+00
  1.429217e+01    2.274747e+00
  1.430805e+01    2.270503e+00
  1.432392e+01    2.246995e+00
  1.433980e+01    2.260033e+00
  1.435568e+01    2.256137e+00
  1.437155e+01    2.270118e+00
  1.438743e+01    2.233434e+00
  1.440330e+01    2.227718e+00
  1.441918e+01    2.261232e+00
  1.443505e+01    2.284847e+00
  1.445093e+01    2.311071e+00
  1.446680e+01    2.246309e+00
  1.448268e+01    2.185032e+00
  1.449856e+01    2.189319e+00
  1.451443e+01    2.240253e+00
  1.453031e+01    2.258474e+00
  1.454618e+01    2.253592e+00
  1.456206e+01    2.226177e+00
  1.457793e+01    2.201231e+00
  1.459381e+01    2.180272e+00
  1.460968e+01    2.236495e+00
  1.462556e+01    2.252970e+00
  1.464144e+01    2.221241e+00
  1.465731e+01    2.232710e+00
  1.467319e+01    2.252431e+00
  1.468906e+01    2.211190e+00
  1.470494e+01    2.196710e+00
  1.472081e+01    2.176284e+00
  1.473669e+01    2.213331e+00
  1.475256e+01    2.188063e+00
  1.476844e+01    2.183311e+00
  1.478432e+01    2.211986e+00
  1.480019e+01    2.261629e+00
  1.481607e+01    2.261768e+00
  1.483194e+01    2.215486e+00
  1.484782e+01    2.201953e+00
  1.486369e+01    2.221524e+00
  1.487957e+01    2.240421e+00
  1.489544e+01    2.197435e+00
  1.491132e+01    2.212562e+00
  1.492720e+01    2.273876e+00
  1.494307e+01    2.264590e+00
  1.495895e+01    2.326614e+00
  1.497482e+01    2.413035e+00
  1.499070e+01    2.437460e+00
  1.500657e+01    2.428311e+00
  1.502245e+01    2.532986e+00
  1.503832e+01    2.629280e+00
  1.505420e+01    2.733132e+00
  1.507008e+01    2.863468e+00
  1.508595e+01    3.024762e+00
  1.510183e+01    3.189679e+00
  1.511770e+01    3.428775e+00
  1.513358e+01    3.763487e+00
  1.514945e+01    4.175414e+00
  1.516533e+01    4.493352e+00
  1.518120e+01    4.849744e+00
  1.519708e+01    5.161798e+00
  1.521296e+01    5.406916e+00
  1.522883e+01    5.618896e+00
  1.524471e+01    5.672186e+00
  1.526058e+01    5.778128e+00
  1.527646e+01    5.734438e+00
  1.529233e+01    5.477263e+00
  1.530821e+01    5.161530e+00
  1.532409e+01    4.627470e+00
  1.533996e+01    4.224622e+00
  1.535584e+01    3.789457e+00
  1.537171e+01    3.449135e+00
  1.538759e+01    3.165698e+00
  1.540346e+01    2.938848e+00
  1.541934e+01    2.800427e+00
  1.543521e+01    2.648259e+00
  1.545109e+01    2.525926e+00
  1.546697e+01    2.419270e+00
  1.548284e+01    2.382861e+00
  1.549872e+01    2.331486e+00
  1.551459e+01    2.259270e+00
  1.553047e+01    2.207498e+00
  1.554634e+01    2.156601e+00
  1.556222e+01    2.148810e+00
  1.557809e+01    2.112424e+00
  1.559397e+01    2.103657e+00
  1.560985e+01    2.117420e+00
  1.562572e+01    2.111184e+00
  1.564160e+01    2.065494e+00
  1.565747e+01    2.006818e+00
  1.567335e+01    2.053050e+00
  1.568922e+01    2.022552e+00
  1.570510e+01    2.013507e+00
  1.572097e+01    2.022190e+00
  1.573685e+01    2.018887e+00
  1.575273e+01    1.975636e+00
  1.576860e+01    1.935552e+00
  1.578448e+01    1.923321e+00
  1.580035e+01    1.925616e+00
  1.581623e+01    1.955142e+00
  1.583210e+01    1.957888e+00
  1.584798e+01    1.949043e+00
  1.586385e+01    1.951549e+00
  1.587973e+01    1.906671e+00
  1.589561e+01    1.893999e+00
  1.591148e+01    1.904891e+00
  1.592736e+01    1.904878e+00
  1.594323e+01    1.890836e+00
  1.595911e+01    1.912578e+00
  1.597498e+01    1.882446e+00
  1.599086e+01    1.906006e+00
  1.600673e+01    1.897992e+00
  1.602261e+01    1.876551e+00
  1.603849e+01    1.891518e+00
  1.605436e+01    1.894152e+00
  1.607024e+01    1.868706e+00
  1.608611e+01    1.860488e+00
  1.610199e+01    1.872154e+00
  1.611786e+01    1.865783e+00
  1.613374e+01    1.855731e+00
  1.614961e+01    1.849205e+00
  1.616549e+01    1.829566e+00
  1.618137e+01    1.831255e+00
  1.619724e+01    1.802011e+00
  1.621312e+01    1.809375e+00
  1.622899e+01    1.803194e+00
  1.624487e+01    1.841364e+00
  1.626074e+01    1.817621e+00
  1.627662e+01    1.821186e+00
  1.629250e+01    1.864662e+00
  1.630837e+01    1.833453e+00
  1.632425e+01    1.772850e+00
  1.634012e+01    1.755541e+00
  1.635600e+01    1.768422e+00
  1.637187e+01    1.794128e+00
  1.638775e+01    1.807360e+00
  1.640362e+01    1.779546e+00
  1.641950e+01    1.756945e+00
  1.643538e+01    1.755758e+00
  1.645125e+01    1.777967e+00
  1.646713e+01    1.790767e+00
  1.648300e+01    1.771788e+00
  1.649888e+01    1.782438e+00
  1.651475e+01    1.770531e+00
  1.653063e+01    1.735672e+00
  1.654650e+01    1.737005e+00
  1.656238e+01    1.734181e+00
  1.657826e+01    1.751796e+00
  1.659413e+01    1.732841e+00
  1.661001e+01    1.738523e+00
  1.662588e+01    1.738843e+00
  1.664176e+01    1.717652e+00
  1.665763e+01    1.753971e+00
  1.667351e+01    1.752669e+00
  1.668938e+01    1.739729e+00
  1.670526e+01    1.733537e+00
  1.672114e+01    1.724817e+00
  1.673701e+01    1.714502e+00
  1.675289e+01    1.719460e+00
  1.676876e+01    1.704504e+00
  1.678464e+01    1.710685e+00
  1.680051e+01    1.685249e+00
  1.681639e+01    1.679294e+00
  1.683226e+01    1.723647e+00
  1.684814e+01    1.737311e+00
  1.686402e+01    1.656878e+00
  1.687989e+01    1.677590e+00
  1.689577e+01    1.705932e+00
  1.691164e+01    1.669298e+00
  1.692752e+01    1.677881e+00
  1.694339e+01    1.662874e+00
  1.695927e+01    1.675522e+00
  1.697514e+01    1.660637e+00
  1.699102e+01    1.662988e+00
  1.700690e+01    1.663245e+00
  1.702277e+01    1.669118e+00
  1.703865e+01    1.661298e+00
  1.705452e+01    1.662206e+00
  1.707040e+01    1.658741e+00
  1.708627e+01    1.679093e+00
  1.710215e+01    1.641522e+00
  1.711802e+01    1.663143e+00
  1.713390e+01    1.668972e+00
  1.714978e+01    1.649822e+00
  1.716565e+01    1.684799e+00
  1.718153e+01    1.663978e+00
  1.719740e+01    1.654113e+00
  1.721328e+01    1.633802e+00
  1.722915e+01    1.624896e+00
  1.724503e+01    1.660950e+00
  1.726091e+01    1.630460e+00
  1.727678e+01    1.602398e+00
  1.729266e+01    1.601759e+00
  1.730853e+01    1.623111e+00
  1.732441e+01    1.628288e+00
  1.734028e+01    1.620328e+00
  1.735616e+01    1.626379e+00
  1.737203e+01    1.603218e+00
  1.738791e+01    1.595564e+00
  1.740379e+01    1.609523e+00
  1.741966e+01    1.620588e+00
  1.743554e+01    1.603512e+00
  1.745141e+01    1.598998e+00
  1.746729e+01    1.609465e+00
  1.748316e+01    1.586208e+00
  1.749904e+01    1.561651e+00
  1.751491e+01    1.606513e+00
  1.753079e+01    1.599569e+00
  1.754667e+01    1.586037e+00
  1.756254e+01    1.602238e+00
  1.757842e+01    1.575714e+00
  1.759429e+01    1.563029e+00
  1.761017e+01    1.527412e+00
  1.762604e+01    1.562420e+00
  1.764192e+01    1.599664e+00
  1.765779e+01    1.554696e+00
  1.767367e+01    1.573384e+00
  1.768955e+01    1.567552e+00
  1.770542e+01    1.555034e+00
  1.772130e+01    1.542829e+00
  1.773717e+01    1.539178e+00
  1.775305e+01    1.558757e+00
  1.776892e+01    1.542686e+00
  1.778480e+01    1.539106e+00
  1.780067e+01    1.572647e+00
  1.781655e+01    1.546589e+00
  1.783243e+01    1.515995e+00
  1.784830e+01    1.517252e+00
  1.786418e+01    1.558529e+00
  1.788005e+01    1.523288e+00
  1.789593e+01    1.524184e+00
  1.791180e+01    1.539056e+00
  1.792768e+01    1.500856e+00
  1.794355e+01    1.521482e+00
  1.795943e+01    1.557620e+00
  1.797531e+01    1.517073e+00
  1.799118e+01    1.505569e+00
  1.800706e+01    1.545511e+00
  1.802293e+01    1.513252e+00
  1.803881e+01    1.486232e+00
  1.805468e+01    1.505502e+00
  1.807056e+01    1.541041e+00
  1.808643e+01    1.506195e+00
  1.810231e+01    1.502467e+00
  1.811819e+01    1.505367e+00
  1.813406e+01    1.519260e+00
  1.814994e+01    1.522940e+00
  1.816581e+01    1.485241e+00
  1.818169e+01    1.510627e+00
  1.819756e+01    1.479517e+00
  1.821344e+01    1.467405e+00
  1.822932e+01    1.460179e+00
  1.824519e+01    1.471292e+00
  1.826107e+01    1.485170e+00
  1.827694e+01    1.476041e+00
  1.829282e+01    1.496953e+00
  1.830869e+01    1.483750e+00
  1.832457e+01    1.469885e+00
  1.834044e+01    1.451171e+00
  1.835632e+01    1.450809e+00
  1.837220e+01    1.473698e+00
  1.838807e+01    1.451079e+00
  1.840395e+01    1.456748e+00
  1.841982e+01    1.434980e+00
  1.843570e+01    1.409011e+00
  1.845157e+01    1.427144e+00
  1.846745e+01    1.461179e+00
  1.848332e+01    1.427583e+00
  1.849920e+01    1.441902e+00
  1.851508e+01    1.441817e+00
  1.853095e+01    1.478714e+00
  1.854683e+01    1.478875e+00
  1.856270e+01    1.443413e+00
  1.857858e+01    1.458897e+00
  1.859445e+01    1.442564e+00
  1.861033e+01    1.441344e+00
  1.862620e+01    1.426715e+00
  1.864208e+01    1.451222e+00
  1.865796e+01    1.447611e+00
  1.867383e+01    1.429446e+00
  1.868971e+01    1.450634e+00
  1.870558e+01    1.442543e+00
  1.872146e+01    1.450677e+00
  1.873733e+01    1.434051e+00
  1.875321e+01    1.431520e+00
  1.876908e+01    1.437700e+00
  1.878496e+01    1.410513e+00
  1.880084e+01    1.416117e+00
  1.881671e+01    1.383385e+00
  1.883259e+01    1.388375e+00
  1.884846e+01    1.406893e+00
  1.886434e+01    1.407738e+00
  1.888021e+01    1.423020e+00
  1.889609e+01    1.418603e+00
  1.891196e+01    1.398464e+00
  1.892784e+01    1.390113e+00
  1.894372e+01    1.380321e+00
  1.895959e+01    1.358077e+00
  1.897547e+01    1.404509e+00
  1.899134e+01    1.403855e+00
  1.900722e+01    1.379670e+00
  1.902309e+01    1.363731e+00
  1.903897e+01    1.392011e+00
  1.905484e+01    1.409915e+00
  1.907072e+01    1.388683e+00
  1.908660e+01    1.373506e+00
  1.910247e+01    1.380614e+00
  1.911835e+01    1.385639e+00
  1.913422e+01    1.398556e+00
  1.915010e+01    1.361319e+00
  1.916597e+01    1.376586e+00
  1.918185e+01    1.387374e+00
  1.919773e+01    1.383762e+00
  1.921360e+01    1.375371e+00
  1.922948e+01    1.353945e+00
  1.924535e+01    1.356003e+00
  1.926123e+01    1.361390e+00
  1.927710e+01    1.389389e+00
  1.929298e+01    1.379076e+00
  1.930885e+01    1.365180e+00
  1.932473e+01    1.364741e+00
  1.934061e+01    1.361553e+00
  1.935648e+01    1.338405e+00
  1.937236e+01    1.328689e+00
  1.938823e+01    1.359496e+00
  1.940411e+01    1.336212e+00
  1.941998e+01    1.323418e+00
  1.943586e+01    1.323670e+00
  1.945173e+01    1.321947e+00
  1.946761e+01    1.346987e+00
  1.948349e+01    1.353977e+00
  1.949936e+01    1.340848e+00
  1.951524e+01    1.359674e+00
  1.953111e+01    1.353189e+00
  1.954699e+01    1.301804e+00
  1.956286e+01    1.311906e+00
  1.957874e+01    1.327122e+00
  1.959461e+01    1.327481e+00
  1.961049e+01    1.295010e+00
  1.962637e+01    1.310153e+00
  1.964224e+01    1.342221e+00
  1.965812e+01    1.337927e+00
  1.967399e+01    1.325296e+00
  1.968987e+01    1.299239e+00
  1.970574e+01    1.281192e+00
  1.972162e+01    1.312887e+00
  1.973749e+01    1.339916e+00
  1.975337e+01    1.329775e+00
  1.976925e+01    1.304416e+00
  1.978512e+01    1.308074e+00
  1.980100e+01    1.285621e+00
  1.981687e+01    1.291832e+00
  1.983275e+01    1.315749e+00
  1.984862e+01    1.308739e+00
  1.986450e+01    1.305748e+00
  1.988037e+01    1.304990e+00
  1.989625e+01    1.301107e+00
  1.991213e+01    1.305581e+00
  1.992800e+01    1.277780e+00
  1.994388e+01    1.273370e+00
  1.995975e+01    1.299779e+00
  1.997563e+01    1.302659e+00
  1.999150e+01    1.267536e+00
  2.000738e+01    1.280134e+00
  2.002325e+01    1.258210e+00
  2.003913e+01    1.271007e+00
  2.005501e+01    1.301699e+00
  2.007088e+01    1.298088e+00
  2.008676e+01    1.290223e+00
  2.010263e+01    1.294610e+00
  2.011851e+01    1.263548e+00
  2.013438e+01    1.267989e+00
  2.015026e+01    1.259112e+00
  2.016614e+01    1.280544e+00
  2.018201e+01    1.276283e+00
  2.019789e+01    1.256962e+00
  2.021376e+01    1.265103e+00
  2.022964e+01    1.276486e+00
  2.024551e+01    1.289953e+00
  2.026139e+01    1.265498e+00
  2.027726e+01    1.272938e+00
  2.029314e+01    1.243884e+00
  2.030902e+01    1.273012e+00
  2.032489e+01    1.275160e+00
  2.034077e+01    1.252617e+00
  2.035664e+01    1.268413e+00
  2.037252e+01    1.268791e+00
  2.038839e+01    1.252468e+00
  2.040427e+01    1.266104e+00
  2.042014e+01    1.270629e+00
  2.043602e+01    1.253536e+00
  2.045190e+01    1.229683e+00
  2.046777e+01    1.239078e+00
  2.048365e+01    1.229547e+00
  2.049952e+01    1.238912e+00
  2.051540e+01    1.265969e+00
  2.053127e+01    1.267384e+00
  2.054715e+01    1.243491e+00
  2.056302e+01    1.226252e+00
  2.057890e+01    1.237067e+00
  2.059478e+01    1.241012e+00
  2.061065e+01    1.247090e+00
  2.062653e+01    1.258396e+00
  2.064240e+01    1.259563e+00
  2.065828e+01    1.233816e+00
  2.067415e+01    1.256439e+00
  2.069003e+01    1.243190e+00
  2.070590e+01    1.237562e+00
  2.072178e+01    1.238924e+00
  2.073766e+01    1.242489e+00
  2.075353e+01    1.217243e+00
  2.076941e+01    1.225347e+00
  2.078528e+01    1.219187e+00
  2.080116e+01    1.221044e+00
  2.081703e+01    1.237168e+00
  2.083291e+01    1.247758e+00
  2.084878e+01    1.259679e+00
  2.086466e+01    1.241171e+00
  2.088054e+01    1.212847e+00
  2.089641e+01    1.250453e+00
  2.091229e+01    1.238569e+00
  2.092816e+01    1.208592e+00
  2.094404e+01    1.236030e+00
  2.095991e+01    1.238872e+00
  2.097579e+01    1.243135e+00
  2.099166e+01    1.243077e+00
  2.100754e+01    1.213669e+00
  2.102342e+01    1.231969e+00
  2.103929e+01    1.246594e+00
  2.105517e+01    1.224206e+00
  2.107104e+01    1.216440e+00
  2.108692e+01    1.203645e+00
  2.110279e+01    1.231151e+00
  2.111867e+01    1.230002e+00
  2.113455e+01    1.225632e+00
  2.115042e+01    1.232628e+00
  2.116630e+01    1.239863e+00
  2.118217e+01    1.226381e+00
  2.119805e+01    1.249841e+00
  2.121392e+01    1.258305e+00
  2.122980e+01    1.236443e+00
  2.124567e+01    1.205726e+00
  2.126155e+01    1.239272e+00
  2.127743e+01    1.266857e+00
  2.129330e+01    1.240339e+00
  2.130918e+01    1.245529e+00
  2.132505e+01    1.272872e+00
  2.134093e+01    1.297197e+00
  2.135680e+01    1.269661e+00
  2.137268e+01    1.273262e+00
  2.138855e+01    1.305853e+00
  2.140443e+01    1.310810e+00
  2.142031e+01    1.355476e+00
  2.143618e+01    1.336130e+00
  2.145206e+01    1.341085e+00
  2.146793e+01    1.377837e+00
  2.148381e+01    1.413757e+00
  2.149968e+01    1.419712e+00
  2.151556e+01    1.439361e+00
  2.153143e+01    1.483667e+00
  2.154731e+01    1.515839e+00
  2.156319e+01    1.569222e+00
  2.157906e+01    1.628790e+00
  2.159494e+01    1.678611e+00
  2.161081e+01    1.752988e+00
  2.162669e+01    1.870848e+00
  2.164256e+01    1.980686e+00
  2.165844e+01    2.130111e+00
  2.167431e+01    2.311790e+00
  2.169019e+01    2.500598e+00
  2.170607e+01    2.736825e+00
  2.172194e+01    3.109009e+00
  2.173782e+01    3.527582e+00
  2.175369e+01    3.977405e+00
  2.176957e+01    4.564569e+00
  2.178544e+01    5.235634e+00
  2.180132e+01    5.881314e+00
  2.181719e+01    6.495831e+00
  2.183307e+01    7.113695e+00
  2.184895e+01    7.739722e+00
  2.186482e+01    8.372972e+00
  2.188070e+01    8.775082e+00
  2.189657e+01    8.850766e+00
  2.191245e+01    8.679494e+00
  2.192832e+01    8.254851e+00
  2.194420e+01    7.523879e+00
  2.196007e+01    6.622330e+00
  2.197595e+01    5.697447e+00
  2.199183e+01    4.854466e+00
  2.200770e+01    4.165143e+00
  2.202358e+01    3.665987e+00
  2.203945e+01    3.169418e+00
  2.205533e+01    2.846708e+00
  2.207120e+01    2.571641e+00
  2.208708e+01    2.314668e+00
  2.210296e+01    2.152348e+00
  2.211883e+01    2.004168e+00
  2.213471e+01    1.868997e+00
  2.215058e+01    1.783934e+00
  2.216646e+01    1.680609e+00
  2.218233e+01    1.621381e+00
  2.219821e+01    1.566210e+00
  2.221408e+01    1.504393e+00
  2.222996e+01    1.434525e+00
  2.224584e+01    1.403091e+00
  2.226171e+01    1.376506e+00
  2.227759e+01    1.357786e+00
  2.229346e+01    1.319932e+00
  2.230934e+01    1.304635e+00
  2.232521e+01    1.289066e+00
  2.234109e+01    1.245592e+00
  2.235696e+01    1.244431e+00
  2.237284e+01    1.238168e+00
  2.238872e+01    1.215318e+00
  2.240459e+01    1.211675e+00
  2.242047e+01    1.186929e+00
  2.243634e+01    1.179877e+00
  2.245222e+01    1.174032e+00
  2.246809e+01    1.166118e+00
  2.248397e+01    1.174751e+00
  2.249984e+01    1.169362e+00
  2.251572e+01    1.157029e+00
  2.253160e+01    1.124937e+00
  2.254747e+01    1.106375e+00
  2.256335e+01    1.108805e+00
  2.257922e+01    1.125186e+00
  2.259510e+01    1.109220e+00
  2.261097e+01    1.119367e+00
  2.262685e+01    1.111812e+00
  2.264272e+01    1.080698e+00
  2.265860e+01    1.076038e+00
  2.267448e+01    1.083984e+00
  2.269035e+01    1.100333e+00
  2.270623e+01    1.088137e+00
  2.272210e+01    1.082431e+00
  2.273798e+01    1.074192e+00
  2.275385e+01    1.082048e+00
  2.276973e+01    1.048704e+00
  2.278560e+01    1.053888e+00
  2.280148e+01    1.057964e+00
  2.281736e+01    1.048444e+00
  2.283323e+01    1.060644e+00
  2.284911e+01    1.038657e+00
  2.286498e+01    1.050290e+00
  2.288086e+01    1.044646e+00
  2.289673e+01    1.056307e+00
  2.291261e+01    1.041961e+00
  2.292848e+01    1.023708e+00
  2.294436e+01    1.035931e+00
  2.296024e+01    1.049448e+00
  2.297611e+01    1.033862e+00
  2.299199e+01    1.035057e+00
  2.300786e+01    1.029377e+00
  2.302374e+01    1.023846e+00
  2.303961e+01    1.016209e+00
  2.305549e+01    9.889657e-01
  2.307137e+01    9.858437e-01
  2.308724e+01    9.970909e-01
  2.310312e+01    1.011243e+00
  2.311899e+01    1.013226e+00
  2.313487e+01    1.027170e+00
  2.315074e+01    9.940253e-01
  2.316662e+01    1.017729e+00
  2.318249e+01    1.023170e+00
  2.319837e+01    1.011312e+00
  2.321425e+01    9.873439e-01
  2.323012e+01    1.016200e+00
  2.324600e+01    9.902418e-01
  2.326187e+01    9.909895e-01
  2.327775e+01    1.005055e+00
  2.329362e+01    9.813952e-01
  2.330950e+01    9.730461e-01
  2.332537e+01    9.808984e-01
  2.334125e+01    9.745085e-01
  2.335713e+01    9.649208e-01
  2.337300e+01    9.539662e-01
  2.338888e+01    9.521040e-01
  2.340475e+01    9.772310e-01
  2.342063e+01    9.818295e-01
  2.343650e+01    9.854761e-01
  2.345238e+01    9.699057e-01
  2.346825e+01    9.836863e-01
  2.348413e+01    9.797471e-01
  2.350001e+01    9.722042e-01
  2.351588e+01    9.766532e-01
  2.353176e+01    9.699501e-01
  2.354763e+01    9.583873e-01
  2.356351e+01    9.636706e-01
  2.357938e+01    9.639259e-01
  2.359526e+01    9.763876e-01
  2.361113e+01    9.800061e-01
  2.362701e+01    9.625545e-01
  2.364289e+01    9.728912e-01
  2.365876e+01    9.675707e-01
  2.367464e+01    9.613002e-01
  2.369051e+01    9.427243e-01
  2.370639e+01    9.380527e-01
  2.372226e+01    9.311913e-01
  2.373814e+01    9.430858e-01
  2.375401e+01    9.408728e-01
  2.376989e+01    8.974153e-01
  2.378577e+01    8.945796e-01
  2.380164e+01    9.260819e-01
  2.381752e+01    9.234126e-01
  2.383339e+01    9.374533e-01
  2.384927e+01    9.383875e-01
  2.386514e+01    9.154504e-01
  2.388102e+01    8.796971e-01
  2.389689e+01    9.036466e-01
  2.391277e+01    9.204970e-01
  2.392865e+01    8.980954e-01
  2.394452e+01    9.263263e-01
  2.396040e+01    9.115125e-01
  2.397627e+01    9.099494e-01
  2.399215e+01    9.163857e-01
  2.400802e+01    9.114839e-01
  2.402390e+01    9.037207e-01
  2.403978e+01    9.050596e-01
  2.405565e+01    8.973484e-01
  2.407153e+01    9.073342e-01
  2.408740e+01    9.189820e-01
  2.410328e+01    9.015212e-01
  2.411915e+01    8.889904e-01
  2.413503e+01    8.988853e-01
  2.415090e+01    9.075063e-01
  2.416678e+01    8.734041e-01
  2.418266e+01    8.764343e-01
  2.419853e+01    8.944353e-01
  2.421441e+01    9.067779e-01
  2.423028e+01    8.799613e-01
  2.424616e+01    8.823057e-01
  2.426203e+01    8.957738e-01
  2.427791e+01    8.975799e-01
  2.429378e+01    8.946391e-01
  2.430966e+01    8.757048e-01
  2.432554e+01    8.780298e-01
  2.434141e+01    8.734133e-01
  2.435729e+01    8.929783e-01
  2.437316e+01    8.979485e-01
  2.438904e+01    8.994585e-01
  2.440491e+01    8.994361e-01
  2.442079e+01    9.035602e-01
  2.443666e+01    8.865343e-01
  2.445254e+01    8.904402e-01
  2.446842e+01    8.892906e-01
  2.448429e+01    8.977499e-01
  2.450017e+01    8.932415e-01
  2.451604e+01    8.990719e-01
  2.453192e+01    8.850478e-01
  2.454779e+01    9.124576e-01
  2.456367e+01    8.993220e-01
  2.457954e+01    8.862343e-01
  2.459542e+01    8.792996e-01
  2.461130e+01    8.894237e-01
  2.462717e+01    9.017733e-01
  2.464305e+01    8.839193e-01
  2.465892e+01    8.984265e-01
  2.467480e+01    8.904606e-01
  2.469067e+01    8.843403e-01
  2.470655e+01    8.943431e-01
  2.472242e+01    8.837143e-01
  2.473830e+01    8.828089e-01
  2.475418e+01    9.026835e-01
  2.477005e+01    8.975519e-01
  2.478593e+01    8.836161e-01
  2.480180e+01    8.743268e-01
  2.481768e+01    8.849440e-01
  2.483355e+01    8.890493e-01
  2.484943e+01    8.998108e-01
  2.486530e+01    9.065513e-01
  2.488118e+01    8.991410e-01
  2.489706e+01    8.955214e-01
  2.491293e+01    8.951517e-01
  2.492881e+01    8.876991e-01
  2.494468e+01    8.908002e-01
  2.496056e+01    8.991924e-01
  2.497643e+01    9.061913e-01
  2.499231e+01    8.907887e-01
  2.500819e+01    8.906108e-01
  2.502406e+01    9.018179e-01
  2.503994e+01    8.884610e-01
  2.505581e+01    8.970299e-01
  2.507169e+01    8.867157e-01
  2.508756e+01    8.921720e-01
  2.510344e+01    9.155953e-01
  2.511931e+01    9.117581e-01
  2.513519e+01    9.189517e-01
  2.515107e+01    9.096162e-01
  2.516694e+01    9.217157e-01
  2.518282e+01    9.254171e-01
  2.519869e+01    9.053043e-01
  2.521457e+01    9.338810e-01
  2.523044e+01    9.501145e-01
  2.524632e+01    9.424402e-01
  2.526219e+01    9.117041e-01
  2.527807e+01    9.400669e-01
  2.529395e+01    9.683679e-01
  2.530982e+01    9.740095e-01
  2.532570e+01    9.699554e-01
  2.534157e+01    9.599603e-01
  2.535745e+01    9.729577e-01
  2.537332e+01    9.839541e-01
  2.538920e+01    9.938141e-01
  2.540507e+01    9.932339e-01
  2.542095e+01    9.951317e-01
  2.543683e+01    1.007451e+00
  2.545270e+01    1.015967e+00
  2.546858e+01    1.031990e+00
  2.548445e+01    1.024385e+00
  2.550033e+01    1.063788e+00
  2.551620e+01    1.100770e+00
  2.553208e+01    1.089295e+00
  2.554795e+01    1.098202e+00
  2.556383e+01    1.116101e+00
  2.557971e+01    1.146209e+00
  2.559558e+01    1.184446e+00
  2.561146e+01    1.217003e+00
  2.562733e+01    1.271851e+00
  2.564321e+01    1.309550e+00
  2.565908e+01    1.337460e+00
  2.567496e+01    1.428363e+00
  2.569083e+01    1.512371e+00
  2.570671e+01    1.600862e+00
  2.572259e+01    1.716177e+00
  2.573846e+01    1.853731e+00
  2.575434e+01    2.022558e+00
  2.577021e+01    2.234479e+00
  2.578609e+01    2.451738e+00
  2.580196e+01    2.775430e+00
  2.581784e+01    3.184611e+00
  2.583371e+01    3.612383e+00
  2.584959e+01    4.115747e+00
  2.586547e+01    4.639071e+00
  2.588134e+01    5.249695e+00
  2.589722e+01    5.858471e+00
  2.591309e+01    6.342752e+00
  2.592897e+01    6.760643e+00
  2.594484e+01    6.994424e+00
  2.596072e+01    7.126925e+00
  2.597660e+01    6.915824e+00
  2.599247e+01    6.528759e+00
  2.600835e+01    5.961778e+00
  2.602422e+01    5.286100e+00
  2.604010e+01    4.606353e+00
  2.605597e+01    3.996693e+00
  2.607185e+01    3.451094e+00
  2.608772e+01    3.008622e+00
  2.610360e+01    2.693392e+00
  2.611948e+01    2.408102e+00
  2.613535e+01    2.150941e+00
  2.615123e+01    1.951434e+00
  2.616710e+01    1.782676e+00
  2.618298e+01    1.668490e+00
  2.619885e+01    1.603126e+00
  2.621473e+01    1.503497e+00
  2.623060e+01    1.433546e+00
  2.624648e+01    1.342547e+00
  2.626236e+01    1.285946e+00
  2.627823e+01    1.257438e+00
  2.629411e+01    1.221058e+00
  2.630998e+01    1.187533e+00
  2.632586e+01    1.168410e+00
  2.634173e+01    1.121655e+00
  2.635761e+01    1.124499e+00
  2.637348e+01    1.088602e+00
  2.638936e+01    1.071587e+00
  2.640524e+01    1.057617e+00
  2.642111e+01    1.061753e+00
  2.643699e+01    1.030177e+00
  2.645286e+01    1.006657e+00
  2.646874e+01    1.016941e+00
  2.648461e+01    1.004551e+00
  2.650049e+01    1.003454e+00
  2.651636e+01    1.010928e+00
  2.653224e+01    1.017841e+00
  2.654812e+01    1.002577e+00
  2.656399e+01    9.783877e-01
  2.657987e+01    9.838354e-01
  2.659574e+01    9.982870e-01
  2.661162e+01    9.635177e-01
  2.662749e+01    9.743473e-01
  2.664337e+01    9.820061e-01
  2.665924e+01    9.913106e-01
  2.667512e+01    9.877518e-01
  2.669100e+01    9.764737e-01
  2.670687e+01    9.651372e-01
  2.672275e+01    9.503244e-01
  2.673862e+01    9.409760e-01
  2.675450e+01    9.688451e-01
  2.677037e+01    9.622236e-01
  2.678625e+01    9.669894e-01
  2.680212e+01    9.628854e-01
  2.681800e+01    9.702843e-01
  2.683388e+01    9.845262e-01
  2.684975e+01    1.000011e+00
  2.686563e+01    9.988685e-01
  2.688150e+01    9.999713e-01
  2.689738e+01    1.008815e+00
  2.691325e+01    1.019694e+00
  2.692913e+01    1.013789e+00
  2.694501e+01    1.016612e+00
  2.696088e+01    1.046565e+00
  2.697676e+01    1.051088e+00
  2.699263e+01    1.089596e+00
  2.700851e+01    1.121294e+00
  2.702438e+01    1.170602e+00
  2.704026e+01    1.210676e+00
  2.705613e+01    1.243154e+00
  2.707201e+01    1.310180e+00
  2.708789e+01    1.394313e+00
  2.710376e+01    1.466141e+00
  2.711964e+01    1.612066e+00
  2.713551e+01    1.712312e+00
  2.715139e+01    1.878452e+00
  2.716726e+01    1.999151e+00
  2.718314e+01    2.068793e+00
  2.719901e+01    2.174989e+00
  2.721489e+01    2.205028e+00
  2.723077e+01    2.165556e+00
  2.724664e+01    2.072234e+00
  2.726252e+01    1.985210e+00
  2.727839e+01    1.834197e+00
  2.729427e+01    1.711825e+00
  2.731014e+01    1.556526e+00
  2.732602e+01    1.431777e+00
  2.734189e+01    1.352184e+00
  2.735777e+01    1.294880e+00
  2.737365e+01    1.226373e+00
  2.738952e+01    1.172364e+00
  2.740540e+01    1.130008e+00
  2.742127e+01    1.130963e+00
  2.743715e+01    1.074512e+00
  2.745302e+01    1.028712e+00
  2.746890e+01    1.019876e+00
  2.748477e+01    1.019500e+00
  2.750065e+01    9.604977e-01
  2.751653e+01    9.722012e-01
  2.753240e+01    9.678182e-01
  2.754828e+01    9.644595e-01
  2.756415e+01    9.514185e-01
  2.758003e+01    9.408863e-01
  2.759590e+01    9.274671e-01
  2.761178e+01    9.179583e-01
  2.762765e+01    9.270427e-01
  2.764353e+01    9.298389e-01
  2.765941e+01    9.212947e-01
  2.767528e+01    9.075575e-01
  2.769116e+01    8.754320e-01
  2.770703e+01    8.890344e-01
  2.772291e+01    9.098991e-01
  2.773878e+01    9.208738e-01
  2.775466e+01    9.104067e-01
  2.777054e+01    8.697917e-01
  2.778641e+01    8.762415e-01
  2.780229e+01    9.013739e-01
  2.781816e+01    9.013629e-01
  2.783404e+01    8.542672e-01
  2.784991e+01    8.791961e-01
  2.786579e+01    8.655218e-01
  2.788166e+01    8.944969e-01
  2.789754e+01    8.951291e-01
  2.791342e+01    8.771204e-01
  2.792929e+01    8.928151e-01
  2.794517e+01    8.812752e-01
  2.796104e+01    8.674829e-01
  2.797692e+01    8.499213e-01
  2.799279e+01    8.372112e-01
  2.800867e+01    8.684193e-01
  2.802454e+01    8.613326e-01
  2.804042e+01    8.482559e-01
  2.805630e+01    8.761179e-01
  2.807217e+01    8.609937e-01
  2.808805e+01    8.481523e-01
  2.810392e+01    8.596742e-01
  2.811980e+01    8.653196e-01
  2.813567e+01    8.543764e-01
  2.815155e+01    8.756371e-01
  2.816742e+01    8.755944e-01
  2.818330e+01    8.481303e-01
  2.819918e+01    8.529697e-01
  2.821505e+01    8.414558e-01
  2.823093e+01    8.629305e-01
  2.824680e+01    8.513800e-01
  2.826268e+01    8.396150e-01
  2.827855e+01    8.543389e-01
  2.829443e+01    8.524166e-01
  2.831030e+01    8.563836e-01
  2.832618e+01    8.587996e-01
  2.834206e+01    8.499500e-01
  2.835793e+01    8.524542e-01
  2.837381e+01    8.490863e-01
  2.838968e+01    8.576341e-01
  2.840556e+01    8.294621e-01
  2.842143e+01    8.327780e-01
  2.843731e+01    8.422529e-01
  2.845318e+01    8.513153e-01
  2.846906e+01    8.392124e-01
  2.848494e+01    8.465915e-01
  2.850081e+01    8.146387e-01
  2.851669e+01    8.312563e-01
  2.853256e+01    8.537095e-01
  2.854844e+01    8.425105e-01
  2.856431e+01    8.635677e-01
  2.858019e+01    8.418680e-01
  2.859606e+01    8.628934e-01
  2.861194e+01    8.466868e-01
  2.862782e+01    8.422450e-01
  2.864369e+01    8.120342e-01
  2.865957e+01    8.173415e-01
  2.867544e+01    8.277541e-01
  2.869132e+01    8.507421e-01
  2.870719e+01    8.523665e-01
  2.872307e+01    8.413593e-01
  2.873895e+01    8.324518e-01
  2.875482e+01    8.255689e-01
  2.877070e+01    8.166431e-01
  2.878657e+01    8.026833e-01
  2.880245e+01    8.193309e-01
  2.881832e+01    8.367396e-01
  2.883420e+01    8.561591e-01
  2.885007e+01    8.185261e-01
  2.886595e+01    8.149503e-01
  2.888183e+01    7.980784e-01
  2.889770e+01    8.231497e-01
  2.891358e+01    8.244007e-01
  2.892945e+01    8.206401e-01
  2.894533e+01    8.347268e-01
  2.896120e+01    8.090437e-01
  2.897708e+01    8.078666e-01
  2.899295e+01    8.107906e-01
  2.900883e+01    8.199402e-01
  2.902471e+01    8.047295e-01
  2.904058e+01    8.279848e-01
  2.905646e+01    8.192086e-01
  2.907233e+01    8.104668e-01
  2.908821e+01    8.209547e-01
  2.910408e+01    8.193199e-01
  2.911996e+01    8.254002e-01
  2.913583e+01    8.176866e-01
  2.915171e+01    8.154835e-01
  2.916759e+01    8.112004e-01
  2.918346e+01    8.161735e-01
  2.919934e+01    8.116359e-01
  2.921521e+01    8.165876e-01
  2.923109e+01    8.145176e-01
  2.924696e+01    8.157546e-01
  2.926284e+01    8.275549e-01
  2.927871e+01    8.289380e-01
  2.929459e+01    8.060637e-01
  2.931047e+01    8.059478e-01
  2.932634e+01    8.102744e-01
  2.934222e+01    7.956475e-01
  2.935809e+01    7.975580e-01
  2.937397e+01    8.046910e-01
  2.938984e+01    8.210195e-01
  2.940572e+01    8.281312e-01
  2.942159e+01    8.090048e-01
  2.943747e+01    8.066811e-01
  2.945335e+01    7.918712e-01
  2.946922e+01    8.135439e-01
  2.948510e+01    8.078005e-01
  2.950097e+01    8.184263e-01
  2.951685e+01    8.181643e-01
  2.953272e+01    8.075318e-01
  2.954860e+01    8.133821e-01
  2.956447e+01    8.129741e-01
  2.958035e+01    8.030918e-01
  2.959623e+01    8.082154e-01
  2.961210e+01    8.197973e-01
  2.962798e+01    8.009366e-01
  2.964385e+01    8.117486e-01
  2.965973e+01    8.186858e-01
  2.967560e+01    8.208963e-01
  2.969148e+01    8.238190e-01
  2.970736e+01    8.039488e-01
  2.972323e+01    8.032877e-01
  2.973911e+01    8.143853e-01
  2.975498e+01    8.175471e-01
  2.977086e+01    7.894800e-01
  2.978673e+01    7.976834e-01
  2.980261e+01    8.158383e-01
  2.981848e+01    8.043485e-01
  2.983436e+01    8.054762e-01
  2.985024e+01    7.816302e-01
  2.986611e+01    7.714380e-01
  2.988199e+01    8.000886e-01
  2.989786e+01    8.093804e-01
  2.991374e+01    7.899643e-01
  2.992961e+01    7.800866e-01
  2.994549e+01    7.980325e-01
  2.996136e+01    8.127103e-01
  2.997724e+01    8.019723e-01
  2.999312e+01    7.970083e-01
  3.000899e+01    8.171949e-01
  3.002487e+01    8.028273e-01
  3.004074e+01    8.148634e-01
  3.005662e+01    8.227893e-01
  3.007249e+01    8.393396e-01
  3.008837e+01    8.214006e-01
  3.010424e+01    8.040962e-01
  3.012012e+01    8.114225e-01
  3.013600e+01    8.125137e-01
  3.015187e+01    7.989773e-01
  3.016775e+01    7.760341e-01
  3.018362e+01    7.958047e-01
  3.019950e+01    7.760306e-01
  3.021537e+01    7.745399e-01
  3.023125e+01    7.550206e-01
  3.024712e+01    7.761323e-01
  3.026300e+01    7.739883e-01
  3.027888e+01    7.850288e-01
  3.029475e+01    7.835132e-01
  3.031063e+01    7.734740e-01
  3.032650e+01    7.734276e-01
  3.034238e+01    7.759556e-01
  3.035825e+01    7.824202e-01
  3.037413e+01    7.755019e-01
  3.039000e+01    7.795589e-01
  3.040588e+01    7.826794e-01
  3.042176e+01    8.015562e-01
  3.043763e+01    7.981778e-01
  3.045351e+01    7.789954e-01
  3.046938e+01    7.918180e-01
  3.048526e+01    8.107727e-01
  3.050113e+01    8.068283e-01
  3.051701e+01    7.922857e-01
  3.053288e+01    7.937692e-01
  3.054876e+01    7.835676e-01
  3.056464e+01    7.775490e-01
  3.058051e+01    7.949343e-01
  3.059639e+01    7.919124e-01
  3.061226e+01    7.946215e-01
  3.062814e+01    7.963116e-01
  3.064401e+01    7.885400e-01
  3.065989e+01    8.019636e-01
  3.067577e+01    7.964985e-01
  3.069164e+01    7.924088e-01
  3.070752e+01    7.866498e-01
  3.072339e+01    7.652319e-01
  3.073927e+01    7.604245e-01
  3.075514e+01    7.713255e-01
  3.077102e+01    7.809540e-01
  3.078689e+01    7.842888e-01
  3.080277e+01    7.911626e-01
  3.081865e+01    7.931268e-01
  3.083452e+01    7.924833e-01
  3.085040e+01    7.856164e-01
  3.086627e+01    7.950923e-01
  3.088215e+01    7.839078e-01
  3.089802e+01    8.016813e-01
  3.091390e+01    7.929360e-01
  3.092977e+01    8.123658e-01
  3.094565e+01    7.980114e-01
  3.096153e+01    7.777904e-01
  3.097740e+01    7.807654e-01
  3.099328e+01    8.054544e-01
  3.100915e+01    7.976587e-01
  3.102503e+01    7.843882e-01
  3.104090e+01    7.864422e-01
  3.105678e+01    7.817134e-01
  3.107265e+01    7.886614e-01
  3.108853e+01    7.852021e-01
  3.110441e+01    8.010223e-01
  3.112028e+01    7.878404e-01
  3.113616e+01    7.797679e-01
  3.115203e+01    7.880285e-01
  3.116791e+01    7.885504e-01
  3.118378e+01    7.960824e-01
  3.119966e+01    7.921526e-01
  3.121553e+01    7.907503e-01
  3.123141e+01    7.882471e-01
  3.124729e+01    7.944319e-01
  3.126316e+01    8.188639e-01
  3.127904e+01    8.189238e-01
  3.129491e+01    8.030208e-01
  3.131079e+01    7.958248e-01
  3.132666e+01    7.898527e-01
  3.134254e+01    7.797237e-01
  3.135841e+01    7.747674e-01
  3.137429e+01    8.078611e-01
  3.139017e+01    8.121615e-01
  3.140604e+01    8.035333e-01
  3.142192e+01    8.040833e-01
  3.143779e+01    8.123896e-01
  3.145367e+01    8.060225e-01
  3.146954e+01    8.167632e-01
  3.148542e+01    8.290583e-01
  3.150129e+01    8.256629e-01
  3.151717e+01    8.104677e-01
  3.153305e+01    8.367537e-01
  3.154892e+01    8.527468e-01
  3.156480e+01    8.509033e-01
  3.158067e+01    8.626606e-01
  3.159655e+01    8.694322e-01
  3.161242e+01    8.572755e-01
  3.162830e+01    8.828375e-01
  3.164418e+01    9.221574e-01
  3.166005e+01    9.479543e-01
  3.167593e+01    9.554084e-01
  3.169180e+01    1.005166e+00
  3.170768e+01    1.034738e+00
  3.172355e+01    1.071386e+00
  3.173943e+01    1.129633e+00
  3.175530e+01    1.204887e+00
  3.177118e+01    1.292981e+00
  3.178706e+01    1.345427e+00
  3.180293e+01    1.477664e+00
  3.181881e+01    1.592189e+00
  3.183468e+01    1.708127e+00
  3.185056e+01    1.834007e+00
  3.186643e+01    1.966426e+00
  3.188231e+01    2.034172e+00
  3.189818e+01    2.097677e+00
  3.191406e+01    2.088859e+00
  3.192994e+01    2.049401e+00
  3.194581e+01    1.924420e+00
  3.196169e+01    1.803104e+00
  3.197756e+01    1.697304e+00
  3.199344e+01    1.552794e+00
  3.200931e+01    1.447563e+00
  3.202519e+01    1.327945e+00
  3.204106e+01    1.232706e+00
  3.205694e+01    1.153597e+00
  3.207282e+01    1.061804e+00
  3.208869e+01    1.019683e+00
  3.210457e+01    1.006389e+00
  3.212044e+01    9.913040e-01
  3.213632e+01    9.430088e-01
  3.215219e+01    9.209732e-01
  3.216807e+01    8.879464e-01
  3.218394e+01    8.942542e-01
  3.219982e+01    8.578118e-01
  3.221570e+01    8.593445e-01
  3.223157e+01    8.466837e-01
  3.224745e+01    8.181610e-01
  3.226332e+01    8.389353e-01
  3.227920e+01    8.236673e-01
  3.229507e+01    8.376791e-01
  3.231095e+01    8.259971e-01
  3.232682e+01    7.825944e-01
  3.234270e+01    7.890930e-01
  3.235858e+01    8.013951e-01
  3.237445e+01    7.981510e-01
  3.239033e+01    7.891395e-01
  3.240620e+01    7.633560e-01
  3.242208e+01    8.064892e-01
  3.243795e+01    7.889905e-01
  3.245383e+01    7.838765e-01
  3.246970e+01    7.748368e-01
  3.248558e+01    7.784146e-01
  3.250146e+01    7.930194e-01
  3.251733e+01    7.858142e-01
  3.253321e+01    7.866412e-01
  3.254908e+01    7.997437e-01
