# == pyFAI calibration ==
# Distance Sample to Detector: 0.3999999939076516 m
# PONI: 9.750e-02, 1.135e-01 m
# Rotations: -0.000175 0.000000 -0.000000 rad
# 
# == Fit2d calibration ==
# Distance Sample-beamCenter: 400.000 mm
# Center: x=1514.000, y=1300.000 pix
# Tilt: 0.010 deg  TiltPlanRot: 0.010 deg
# 
# Detector Detector	 Spline= None	 PixelSize= 7.500e-05, 7.500e-05 m
#    Detector has a mask: False 
#    Detector has a dark current: False 
#    detector has a flat field: False 
# 
# Wavelength: 6.888e-11 m
# Mask applied: user provided
# Dark current applied: False
# Flat field applied: False
# Polarization factor: 0.99
# Normalization factor: 1.0
# --> /home/myspot/data/2024_07_Rosario/Ru-CGO-ex/2024-07-27_003_Ru-CGO-ex_Reaction_dwell_000023_data_000037.dat
#       q_nm^-1             I 
  2.003187e-02    7.711996e-02
  3.590745e-02    2.074189e-01
  5.178302e-02    1.474495e-01
  6.765859e-02    6.239720e-02
  8.353417e-02    4.769114e-02
  9.940974e-02    7.737107e-02
  1.152853e-01    9.822825e-02
  1.311609e-01    7.543968e-02
  1.470365e-01    8.934253e-02
  1.629120e-01    1.984900e-02
  1.787876e-01    3.895181e-02
  1.946632e-01    5.692706e-02
  2.105388e-01    3.639286e-02
  2.264143e-01    4.167390e-02
  2.422899e-01    5.987814e-02
  2.581655e-01    5.338805e-02
  2.740411e-01    5.705062e-02
  2.899166e-01    3.443296e-02
  3.057922e-01    4.395632e-02
  3.216678e-01    6.517393e-02
  3.375433e-01    2.738708e-02
  3.534189e-01    3.553559e-02
  3.692945e-01    1.704197e-02
  3.851701e-01    6.064326e-02
  4.010456e-01    2.713692e-02
  4.169212e-01    2.994176e-02
  4.327968e-01    3.450081e-02
  4.486724e-01    3.813546e-02
  4.645479e-01    2.968537e-02
  4.804235e-01    5.743483e-02
  4.962991e-01    6.132953e-02
  5.121747e-01    5.395939e-02
  5.280502e-01    5.043869e-02
  5.439258e-01    4.888285e-02
  5.598014e-01    5.604869e-02
  5.756770e-01    4.873937e-02
  5.915525e-01    5.593935e-02
  6.074281e-01    4.532927e-02
  6.233037e-01    5.213029e-02
  6.391793e-01    4.243636e-02
  6.550548e-01    3.081741e-02
  6.709304e-01    1.889986e-02
  6.868060e-01    3.648822e-02
  7.026815e-01    4.478375e-02
  7.185571e-01    4.041702e-02
  7.344327e-01    4.543111e-02
  7.503083e-01    4.774715e-02
  7.661838e-01    5.426088e-02
  7.820594e-01    7.080711e-02
  7.979350e-01    1.345348e-01
  8.138106e-01    2.742862e-01
  8.296861e-01    3.160527e-01
  8.455617e-01    3.266632e-01
  8.614373e-01    4.269426e-01
  8.773129e-01    4.792772e-01
  8.931884e-01    4.984423e-01
  9.090640e-01    6.274307e-01
  9.249396e-01    7.636629e-01
  9.408152e-01    8.265411e-01
  9.566907e-01    9.252116e-01
  9.725663e-01    9.517095e-01
  9.884419e-01    9.736566e-01
  1.004317e+00    1.123037e+00
  1.020193e+00    1.366747e+00
  1.036069e+00    1.450793e+00
  1.051944e+00    1.522630e+00
  1.067820e+00    1.459015e+00
  1.083695e+00    1.481781e+00
  1.099571e+00    1.442810e+00
  1.115446e+00    1.428831e+00
  1.131322e+00    1.592496e+00
  1.147198e+00    1.706849e+00
  1.163073e+00    1.541109e+00
  1.178949e+00    1.619799e+00
  1.194824e+00    1.747073e+00
  1.210700e+00    2.023128e+00
  1.226575e+00    2.321870e+00
  1.242451e+00    2.533104e+00
  1.258327e+00    2.636988e+00
  1.274202e+00    2.661080e+00
  1.290078e+00    2.571647e+00
  1.305953e+00    2.595313e+00
  1.321829e+00    2.665454e+00
  1.337705e+00    2.684595e+00
  1.353580e+00    2.803234e+00
  1.369456e+00    2.776501e+00
  1.385331e+00    2.794074e+00
  1.401207e+00    2.982715e+00
  1.417082e+00    2.904590e+00
  1.432958e+00    2.949708e+00
  1.448834e+00    2.928060e+00
  1.464709e+00    3.035320e+00
  1.480585e+00    3.073527e+00
  1.496460e+00    3.092059e+00
  1.512336e+00    3.141108e+00
  1.528211e+00    3.161856e+00
  1.544087e+00    3.215837e+00
  1.559963e+00    3.161465e+00
  1.575838e+00    3.196050e+00
  1.591714e+00    3.222216e+00
  1.607589e+00    3.195022e+00
  1.623465e+00    3.163257e+00
  1.639340e+00    3.154003e+00
  1.655216e+00    3.249309e+00
  1.671092e+00    3.237169e+00
  1.686967e+00    3.232853e+00
  1.702843e+00    3.120163e+00
  1.718718e+00    3.182878e+00
  1.734594e+00    3.195979e+00
  1.750469e+00    3.057504e+00
  1.766345e+00    3.115487e+00
  1.782221e+00    3.131823e+00
  1.798096e+00    3.113442e+00
  1.813972e+00    3.163393e+00
  1.829847e+00    3.099303e+00
  1.845723e+00    3.099834e+00
  1.861598e+00    3.131106e+00
  1.877474e+00    3.246448e+00
  1.893350e+00    3.174386e+00
  1.909225e+00    3.089215e+00
  1.925101e+00    2.976801e+00
  1.940976e+00    3.076791e+00
  1.956852e+00    3.171684e+00
  1.972727e+00    3.122071e+00
  1.988603e+00    3.107816e+00
  2.004479e+00    3.082185e+00
  2.020354e+00    3.083053e+00
  2.036230e+00    3.116615e+00
  2.052105e+00    3.084643e+00
  2.067981e+00    3.053675e+00
  2.083856e+00    3.134047e+00
  2.099732e+00    3.184156e+00
  2.115608e+00    3.118134e+00
  2.131483e+00    3.119157e+00
  2.147359e+00    3.126267e+00
  2.163234e+00    3.177386e+00
  2.179110e+00    3.188581e+00
  2.194985e+00    3.207856e+00
  2.210861e+00    3.077060e+00
  2.226737e+00    3.061793e+00
  2.242612e+00    3.099926e+00
  2.258488e+00    3.119749e+00
  2.274363e+00    3.193487e+00
  2.290239e+00    3.224099e+00
  2.306115e+00    3.115737e+00
  2.321990e+00    3.141462e+00
  2.337866e+00    3.147966e+00
  2.353741e+00    3.071511e+00
  2.369617e+00    3.065937e+00
  2.385492e+00    3.165255e+00
  2.401368e+00    3.258908e+00
  2.417244e+00    3.265115e+00
  2.433119e+00    3.141060e+00
  2.448995e+00    3.184373e+00
  2.464870e+00    3.232036e+00
  2.480746e+00    3.285469e+00
  2.496621e+00    3.256143e+00
  2.512497e+00    3.203379e+00
  2.528373e+00    3.288627e+00
  2.544248e+00    3.186780e+00
  2.560124e+00    3.162844e+00
  2.575999e+00    3.319725e+00
  2.591875e+00    3.270084e+00
  2.607750e+00    3.182335e+00
  2.623626e+00    3.285302e+00
  2.639502e+00    3.299315e+00
  2.655377e+00    3.219443e+00
  2.671253e+00    3.183647e+00
  2.687128e+00    3.208180e+00
  2.703004e+00    3.255476e+00
  2.718879e+00    3.317223e+00
  2.734755e+00    3.281554e+00
  2.750631e+00    3.235659e+00
  2.766506e+00    3.167544e+00
  2.782382e+00    3.254252e+00
  2.798257e+00    3.279429e+00
  2.814133e+00    3.421523e+00
  2.830008e+00    3.376865e+00
  2.845884e+00    3.216107e+00
  2.861760e+00    3.195266e+00
  2.877635e+00    3.364176e+00
  2.893511e+00    3.420710e+00
  2.909386e+00    3.386902e+00
  2.925262e+00    3.281842e+00
  2.941137e+00    3.289699e+00
  2.957013e+00    3.389105e+00
  2.972889e+00    3.407624e+00
  2.988764e+00    3.400128e+00
  3.004640e+00    3.324975e+00
  3.020515e+00    3.303889e+00
  3.036391e+00    3.349258e+00
  3.052266e+00    3.339826e+00
  3.068142e+00    3.393807e+00
  3.084018e+00    3.358189e+00
  3.099893e+00    3.360844e+00
  3.115769e+00    3.428933e+00
  3.131644e+00    3.382071e+00
  3.147520e+00    3.353316e+00
  3.163395e+00    3.382347e+00
  3.179271e+00    3.393589e+00
  3.195147e+00    3.329373e+00
  3.211022e+00    3.344167e+00
  3.226898e+00    3.378101e+00
  3.242773e+00    3.437551e+00
  3.258649e+00    3.439704e+00
  3.274525e+00    3.496149e+00
  3.290400e+00    3.442283e+00
  3.306276e+00    3.453924e+00
  3.322151e+00    3.494595e+00
  3.338027e+00    3.508103e+00
  3.353902e+00    3.419304e+00
  3.369778e+00    3.391100e+00
  3.385654e+00    3.469878e+00
  3.401529e+00    3.408282e+00
  3.417405e+00    3.386019e+00
  3.433280e+00    3.441848e+00
  3.449156e+00    3.388839e+00
  3.465031e+00    3.467720e+00
  3.480907e+00    3.504586e+00
  3.496783e+00    3.379690e+00
  3.512658e+00    3.442075e+00
  3.528534e+00    3.474106e+00
  3.544409e+00    3.492803e+00
  3.560285e+00    3.500349e+00
  3.576160e+00    3.467723e+00
  3.592036e+00    3.498453e+00
  3.607912e+00    3.527023e+00
  3.623787e+00    3.557830e+00
  3.639663e+00    3.473848e+00
  3.655538e+00    3.457889e+00
  3.671414e+00    3.448349e+00
  3.687289e+00    3.481886e+00
  3.703165e+00    3.481998e+00
  3.719041e+00    3.566714e+00
  3.734916e+00    3.653242e+00
  3.750792e+00    3.662231e+00
  3.766667e+00    3.548022e+00
  3.782543e+00    3.563927e+00
  3.798418e+00    3.481817e+00
  3.814294e+00    3.461749e+00
  3.830170e+00    3.507718e+00
  3.846045e+00    3.427191e+00
  3.861921e+00    3.516644e+00
  3.877796e+00    3.541386e+00
  3.893672e+00    3.537013e+00
  3.909547e+00    3.514377e+00
  3.925423e+00    3.507973e+00
  3.941299e+00    3.561604e+00
  3.957174e+00    3.555784e+00
  3.973050e+00    3.509963e+00
  3.988925e+00    3.586571e+00
  4.004801e+00    3.547271e+00
  4.020676e+00    3.561134e+00
  4.036552e+00    3.531924e+00
  4.052428e+00    3.534664e+00
  4.068303e+00    3.580062e+00
  4.084179e+00    3.561450e+00
  4.100054e+00    3.539819e+00
  4.115930e+00    3.669515e+00
  4.131806e+00    3.649274e+00
  4.147681e+00    3.541338e+00
  4.163557e+00    3.530907e+00
  4.179432e+00    3.514010e+00
  4.195308e+00    3.613427e+00
  4.211183e+00    3.704707e+00
  4.227059e+00    3.583712e+00
  4.242935e+00    3.590904e+00
  4.258810e+00    3.613513e+00
  4.274686e+00    3.562833e+00
  4.290561e+00    3.538943e+00
  4.306437e+00    3.593014e+00
  4.322312e+00    3.619978e+00
  4.338188e+00    3.571311e+00
  4.354064e+00    3.591455e+00
  4.369939e+00    3.615450e+00
  4.385815e+00    3.650446e+00
  4.401690e+00    3.630703e+00
  4.417566e+00    3.589290e+00
  4.433441e+00    3.552978e+00
  4.449317e+00    3.594806e+00
  4.465193e+00    3.711789e+00
  4.481068e+00    3.564865e+00
  4.496944e+00    3.602116e+00
  4.512819e+00    3.673693e+00
  4.528695e+00    3.609896e+00
  4.544570e+00    3.653266e+00
  4.560446e+00    3.618233e+00
  4.576322e+00    3.657807e+00
  4.592197e+00    3.588762e+00
  4.608073e+00    3.647726e+00
  4.623948e+00    3.629377e+00
  4.639824e+00    3.579319e+00
  4.655699e+00    3.662590e+00
  4.671575e+00    3.664847e+00
  4.687451e+00    3.639972e+00
  4.703326e+00    3.723088e+00
  4.719202e+00    3.695003e+00
  4.735077e+00    3.589882e+00
  4.750953e+00    3.549531e+00
  4.766828e+00    3.593317e+00
  4.782704e+00    3.585215e+00
  4.798580e+00    3.612363e+00
  4.814455e+00    3.609935e+00
  4.830331e+00    3.609665e+00
  4.846206e+00    3.668088e+00
  4.862082e+00    3.623606e+00
  4.877957e+00    3.658728e+00
  4.893833e+00    3.745259e+00
  4.909709e+00    3.650560e+00
  4.925584e+00    3.638102e+00
  4.941460e+00    3.711351e+00
  4.957335e+00    3.677477e+00
  4.973211e+00    3.653070e+00
  4.989086e+00    3.615441e+00
  5.004962e+00    3.639673e+00
  5.020838e+00    3.654649e+00
  5.036713e+00    3.749017e+00
  5.052589e+00    3.677092e+00
  5.068464e+00    3.618878e+00
  5.084340e+00    3.620988e+00
  5.100216e+00    3.591902e+00
  5.116091e+00    3.734609e+00
  5.131967e+00    3.804463e+00
  5.147842e+00    3.730735e+00
  5.163718e+00    3.670159e+00
  5.179593e+00    3.752605e+00
  5.195469e+00    3.725509e+00
  5.211345e+00    3.743745e+00
  5.227220e+00    3.787760e+00
  5.243096e+00    3.755974e+00
  5.258971e+00    3.695900e+00
  5.274847e+00    3.722756e+00
  5.290722e+00    3.713343e+00
  5.306598e+00    3.692726e+00
  5.322474e+00    3.728775e+00
  5.338349e+00    3.667082e+00
  5.354225e+00    3.680025e+00
  5.370100e+00    3.619428e+00
  5.385976e+00    3.700387e+00
  5.401851e+00    3.747277e+00
  5.417727e+00    3.764159e+00
  5.433603e+00    3.654468e+00
  5.449478e+00    3.601811e+00
  5.465354e+00    3.608125e+00
  5.481229e+00    3.630112e+00
  5.497105e+00    3.631744e+00
  5.512980e+00    3.616741e+00
  5.528856e+00    3.543569e+00
  5.544732e+00    3.532536e+00
  5.560607e+00    3.641979e+00
  5.576483e+00    3.628537e+00
  5.592358e+00    3.606484e+00
  5.608234e+00    3.645913e+00
  5.624109e+00    3.658933e+00
  5.639985e+00    3.702718e+00
  5.655861e+00    3.618284e+00
  5.671736e+00    3.555369e+00
  5.687612e+00    3.603947e+00
  5.703487e+00    3.675508e+00
  5.719363e+00    3.594795e+00
  5.735238e+00    3.566242e+00
  5.751114e+00    3.550544e+00
  5.766990e+00    3.636324e+00
  5.782865e+00    3.581013e+00
  5.798741e+00    3.569756e+00
  5.814616e+00    3.653551e+00
  5.830492e+00    3.602995e+00
  5.846367e+00    3.515066e+00
  5.862243e+00    3.515475e+00
  5.878119e+00    3.595699e+00
  5.893994e+00    3.625246e+00
  5.909870e+00    3.549368e+00
  5.925745e+00    3.626100e+00
  5.941621e+00    3.580831e+00
  5.957497e+00    3.659176e+00
  5.973372e+00    3.651201e+00
  5.989248e+00    3.536584e+00
  6.005123e+00    3.518250e+00
  6.020999e+00    3.577252e+00
  6.036874e+00    3.592967e+00
  6.052750e+00    3.592809e+00
  6.068626e+00    3.539758e+00
  6.084501e+00    3.583797e+00
  6.100377e+00    3.605217e+00
  6.116252e+00    3.589839e+00
  6.132128e+00    3.552443e+00
  6.148003e+00    3.579249e+00
  6.163879e+00    3.589205e+00
  6.179755e+00    3.647468e+00
  6.195630e+00    3.578617e+00
  6.211506e+00    3.578184e+00
  6.227381e+00    3.636987e+00
  6.243257e+00    3.684539e+00
  6.259132e+00    3.587603e+00
  6.275008e+00    3.563233e+00
  6.290884e+00    3.459132e+00
  6.306759e+00    3.522710e+00
  6.322635e+00    3.565079e+00
  6.338510e+00    3.582850e+00
  6.354386e+00    3.600179e+00
  6.370261e+00    3.575980e+00
  6.386137e+00    3.520401e+00
  6.402013e+00    3.548635e+00
  6.417888e+00    3.547388e+00
  6.433764e+00    3.568541e+00
  6.449639e+00    3.713664e+00
  6.465515e+00    3.645297e+00
  6.481390e+00    3.584959e+00
  6.497266e+00    3.526747e+00
  6.513142e+00    3.563658e+00
  6.529017e+00    3.543171e+00
  6.544893e+00    3.549081e+00
  6.560768e+00    3.618418e+00
  6.576644e+00    3.544795e+00
  6.592519e+00    3.496004e+00
  6.608395e+00    3.518672e+00
  6.624271e+00    3.628171e+00
  6.640146e+00    3.551684e+00
  6.656022e+00    3.561938e+00
  6.671897e+00    3.584902e+00
  6.687773e+00    3.588459e+00
  6.703648e+00    3.589128e+00
  6.719524e+00    3.600364e+00
  6.735400e+00    3.542084e+00
  6.751275e+00    3.492464e+00
  6.767151e+00    3.576067e+00
  6.783026e+00    3.566532e+00
  6.798902e+00    3.516669e+00
  6.814777e+00    3.542905e+00
  6.830653e+00    3.624891e+00
  6.846529e+00    3.555979e+00
  6.862404e+00    3.555943e+00
  6.878280e+00    3.544215e+00
  6.894155e+00    3.559798e+00
  6.910031e+00    3.558711e+00
  6.925907e+00    3.636039e+00
  6.941782e+00    3.623098e+00
  6.957658e+00    3.649594e+00
  6.973533e+00    3.612382e+00
  6.989409e+00    3.604914e+00
  7.005284e+00    3.516446e+00
  7.021160e+00    3.540360e+00
  7.037036e+00    3.570357e+00
  7.052911e+00    3.589574e+00
  7.068787e+00    3.541169e+00
  7.084662e+00    3.513686e+00
  7.100538e+00    3.619454e+00
  7.116413e+00    3.562804e+00
  7.132289e+00    3.464797e+00
  7.148165e+00    3.510379e+00
  7.164040e+00    3.570883e+00
  7.179916e+00    3.553406e+00
  7.195791e+00    3.553622e+00
  7.211667e+00    3.579542e+00
  7.227542e+00    3.559178e+00
  7.243418e+00    3.509419e+00
  7.259294e+00    3.552814e+00
  7.275169e+00    3.583760e+00
  7.291045e+00    3.513376e+00
  7.306920e+00    3.522329e+00
  7.322796e+00    3.518940e+00
  7.338671e+00    3.459088e+00
  7.354547e+00    3.431491e+00
  7.370423e+00    3.446888e+00
  7.386298e+00    3.453192e+00
  7.402174e+00    3.489983e+00
  7.418049e+00    3.466611e+00
  7.433925e+00    3.488248e+00
  7.449800e+00    3.484183e+00
  7.465676e+00    3.544246e+00
  7.481552e+00    3.498267e+00
  7.497427e+00    3.464513e+00
  7.513303e+00    3.575225e+00
  7.529178e+00    3.546073e+00
  7.545054e+00    3.514913e+00
  7.560929e+00    3.532968e+00
  7.576805e+00    3.482358e+00
  7.592681e+00    3.458721e+00
  7.608556e+00    3.505442e+00
  7.624432e+00    3.507442e+00
  7.640307e+00    3.518446e+00
  7.656183e+00    3.553486e+00
  7.672058e+00    3.452199e+00
  7.687934e+00    3.441402e+00
  7.703810e+00    3.490825e+00
  7.719685e+00    3.463228e+00
  7.735561e+00    3.445801e+00
  7.751436e+00    3.412961e+00
  7.767312e+00    3.473537e+00
  7.783187e+00    3.539868e+00
  7.799063e+00    3.441482e+00
  7.814939e+00    3.456658e+00
  7.830814e+00    3.469101e+00
  7.846690e+00    3.417455e+00
  7.862565e+00    3.455423e+00
  7.878441e+00    3.462604e+00
  7.894317e+00    3.415597e+00
  7.910192e+00    3.462408e+00
  7.926068e+00    3.463335e+00
  7.941943e+00    3.457340e+00
  7.957819e+00    3.460058e+00
  7.973694e+00    3.431182e+00
  7.989570e+00    3.443671e+00
  8.005446e+00    3.457260e+00
  8.021321e+00    3.423104e+00
  8.037197e+00    3.421494e+00
  8.053072e+00    3.432950e+00
  8.068948e+00    3.452841e+00
  8.084823e+00    3.498174e+00
  8.100699e+00    3.504742e+00
  8.116575e+00    3.472089e+00
  8.132450e+00    3.492594e+00
  8.148326e+00    3.535266e+00
  8.164201e+00    3.554538e+00
  8.180077e+00    3.554391e+00
  8.195952e+00    3.488077e+00
  8.211828e+00    3.467486e+00
  8.227704e+00    3.493012e+00
  8.243579e+00    3.402334e+00
  8.259455e+00    3.394576e+00
  8.275330e+00    3.425248e+00
  8.291206e+00    3.520743e+00
  8.307081e+00    3.566328e+00
  8.322957e+00    3.447767e+00
  8.338833e+00    3.410346e+00
  8.354708e+00    3.440461e+00
  8.370584e+00    3.409466e+00
  8.386459e+00    3.410465e+00
  8.402335e+00    3.457748e+00
  8.418210e+00    3.369475e+00
  8.434086e+00    3.401747e+00
  8.449962e+00    3.464200e+00
  8.465837e+00    3.417696e+00
  8.481713e+00    3.464219e+00
  8.497588e+00    3.423385e+00
  8.513464e+00    3.408426e+00
  8.529339e+00    3.411310e+00
  8.545215e+00    3.420347e+00
  8.561091e+00    3.388690e+00
  8.576966e+00    3.389313e+00
  8.592842e+00    3.444659e+00
  8.608717e+00    3.526654e+00
  8.624593e+00    3.445474e+00
  8.640468e+00    3.338790e+00
  8.656344e+00    3.342527e+00
  8.672220e+00    3.388613e+00
  8.688095e+00    3.397408e+00
  8.703971e+00    3.359756e+00
  8.719846e+00    3.393199e+00
  8.735722e+00    3.370643e+00
  8.751598e+00    3.349896e+00
  8.767473e+00    3.379750e+00
  8.783349e+00    3.316177e+00
  8.799224e+00    3.343805e+00
  8.815100e+00    3.382210e+00
  8.830975e+00    3.309480e+00
  8.846851e+00    3.306135e+00
  8.862727e+00    3.299909e+00
  8.878602e+00    3.312314e+00
  8.894478e+00    3.242298e+00
  8.910353e+00    3.287410e+00
  8.926229e+00    3.322458e+00
  8.942104e+00    3.413359e+00
  8.957980e+00    3.414782e+00
  8.973856e+00    3.351106e+00
  8.989731e+00    3.289763e+00
  9.005607e+00    3.324626e+00
  9.021482e+00    3.310281e+00
  9.037358e+00    3.372883e+00
  9.053233e+00    3.307456e+00
  9.069109e+00    3.257843e+00
  9.084985e+00    3.280135e+00
  9.100860e+00    3.350896e+00
  9.116736e+00    3.293549e+00
  9.132611e+00    3.329257e+00
  9.148487e+00    3.359290e+00
  9.164362e+00    3.294969e+00
  9.180238e+00    3.289620e+00
  9.196114e+00    3.317837e+00
  9.211989e+00    3.273383e+00
  9.227865e+00    3.245860e+00
  9.243740e+00    3.286963e+00
  9.259616e+00    3.270342e+00
  9.275491e+00    3.231004e+00
  9.291367e+00    3.252640e+00
  9.307243e+00    3.303388e+00
  9.323118e+00    3.276778e+00
  9.338994e+00    3.235163e+00
  9.354869e+00    3.217263e+00
  9.370745e+00    3.309441e+00
  9.386620e+00    3.249400e+00
  9.402496e+00    3.243743e+00
  9.418372e+00    3.262465e+00
  9.434247e+00    3.210556e+00
  9.450123e+00    3.219787e+00
  9.465998e+00    3.167662e+00
  9.481874e+00    3.215328e+00
  9.497749e+00    3.266804e+00
  9.513625e+00    3.250095e+00
  9.529501e+00    3.240857e+00
  9.545376e+00    3.285225e+00
  9.561252e+00    3.273682e+00
  9.577127e+00    3.247820e+00
  9.593003e+00    3.215438e+00
  9.608878e+00    3.198667e+00
  9.624754e+00    3.169647e+00
  9.640630e+00    3.227960e+00
  9.656505e+00    3.192015e+00
  9.672381e+00    3.124188e+00
  9.688256e+00    3.164871e+00
  9.704132e+00    3.229909e+00
  9.720008e+00    3.193841e+00
  9.735883e+00    3.180080e+00
  9.751759e+00    3.198026e+00
  9.767634e+00    3.152326e+00
  9.783510e+00    3.184558e+00
  9.799385e+00    3.186347e+00
  9.815261e+00    3.111098e+00
  9.831137e+00    3.177591e+00
  9.847012e+00    3.137579e+00
  9.862888e+00    3.143750e+00
  9.878763e+00    3.195313e+00
  9.894639e+00    3.106952e+00
  9.910514e+00    3.104172e+00
  9.926390e+00    3.176178e+00
  9.942266e+00    3.140206e+00
  9.958141e+00    3.145553e+00
  9.974017e+00    3.167268e+00
  9.989892e+00    3.169849e+00
  1.000577e+01    3.134852e+00
  1.002164e+01    3.096027e+00
  1.003752e+01    3.123358e+00
  1.005339e+01    3.085099e+00
  1.006927e+01    3.076915e+00
  1.008515e+01    3.062395e+00
  1.010102e+01    3.118697e+00
  1.011690e+01    3.099632e+00
  1.013277e+01    3.090797e+00
  1.014865e+01    3.144688e+00
  1.016452e+01    3.094889e+00
  1.018040e+01    3.083181e+00
  1.019627e+01    3.134553e+00
  1.021215e+01    3.093667e+00
  1.022803e+01    3.046742e+00
  1.024390e+01    3.055795e+00
  1.025978e+01    3.018229e+00
  1.027565e+01    3.027551e+00
  1.029153e+01    3.082593e+00
  1.030740e+01    3.098246e+00
  1.032328e+01    3.072147e+00
  1.033915e+01    3.104277e+00
  1.035503e+01    3.082697e+00
  1.037091e+01    3.048174e+00
  1.038678e+01    3.072595e+00
  1.040266e+01    3.095624e+00
  1.041853e+01    3.121017e+00
  1.043441e+01    3.103356e+00
  1.045028e+01    3.064723e+00
  1.046616e+01    3.006648e+00
  1.048204e+01    3.025668e+00
  1.049791e+01    3.060503e+00
  1.051379e+01    3.037446e+00
  1.052966e+01    3.048276e+00
  1.054554e+01    3.051717e+00
  1.056141e+01    3.017386e+00
  1.057729e+01    2.999032e+00
  1.059316e+01    3.005816e+00
  1.060904e+01    3.033394e+00
  1.062492e+01    3.031095e+00
  1.064079e+01    3.001418e+00
  1.065667e+01    2.968833e+00
  1.067254e+01    2.952107e+00
  1.068842e+01    3.007766e+00
  1.070429e+01    2.977875e+00
  1.072017e+01    2.992960e+00
  1.073604e+01    2.958684e+00
  1.075192e+01    2.951276e+00
  1.076780e+01    3.060104e+00
  1.078367e+01    3.035935e+00
  1.079955e+01    3.011312e+00
  1.081542e+01    2.915467e+00
  1.083130e+01    2.929139e+00
  1.084717e+01    2.952918e+00
  1.086305e+01    2.945336e+00
  1.087892e+01    2.934609e+00
  1.089480e+01    2.969367e+00
  1.091068e+01    2.997144e+00
  1.092655e+01    2.985456e+00
  1.094243e+01    2.998528e+00
  1.095830e+01    2.931073e+00
  1.097418e+01    2.936869e+00
  1.099005e+01    2.943218e+00
  1.100593e+01    2.891327e+00
  1.102180e+01    2.936279e+00
  1.103768e+01    2.933057e+00
  1.105356e+01    2.921476e+00
  1.106943e+01    2.880971e+00
  1.108531e+01    2.877823e+00
  1.110118e+01    2.847177e+00
  1.111706e+01    2.834408e+00
  1.113293e+01    2.807896e+00
  1.114881e+01    2.810073e+00
  1.116468e+01    2.912425e+00
  1.118056e+01    2.884576e+00
  1.119644e+01    2.871347e+00
  1.121231e+01    2.882850e+00
  1.122819e+01    2.826555e+00
  1.124406e+01    2.833722e+00
  1.125994e+01    2.846953e+00
  1.127581e+01    2.820517e+00
  1.129169e+01    2.847827e+00
  1.130756e+01    2.846284e+00
  1.132344e+01    2.842816e+00
  1.133932e+01    2.872448e+00
  1.135519e+01    2.826206e+00
  1.137107e+01    2.841391e+00
  1.138694e+01    2.846484e+00
  1.140282e+01    2.817106e+00
  1.141869e+01    2.802871e+00
  1.143457e+01    2.823297e+00
  1.145045e+01    2.847239e+00
  1.146632e+01    2.825112e+00
  1.148220e+01    2.868261e+00
  1.149807e+01    2.822158e+00
  1.151395e+01    2.811426e+00
  1.152982e+01    2.846660e+00
  1.154570e+01    2.829231e+00
  1.156157e+01    2.856466e+00
  1.157745e+01    2.811072e+00
  1.159333e+01    2.802945e+00
  1.160920e+01    2.851116e+00
  1.162508e+01    2.806124e+00
  1.164095e+01    2.739334e+00
  1.165683e+01    2.750852e+00
  1.167270e+01    2.847273e+00
  1.168858e+01    2.796857e+00
  1.170445e+01    2.778654e+00
  1.172033e+01    2.720732e+00
  1.173621e+01    2.759068e+00
  1.175208e+01    2.796222e+00
  1.176796e+01    2.799023e+00
  1.178383e+01    2.761835e+00
  1.179971e+01    2.767050e+00
  1.181558e+01    2.768839e+00
  1.183146e+01    2.766595e+00
  1.184733e+01    2.760655e+00
  1.186321e+01    2.773159e+00
  1.187909e+01    2.773136e+00
  1.189496e+01    2.782442e+00
  1.191084e+01    2.764964e+00
  1.192671e+01    2.777439e+00
  1.194259e+01    2.803742e+00
  1.195846e+01    2.793465e+00
  1.197434e+01    2.736455e+00
  1.199021e+01    2.712559e+00
  1.200609e+01    2.704818e+00
  1.202197e+01    2.751418e+00
  1.203784e+01    2.742005e+00
  1.205372e+01    2.763540e+00
  1.206959e+01    2.806967e+00
  1.208547e+01    2.747907e+00
  1.210134e+01    2.734299e+00
  1.211722e+01    2.724758e+00
  1.213309e+01    2.709945e+00
  1.214897e+01    2.716314e+00
  1.216485e+01    2.723454e+00
  1.218072e+01    2.731256e+00
  1.219660e+01    2.746929e+00
  1.221247e+01    2.716347e+00
  1.222835e+01    2.724402e+00
  1.224422e+01    2.699140e+00
  1.226010e+01    2.795336e+00
  1.227597e+01    2.772769e+00
  1.229185e+01    2.665425e+00
  1.230773e+01    2.712554e+00
  1.232360e+01    2.731199e+00
  1.233948e+01    2.690838e+00
  1.235535e+01    2.689413e+00
  1.237123e+01    2.725403e+00
  1.238710e+01    2.739199e+00
  1.240298e+01    2.744831e+00
  1.241886e+01    2.699329e+00
  1.243473e+01    2.694513e+00
  1.245061e+01    2.726128e+00
  1.246648e+01    2.698839e+00
  1.248236e+01    2.689617e+00
  1.249823e+01    2.719142e+00
  1.251411e+01    2.721071e+00
  1.252998e+01    2.728079e+00
  1.254586e+01    2.672116e+00
  1.256174e+01    2.710782e+00
  1.257761e+01    2.741169e+00
  1.259349e+01    2.782802e+00
  1.260936e+01    2.818147e+00
  1.262524e+01    2.764654e+00
  1.264111e+01    2.795697e+00
  1.265699e+01    2.850076e+00
  1.267286e+01    2.781354e+00
  1.268874e+01    2.783028e+00
  1.270462e+01    2.826463e+00
  1.272049e+01    2.847731e+00
  1.273637e+01    2.888570e+00
  1.275224e+01    2.880346e+00
  1.276812e+01    2.995336e+00
  1.278399e+01    3.029579e+00
  1.279987e+01    3.066899e+00
  1.281574e+01    3.042806e+00
  1.283162e+01    3.140612e+00
  1.284750e+01    3.231251e+00
  1.286337e+01    3.345635e+00
  1.287925e+01    3.409922e+00
  1.289512e+01    3.515118e+00
  1.291100e+01    3.722184e+00
  1.292687e+01    3.871978e+00
  1.294275e+01    4.127985e+00
  1.295862e+01    4.427032e+00
  1.297450e+01    4.854279e+00
  1.299038e+01    5.304597e+00
  1.300625e+01    5.897175e+00
  1.302213e+01    6.766053e+00
  1.303800e+01    7.751479e+00
  1.305388e+01    8.987858e+00
  1.306975e+01    1.023755e+01
  1.308563e+01    1.150883e+01
  1.310150e+01    1.269194e+01
  1.311738e+01    1.384314e+01
  1.313326e+01    1.496153e+01
  1.314913e+01    1.587501e+01
  1.316501e+01    1.637221e+01
  1.318088e+01    1.649860e+01
  1.319676e+01    1.584938e+01
  1.321263e+01    1.455004e+01
  1.322851e+01    1.268823e+01
  1.324438e+01    1.082551e+01
  1.326026e+01    9.192039e+00
  1.327614e+01    7.880995e+00
  1.329201e+01    6.853168e+00
  1.330789e+01    6.000960e+00
  1.332376e+01    5.380655e+00
  1.333964e+01    4.833035e+00
  1.335551e+01    4.444039e+00
  1.337139e+01    4.186115e+00
  1.338727e+01    3.961426e+00
  1.340314e+01    3.714071e+00
  1.341902e+01    3.498394e+00
  1.343489e+01    3.349627e+00
  1.345077e+01    3.219383e+00
  1.346664e+01    3.119648e+00
  1.348252e+01    3.084619e+00
  1.349839e+01    3.040560e+00
  1.351427e+01    2.943480e+00
  1.353015e+01    2.880542e+00
  1.354602e+01    2.861973e+00
  1.356190e+01    2.810383e+00
  1.357777e+01    2.732617e+00
  1.359365e+01    2.760475e+00
  1.360952e+01    2.715682e+00
  1.362540e+01    2.676312e+00
  1.364127e+01    2.648019e+00
  1.365715e+01    2.601478e+00
  1.367303e+01    2.554290e+00
  1.368890e+01    2.574484e+00
  1.370478e+01    2.515392e+00
  1.372065e+01    2.530043e+00
  1.373653e+01    2.564254e+00
  1.375240e+01    2.518284e+00
  1.376828e+01    2.505851e+00
  1.378415e+01    2.508144e+00
  1.380003e+01    2.502429e+00
  1.381591e+01    2.468192e+00
  1.383178e+01    2.433913e+00
  1.384766e+01    2.476578e+00
  1.386353e+01    2.431857e+00
  1.387941e+01    2.444893e+00
  1.389528e+01    2.466349e+00
  1.391116e+01    2.429914e+00
  1.392703e+01    2.405981e+00
  1.394291e+01    2.420996e+00
  1.395879e+01    2.400546e+00
  1.397466e+01    2.366147e+00
  1.399054e+01    2.385897e+00
  1.400641e+01    2.385573e+00
  1.402229e+01    2.347166e+00
  1.403816e+01    2.348320e+00
  1.405404e+01    2.414621e+00
  1.406991e+01    2.373076e+00
  1.408579e+01    2.386881e+00
  1.410167e+01    2.367589e+00
  1.411754e+01    2.333583e+00
  1.413342e+01    2.300448e+00
  1.414929e+01    2.293011e+00
  1.416517e+01    2.329504e+00
  1.418104e+01    2.343229e+00
  1.419692e+01    2.324112e+00
  1.421279e+01    2.316204e+00
  1.422867e+01    2.266042e+00
  1.424455e+01    2.284800e+00
  1.426042e+01    2.295470e+00
  1.427630e+01    2.267159e+00
  1.429217e+01    2.323817e+00
  1.430805e+01    2.304441e+00
  1.432392e+01    2.268837e+00
  1.433980e+01    2.266049e+00
  1.435568e+01    2.262319e+00
  1.437155e+01    2.268655e+00
  1.438743e+01    2.226836e+00
  1.440330e+01    2.258477e+00
  1.441918e+01    2.253138e+00
  1.443505e+01    2.257035e+00
  1.445093e+01    2.256007e+00
  1.446680e+01    2.268751e+00
  1.448268e+01    2.226268e+00
  1.449856e+01    2.221490e+00
  1.451443e+01    2.223478e+00
  1.453031e+01    2.250354e+00
  1.454618e+01    2.219153e+00
  1.456206e+01    2.250839e+00
  1.457793e+01    2.212227e+00
  1.459381e+01    2.241880e+00
  1.460968e+01    2.237174e+00
  1.462556e+01    2.261424e+00
  1.464144e+01    2.236018e+00
  1.465731e+01    2.263678e+00
  1.467319e+01    2.195635e+00
  1.468906e+01    2.182027e+00
  1.470494e+01    2.191788e+00
  1.472081e+01    2.165762e+00
  1.473669e+01    2.173619e+00
  1.475256e+01    2.233134e+00
  1.476844e+01    2.235848e+00
  1.478432e+01    2.243936e+00
  1.480019e+01    2.177488e+00
  1.481607e+01    2.201257e+00
  1.483194e+01    2.222770e+00
  1.484782e+01    2.237892e+00
  1.486369e+01    2.201518e+00
  1.487957e+01    2.184168e+00
  1.489544e+01    2.228317e+00
  1.491132e+01    2.241813e+00
  1.492720e+01    2.283159e+00
  1.494307e+01    2.324312e+00
  1.495895e+01    2.350607e+00
  1.497482e+01    2.398547e+00
  1.499070e+01    2.386894e+00
  1.500657e+01    2.493094e+00
  1.502245e+01    2.546183e+00
  1.503832e+01    2.606727e+00
  1.505420e+01    2.663692e+00
  1.507008e+01    2.760178e+00
  1.508595e+01    2.915646e+00
  1.510183e+01    3.207311e+00
  1.511770e+01    3.490914e+00
  1.513358e+01    3.870339e+00
  1.514945e+01    4.202745e+00
  1.516533e+01    4.564504e+00
  1.518120e+01    4.889793e+00
  1.519708e+01    5.235825e+00
  1.521296e+01    5.398601e+00
  1.522883e+01    5.601103e+00
  1.524471e+01    5.781271e+00
  1.526058e+01    5.813038e+00
  1.527646e+01    5.782848e+00
  1.529233e+01    5.559801e+00
  1.530821e+01    5.148441e+00
  1.532409e+01    4.739204e+00
  1.533996e+01    4.267727e+00
  1.535584e+01    3.806946e+00
  1.537171e+01    3.452788e+00
  1.538759e+01    3.205346e+00
  1.540346e+01    3.017108e+00
  1.541934e+01    2.847798e+00
  1.543521e+01    2.669389e+00
  1.545109e+01    2.541121e+00
  1.546697e+01    2.490534e+00
  1.548284e+01    2.427717e+00
  1.549872e+01    2.326199e+00
  1.551459e+01    2.264912e+00
  1.553047e+01    2.239224e+00
  1.554634e+01    2.203343e+00
  1.556222e+01    2.185452e+00
  1.557809e+01    2.129912e+00
  1.559397e+01    2.129520e+00
  1.560985e+01    2.099793e+00
  1.562572e+01    2.084967e+00
  1.564160e+01    2.083701e+00
  1.565747e+01    2.033828e+00
  1.567335e+01    2.002720e+00
  1.568922e+01    2.039546e+00
  1.570510e+01    2.028312e+00
  1.572097e+01    2.009832e+00
  1.573685e+01    1.991668e+00
  1.575273e+01    1.936603e+00
  1.576860e+01    1.941790e+00
  1.578448e+01    1.936842e+00
  1.580035e+01    1.899689e+00
  1.581623e+01    1.914562e+00
  1.583210e+01    1.943168e+00
  1.584798e+01    1.937450e+00
  1.586385e+01    1.932436e+00
  1.587973e+01    1.913305e+00
  1.589561e+01    1.938346e+00
  1.591148e+01    1.937451e+00
  1.592736e+01    1.904145e+00
  1.594323e+01    1.869933e+00
  1.595911e+01    1.915774e+00
  1.597498e+01    1.884875e+00
  1.599086e+01    1.916165e+00
  1.600673e+01    1.912677e+00
  1.602261e+01    1.909432e+00
  1.603849e+01    1.849112e+00
  1.605436e+01    1.838720e+00
  1.607024e+01    1.864833e+00
  1.608611e+01    1.869220e+00
  1.610199e+01    1.842034e+00
  1.611786e+01    1.875233e+00
  1.613374e+01    1.874593e+00
  1.614961e+01    1.839078e+00
  1.616549e+01    1.856139e+00
  1.618137e+01    1.839967e+00
  1.619724e+01    1.841412e+00
  1.621312e+01    1.853165e+00
  1.622899e+01    1.834713e+00
  1.624487e+01    1.828456e+00
  1.626074e+01    1.839863e+00
  1.627662e+01    1.822655e+00
  1.629250e+01    1.793471e+00
  1.630837e+01    1.809662e+00
  1.632425e+01    1.825235e+00
  1.634012e+01    1.830461e+00
  1.635600e+01    1.794410e+00
  1.637187e+01    1.772601e+00
  1.638775e+01    1.779184e+00
  1.640362e+01    1.772166e+00
  1.641950e+01    1.753023e+00
  1.643538e+01    1.763197e+00
  1.645125e+01    1.788953e+00
  1.646713e+01    1.782043e+00
  1.648300e+01    1.768170e+00
  1.649888e+01    1.773780e+00
  1.651475e+01    1.773658e+00
  1.653063e+01    1.770534e+00
  1.654650e+01    1.754649e+00
  1.656238e+01    1.775531e+00
  1.657826e+01    1.776313e+00
  1.659413e+01    1.788434e+00
  1.661001e+01    1.743240e+00
  1.662588e+01    1.715237e+00
  1.664176e+01    1.776519e+00
  1.665763e+01    1.775100e+00
  1.667351e+01    1.779930e+00
  1.668938e+01    1.749680e+00
  1.670526e+01    1.738046e+00
  1.672114e+01    1.730172e+00
  1.673701e+01    1.722101e+00
  1.675289e+01    1.727310e+00
  1.676876e+01    1.678838e+00
  1.678464e+01    1.696396e+00
  1.680051e+01    1.712881e+00
  1.681639e+01    1.738433e+00
  1.683226e+01    1.713757e+00
  1.684814e+01    1.746965e+00
  1.686402e+01    1.698289e+00
  1.687989e+01    1.700687e+00
  1.689577e+01    1.711450e+00
  1.691164e+01    1.722479e+00
  1.692752e+01    1.714916e+00
  1.694339e+01    1.691573e+00
  1.695927e+01    1.672971e+00
  1.697514e+01    1.678199e+00
  1.699102e+01    1.696066e+00
  1.700690e+01    1.703296e+00
  1.702277e+01    1.655177e+00
  1.703865e+01    1.673763e+00
  1.705452e+01    1.651868e+00
  1.707040e+01    1.672356e+00
  1.708627e+01    1.671479e+00
  1.710215e+01    1.663278e+00
  1.711802e+01    1.669414e+00
  1.713390e+01    1.641013e+00
  1.714978e+01    1.658808e+00
  1.716565e+01    1.627670e+00
  1.718153e+01    1.626946e+00
  1.719740e+01    1.648477e+00
  1.721328e+01    1.669423e+00
  1.722915e+01    1.625879e+00
  1.724503e+01    1.629512e+00
  1.726091e+01    1.613089e+00
  1.727678e+01    1.632179e+00
  1.729266e+01    1.661311e+00
  1.730853e+01    1.626859e+00
  1.732441e+01    1.613831e+00
  1.734028e+01    1.602417e+00
  1.735616e+01    1.597096e+00
  1.737203e+01    1.622589e+00
  1.738791e+01    1.604004e+00
  1.740379e+01    1.615491e+00
  1.741966e+01    1.590804e+00
  1.743554e+01    1.603991e+00
  1.745141e+01    1.622190e+00
  1.746729e+01    1.606480e+00
  1.748316e+01    1.587399e+00
  1.749904e+01    1.591546e+00
  1.751491e+01    1.577848e+00
  1.753079e+01    1.578966e+00
  1.754667e+01    1.605714e+00
  1.756254e+01    1.591534e+00
  1.757842e+01    1.588158e+00
  1.759429e+01    1.612170e+00
  1.761017e+01    1.591741e+00
  1.762604e+01    1.605100e+00
  1.764192e+01    1.611897e+00
  1.765779e+01    1.599112e+00
  1.767367e+01    1.585539e+00
  1.768955e+01    1.576293e+00
  1.770542e+01    1.526504e+00
  1.772130e+01    1.545589e+00
  1.773717e+01    1.569738e+00
  1.775305e+01    1.600388e+00
  1.776892e+01    1.581646e+00
  1.778480e+01    1.558602e+00
  1.780067e+01    1.553666e+00
  1.781655e+01    1.587983e+00
  1.783243e+01    1.554174e+00
  1.784830e+01    1.520238e+00
  1.786418e+01    1.534715e+00
  1.788005e+01    1.519167e+00
  1.789593e+01    1.547357e+00
  1.791180e+01    1.541952e+00
  1.792768e+01    1.527437e+00
  1.794355e+01    1.517685e+00
  1.795943e+01    1.501514e+00
  1.797531e+01    1.516766e+00
  1.799118e+01    1.513407e+00
  1.800706e+01    1.535060e+00
  1.802293e+01    1.544278e+00
  1.803881e+01    1.520109e+00
  1.805468e+01    1.511778e+00
  1.807056e+01    1.508420e+00
  1.808643e+01    1.509606e+00
  1.810231e+01    1.514812e+00
  1.811819e+01    1.514438e+00
  1.813406e+01    1.514094e+00
  1.814994e+01    1.525335e+00
  1.816581e+01    1.514532e+00
  1.818169e+01    1.509099e+00
  1.819756e+01    1.491989e+00
  1.821344e+01    1.488176e+00
  1.822932e+01    1.477761e+00
  1.824519e+01    1.496873e+00
  1.826107e+01    1.492361e+00
  1.827694e+01    1.467571e+00
  1.829282e+01    1.461262e+00
  1.830869e+01    1.464029e+00
  1.832457e+01    1.480222e+00
  1.834044e+01    1.488484e+00
  1.835632e+01    1.474886e+00
  1.837220e+01    1.498995e+00
  1.838807e+01    1.479600e+00
  1.840395e+01    1.473989e+00
  1.841982e+01    1.462300e+00
  1.843570e+01    1.462707e+00
  1.845157e+01    1.451252e+00
  1.846745e+01    1.413202e+00
  1.848332e+01    1.434772e+00
  1.849920e+01    1.435886e+00
  1.851508e+01    1.410113e+00
  1.853095e+01    1.435868e+00
  1.854683e+01    1.453387e+00
  1.856270e+01    1.434552e+00
  1.857858e+01    1.450190e+00
  1.859445e+01    1.471549e+00
  1.861033e+01    1.453889e+00
  1.862620e+01    1.433003e+00
  1.864208e+01    1.450057e+00
  1.865796e+01    1.440046e+00
  1.867383e+01    1.461768e+00
  1.868971e+01    1.449351e+00
  1.870558e+01    1.425243e+00
  1.872146e+01    1.408074e+00
  1.873733e+01    1.405350e+00
  1.875321e+01    1.417431e+00
  1.876908e+01    1.430566e+00
  1.878496e+01    1.418275e+00
  1.880084e+01    1.409659e+00
  1.881671e+01    1.416245e+00
  1.883259e+01    1.415218e+00
  1.884846e+01    1.409553e+00
  1.886434e+01    1.404508e+00
  1.888021e+01    1.397118e+00
  1.889609e+01    1.412903e+00
  1.891196e+01    1.393636e+00
  1.892784e+01    1.395634e+00
  1.894372e+01    1.415472e+00
  1.895959e+01    1.381277e+00
  1.897547e+01    1.405252e+00
  1.899134e+01    1.403864e+00
  1.900722e+01    1.381426e+00
  1.902309e+01    1.385260e+00
  1.903897e+01    1.400106e+00
  1.905484e+01    1.374350e+00
  1.907072e+01    1.373633e+00
  1.908660e+01    1.377217e+00
  1.910247e+01    1.369598e+00
  1.911835e+01    1.391522e+00
  1.913422e+01    1.381674e+00
  1.915010e+01    1.375665e+00
  1.916597e+01    1.373459e+00
  1.918185e+01    1.371499e+00
  1.919773e+01    1.379727e+00
  1.921360e+01    1.400129e+00
  1.922948e+01    1.379474e+00
  1.924535e+01    1.346833e+00
  1.926123e+01    1.368448e+00
  1.927710e+01    1.388598e+00
  1.929298e+01    1.357173e+00
  1.930885e+01    1.374532e+00
  1.932473e+01    1.381575e+00
  1.934061e+01    1.359518e+00
  1.935648e+01    1.371812e+00
  1.937236e+01    1.379314e+00
  1.938823e+01    1.368465e+00
  1.940411e+01    1.371431e+00
  1.941998e+01    1.359158e+00
  1.943586e+01    1.368489e+00
  1.945173e+01    1.396372e+00
  1.946761e+01    1.375589e+00
  1.948349e+01    1.346630e+00
  1.949936e+01    1.339189e+00
  1.951524e+01    1.343911e+00
  1.953111e+01    1.347447e+00
  1.954699e+01    1.326045e+00
  1.956286e+01    1.320291e+00
  1.957874e+01    1.336223e+00
  1.959461e+01    1.333773e+00
  1.961049e+01    1.329105e+00
  1.962637e+01    1.351260e+00
  1.964224e+01    1.306678e+00
  1.965812e+01    1.316181e+00
  1.967399e+01    1.316619e+00
  1.968987e+01    1.293857e+00
  1.970574e+01    1.303923e+00
  1.972162e+01    1.317468e+00
  1.973749e+01    1.335735e+00
  1.975337e+01    1.316361e+00
  1.976925e+01    1.303771e+00
  1.978512e+01    1.322080e+00
  1.980100e+01    1.306871e+00
  1.981687e+01    1.307692e+00
  1.983275e+01    1.309240e+00
  1.984862e+01    1.291906e+00
  1.986450e+01    1.277127e+00
  1.988037e+01    1.295617e+00
  1.989625e+01    1.292878e+00
  1.991213e+01    1.292082e+00
  1.992800e+01    1.303036e+00
  1.994388e+01    1.313076e+00
  1.995975e+01    1.312065e+00
  1.997563e+01    1.318645e+00
  1.999150e+01    1.289846e+00
  2.000738e+01    1.273647e+00
  2.002325e+01    1.280712e+00
  2.003913e+01    1.307281e+00
  2.005501e+01    1.275078e+00
  2.007088e+01    1.285578e+00
  2.008676e+01    1.271557e+00
  2.010263e+01    1.266140e+00
  2.011851e+01    1.267266e+00
  2.013438e+01    1.268338e+00
  2.015026e+01    1.264446e+00
  2.016614e+01    1.271964e+00
  2.018201e+01    1.283966e+00
  2.019789e+01    1.257804e+00
  2.021376e+01    1.265576e+00
  2.022964e+01    1.257762e+00
  2.024551e+01    1.280089e+00
  2.026139e+01    1.285257e+00
  2.027726e+01    1.273759e+00
  2.029314e+01    1.287275e+00
  2.030902e+01    1.262632e+00
  2.032489e+01    1.252260e+00
  2.034077e+01    1.287655e+00
  2.035664e+01    1.295549e+00
  2.037252e+01    1.259475e+00
  2.038839e+01    1.245760e+00
  2.040427e+01    1.259088e+00
  2.042014e+01    1.247682e+00
  2.043602e+01    1.259968e+00
  2.045190e+01    1.256740e+00
  2.046777e+01    1.268244e+00
  2.048365e+01    1.262226e+00
  2.049952e+01    1.241842e+00
  2.051540e+01    1.237272e+00
  2.053127e+01    1.245638e+00
  2.054715e+01    1.264589e+00
  2.056302e+01    1.259110e+00
  2.057890e+01    1.240212e+00
  2.059478e+01    1.249908e+00
  2.061065e+01    1.245142e+00
  2.062653e+01    1.233301e+00
  2.064240e+01    1.229239e+00
  2.065828e+01    1.263055e+00
  2.067415e+01    1.247066e+00
  2.069003e+01    1.250222e+00
  2.070590e+01    1.255242e+00
  2.072178e+01    1.245295e+00
  2.073766e+01    1.231796e+00
  2.075353e+01    1.241059e+00
  2.076941e+01    1.240106e+00
  2.078528e+01    1.219988e+00
  2.080116e+01    1.254521e+00
  2.081703e+01    1.242604e+00
  2.083291e+01    1.222927e+00
  2.084878e+01    1.218992e+00
  2.086466e+01    1.222179e+00
  2.088054e+01    1.266897e+00
  2.089641e+01    1.249613e+00
  2.091229e+01    1.218149e+00
  2.092816e+01    1.222547e+00
  2.094404e+01    1.238131e+00
  2.095991e+01    1.233280e+00
  2.097579e+01    1.226528e+00
  2.099166e+01    1.218058e+00
  2.100754e+01    1.232890e+00
  2.102342e+01    1.228092e+00
  2.103929e+01    1.241739e+00
  2.105517e+01    1.230724e+00
  2.107104e+01    1.234644e+00
  2.108692e+01    1.240478e+00
  2.110279e+01    1.267327e+00
  2.111867e+01    1.267520e+00
  2.113455e+01    1.253880e+00
  2.115042e+01    1.238323e+00
  2.116630e+01    1.257591e+00
  2.118217e+01    1.257288e+00
  2.119805e+01    1.272852e+00
  2.121392e+01    1.253970e+00
  2.122980e+01    1.257637e+00
  2.124567e+01    1.261149e+00
  2.126155e+01    1.249262e+00
  2.127743e+01    1.257618e+00
  2.129330e+01    1.277923e+00
  2.130918e+01    1.263801e+00
  2.132505e+01    1.292118e+00
  2.134093e+01    1.285847e+00
  2.135680e+01    1.297879e+00
  2.137268e+01    1.290207e+00
  2.138855e+01    1.312209e+00
  2.140443e+01    1.312921e+00
  2.142031e+01    1.321353e+00
  2.143618e+01    1.332243e+00
  2.145206e+01    1.350792e+00
  2.146793e+01    1.383443e+00
  2.148381e+01    1.406972e+00
  2.149968e+01    1.426411e+00
  2.151556e+01    1.468562e+00
  2.153143e+01    1.480865e+00
  2.154731e+01    1.544597e+00
  2.156319e+01    1.612466e+00
  2.157906e+01    1.638025e+00
  2.159494e+01    1.718052e+00
  2.161081e+01    1.782220e+00
  2.162669e+01    1.851886e+00
  2.164256e+01    1.979082e+00
  2.165844e+01    2.120291e+00
  2.167431e+01    2.301068e+00
  2.169019e+01    2.487412e+00
  2.170607e+01    2.761763e+00
  2.172194e+01    3.140375e+00
  2.173782e+01    3.557260e+00
  2.175369e+01    4.052864e+00
  2.176957e+01    4.552668e+00
  2.178544e+01    5.194525e+00
  2.180132e+01    5.875411e+00
  2.181719e+01    6.574985e+00
  2.183307e+01    7.189049e+00
  2.184895e+01    7.804444e+00
  2.186482e+01    8.397484e+00
  2.188070e+01    8.885021e+00
  2.189657e+01    9.025821e+00
  2.191245e+01    8.844040e+00
  2.192832e+01    8.377554e+00
  2.194420e+01    7.641902e+00
  2.196007e+01    6.676649e+00
  2.197595e+01    5.768820e+00
  2.199183e+01    4.959443e+00
  2.200770e+01    4.230219e+00
  2.202358e+01    3.665586e+00
  2.203945e+01    3.184798e+00
  2.205533e+01    2.846375e+00
  2.207120e+01    2.585687e+00
  2.208708e+01    2.378960e+00
  2.210296e+01    2.211176e+00
  2.211883e+01    2.041469e+00
  2.213471e+01    1.903805e+00
  2.215058e+01    1.766861e+00
  2.216646e+01    1.688795e+00
  2.218233e+01    1.597655e+00
  2.219821e+01    1.552714e+00
  2.221408e+01    1.507829e+00
  2.222996e+01    1.479039e+00
  2.224584e+01    1.449647e+00
  2.226171e+01    1.388335e+00
  2.227759e+01    1.382278e+00
  2.229346e+01    1.344038e+00
  2.230934e+01    1.348425e+00
  2.232521e+01    1.289436e+00
  2.234109e+01    1.270643e+00
  2.235696e+01    1.241435e+00
  2.237284e+01    1.227232e+00
  2.238872e+01    1.210320e+00
  2.240459e+01    1.212255e+00
  2.242047e+01    1.195781e+00
  2.243634e+01    1.181069e+00
  2.245222e+01    1.177377e+00
  2.246809e+01    1.169457e+00
  2.248397e+01    1.173430e+00
  2.249984e+01    1.154755e+00
  2.251572e+01    1.137889e+00
  2.253160e+01    1.135213e+00
  2.254747e+01    1.136936e+00
  2.256335e+01    1.126733e+00
  2.257922e+01    1.117867e+00
  2.259510e+01    1.122408e+00
  2.261097e+01    1.108082e+00
  2.262685e+01    1.079313e+00
  2.264272e+01    1.081540e+00
  2.265860e+01    1.093802e+00
  2.267448e+01    1.071069e+00
  2.269035e+01    1.076796e+00
  2.270623e+01    1.096885e+00
  2.272210e+01    1.093338e+00
  2.273798e+01    1.083389e+00
  2.275385e+01    1.063309e+00
  2.276973e+01    1.055186e+00
  2.278560e+01    1.057151e+00
  2.280148e+01    1.065943e+00
  2.281736e+01    1.066763e+00
  2.283323e+01    1.072609e+00
  2.284911e+01    1.034750e+00
  2.286498e+01    1.047501e+00
  2.288086e+01    1.074390e+00
  2.289673e+01    1.038996e+00
  2.291261e+01    1.026777e+00
  2.292848e+01    1.049007e+00
  2.294436e+01    1.033526e+00
  2.296024e+01    1.041567e+00
  2.297611e+01    1.029870e+00
  2.299199e+01    1.019020e+00
  2.300786e+01    1.036859e+00
  2.302374e+01    1.037243e+00
  2.303961e+01    1.010456e+00
  2.305549e+01    1.018275e+00
  2.307137e+01    1.032797e+00
  2.308724e+01    1.024599e+00
  2.310312e+01    1.013507e+00
  2.311899e+01    1.026784e+00
  2.313487e+01    1.014666e+00
  2.315074e+01    1.004771e+00
  2.316662e+01    1.011305e+00
  2.318249e+01    1.025388e+00
  2.319837e+01    1.012066e+00
  2.321425e+01    1.012059e+00
  2.323012e+01    9.991378e-01
  2.324600e+01    9.987236e-01
  2.326187e+01    9.931170e-01
  2.327775e+01    9.859792e-01
  2.329362e+01    9.856322e-01
  2.330950e+01    9.934886e-01
  2.332537e+01    1.008069e+00
  2.334125e+01    9.834338e-01
  2.335713e+01    9.748253e-01
  2.337300e+01    9.809769e-01
  2.338888e+01    9.837614e-01
  2.340475e+01    9.669986e-01
  2.342063e+01    9.685881e-01
  2.343650e+01    9.941077e-01
  2.345238e+01    9.693921e-01
  2.346825e+01    9.700031e-01
  2.348413e+01    9.799537e-01
  2.350001e+01    9.869518e-01
  2.351588e+01    9.635288e-01
  2.353176e+01    9.310634e-01
  2.354763e+01    9.608731e-01
  2.356351e+01    9.692864e-01
  2.357938e+01    9.712757e-01
  2.359526e+01    9.647547e-01
  2.361113e+01    9.494596e-01
  2.362701e+01    9.723553e-01
  2.364289e+01    9.665708e-01
  2.365876e+01    9.764436e-01
  2.367464e+01    9.578989e-01
  2.369051e+01    9.478474e-01
  2.370639e+01    9.378653e-01
  2.372226e+01    9.436772e-01
  2.373814e+01    9.668584e-01
  2.375401e+01    9.377314e-01
  2.376989e+01    9.417379e-01
  2.378577e+01    9.413277e-01
  2.380164e+01    9.159137e-01
  2.381752e+01    9.050074e-01
  2.383339e+01    9.082354e-01
  2.384927e+01    9.260942e-01
  2.386514e+01    9.250445e-01
  2.388102e+01    9.146953e-01
  2.389689e+01    9.225866e-01
  2.391277e+01    9.176103e-01
  2.392865e+01    9.191805e-01
  2.394452e+01    9.192855e-01
  2.396040e+01    9.149931e-01
  2.397627e+01    8.942322e-01
  2.399215e+01    8.795877e-01
  2.400802e+01    8.972356e-01
  2.402390e+01    8.880178e-01
  2.403978e+01    9.018052e-01
  2.405565e+01    9.215113e-01
  2.407153e+01    8.943126e-01
  2.408740e+01    8.828490e-01
  2.410328e+01    8.931577e-01
  2.411915e+01    9.069557e-01
  2.413503e+01    8.911540e-01
  2.415090e+01    8.772869e-01
  2.416678e+01    8.918580e-01
  2.418266e+01    9.007089e-01
  2.419853e+01    8.932087e-01
  2.421441e+01    8.798176e-01
  2.423028e+01    8.953714e-01
  2.424616e+01    9.054524e-01
  2.426203e+01    8.983907e-01
  2.427791e+01    9.137713e-01
  2.429378e+01    9.012498e-01
  2.430966e+01    9.038278e-01
  2.432554e+01    9.080075e-01
  2.434141e+01    9.196826e-01
  2.435729e+01    8.921105e-01
  2.437316e+01    8.884345e-01
  2.438904e+01    9.054305e-01
  2.440491e+01    9.083769e-01
  2.442079e+01    8.901500e-01
  2.443666e+01    8.691352e-01
  2.445254e+01    8.756595e-01
  2.446842e+01    9.079040e-01
  2.448429e+01    9.060460e-01
  2.450017e+01    9.014436e-01
  2.451604e+01    9.134476e-01
  2.453192e+01    9.088397e-01
  2.454779e+01    8.905851e-01
  2.456367e+01    8.882131e-01
  2.457954e+01    8.976233e-01
  2.459542e+01    9.037828e-01
  2.461130e+01    9.157869e-01
  2.462717e+01    9.129276e-01
  2.464305e+01    9.030169e-01
  2.465892e+01    9.021291e-01
  2.467480e+01    9.018423e-01
  2.469067e+01    8.922080e-01
  2.470655e+01    8.761778e-01
  2.472242e+01    8.749831e-01
  2.473830e+01    9.056723e-01
  2.475418e+01    9.081900e-01
  2.477005e+01    8.916464e-01
  2.478593e+01    8.797427e-01
  2.480180e+01    8.877193e-01
  2.481768e+01    9.058900e-01
  2.483355e+01    8.954776e-01
  2.484943e+01    8.823305e-01
  2.486530e+01    9.000443e-01
  2.488118e+01    8.835844e-01
  2.489706e+01    8.739198e-01
  2.491293e+01    8.923776e-01
  2.492881e+01    9.001422e-01
  2.494468e+01    9.166255e-01
  2.496056e+01    9.113463e-01
  2.497643e+01    9.239919e-01
  2.499231e+01    9.178173e-01
  2.500819e+01    9.290842e-01
  2.502406e+01    8.952770e-01
  2.503994e+01    8.980388e-01
  2.505581e+01    9.051908e-01
  2.507169e+01    8.963697e-01
  2.508756e+01    9.071003e-01
  2.510344e+01    9.143785e-01
  2.511931e+01    9.162992e-01
  2.513519e+01    8.985508e-01
  2.515107e+01    9.057052e-01
  2.516694e+01    9.180138e-01
  2.518282e+01    9.360269e-01
  2.519869e+01    9.325882e-01
  2.521457e+01    9.374795e-01
  2.523044e+01    9.214419e-01
  2.524632e+01    9.335278e-01
  2.526219e+01    9.562441e-01
  2.527807e+01    9.529884e-01
  2.529395e+01    9.505129e-01
  2.530982e+01    9.629313e-01
  2.532570e+01    9.584960e-01
  2.534157e+01    9.559016e-01
  2.535745e+01    9.810803e-01
  2.537332e+01    1.003837e+00
  2.538920e+01    9.945570e-01
  2.540507e+01    1.012681e+00
  2.542095e+01    9.878916e-01
  2.543683e+01    9.960327e-01
  2.545270e+01    1.015305e+00
  2.546858e+01    1.027638e+00
  2.548445e+01    1.053089e+00
  2.550033e+01    1.085414e+00
  2.551620e+01    1.076140e+00
  2.553208e+01    1.080659e+00
  2.554795e+01    1.112347e+00
  2.556383e+01    1.142528e+00
  2.557971e+01    1.172727e+00
  2.559558e+01    1.188660e+00
  2.561146e+01    1.219700e+00
  2.562733e+01    1.254878e+00
  2.564321e+01    1.301812e+00
  2.565908e+01    1.366398e+00
  2.567496e+01    1.429705e+00
  2.569083e+01    1.524590e+00
  2.570671e+01    1.623593e+00
  2.572259e+01    1.722069e+00
  2.573846e+01    1.851288e+00
  2.575434e+01    2.034735e+00
  2.577021e+01    2.258957e+00
  2.578609e+01    2.533834e+00
  2.580196e+01    2.823575e+00
  2.581784e+01    3.204483e+00
  2.583371e+01    3.662858e+00
  2.584959e+01    4.169004e+00
  2.586547e+01    4.688896e+00
  2.588134e+01    5.279940e+00
  2.589722e+01    5.871353e+00
  2.591309e+01    6.371166e+00
  2.592897e+01    6.770707e+00
  2.594484e+01    7.104075e+00
  2.596072e+01    7.178266e+00
  2.597660e+01    7.046743e+00
  2.599247e+01    6.623439e+00
  2.600835e+01    6.003318e+00
  2.602422e+01    5.351464e+00
  2.604010e+01    4.600873e+00
  2.605597e+01    4.048098e+00
  2.607185e+01    3.506920e+00
  2.608772e+01    3.052136e+00
  2.610360e+01    2.674124e+00
  2.611948e+01    2.381992e+00
  2.613535e+01    2.188209e+00
  2.615123e+01    1.983454e+00
  2.616710e+01    1.804870e+00
  2.618298e+01    1.686183e+00
  2.619885e+01    1.583522e+00
  2.621473e+01    1.496584e+00
  2.623060e+01    1.441003e+00
  2.624648e+01    1.372293e+00
  2.626236e+01    1.313588e+00
  2.627823e+01    1.287879e+00
  2.629411e+01    1.234066e+00
  2.630998e+01    1.192671e+00
  2.632586e+01    1.144068e+00
  2.634173e+01    1.140335e+00
  2.635761e+01    1.139064e+00
  2.637348e+01    1.101524e+00
  2.638936e+01    1.053858e+00
  2.640524e+01    1.063773e+00
  2.642111e+01    1.057259e+00
  2.643699e+01    1.055013e+00
  2.645286e+01    1.029573e+00
  2.646874e+01    1.033412e+00
  2.648461e+01    1.045704e+00
  2.650049e+01    1.042487e+00
  2.651636e+01    1.030718e+00
  2.653224e+01    1.022296e+00
  2.654812e+01    9.933287e-01
  2.656399e+01    9.969978e-01
  2.657987e+01    1.002649e+00
  2.659574e+01    1.003448e+00
  2.661162e+01    1.008922e+00
  2.662749e+01    9.870299e-01
  2.664337e+01    9.976289e-01
  2.665924e+01    9.748408e-01
  2.667512e+01    9.835312e-01
  2.669100e+01    9.887466e-01
  2.670687e+01    9.670244e-01
  2.672275e+01    9.786662e-01
  2.673862e+01    9.946811e-01
  2.675450e+01    9.746765e-01
  2.677037e+01    9.646250e-01
  2.678625e+01    9.628816e-01
  2.680212e+01    9.728421e-01
  2.681800e+01    9.974040e-01
  2.683388e+01    9.902151e-01
  2.684975e+01    9.895775e-01
  2.686563e+01    9.943419e-01
  2.688150e+01    9.807237e-01
  2.689738e+01    1.004979e+00
  2.691325e+01    1.017455e+00
  2.692913e+01    1.027544e+00
  2.694501e+01    1.043869e+00
  2.696088e+01    1.046310e+00
  2.697676e+01    1.077795e+00
  2.699263e+01    1.113370e+00
  2.700851e+01    1.125007e+00
  2.702438e+01    1.158779e+00
  2.704026e+01    1.194729e+00
  2.705613e+01    1.248530e+00
  2.707201e+01    1.346171e+00
  2.708789e+01    1.425946e+00
  2.710376e+01    1.494616e+00
  2.711964e+01    1.619803e+00
  2.713551e+01    1.736159e+00
  2.715139e+01    1.862375e+00
  2.716726e+01    1.977461e+00
  2.718314e+01    2.059851e+00
  2.719901e+01    2.165763e+00
  2.721489e+01    2.196447e+00
  2.723077e+01    2.163970e+00
  2.724664e+01    2.108440e+00
  2.726252e+01    1.987795e+00
  2.727839e+01    1.858705e+00
  2.729427e+01    1.727460e+00
  2.731014e+01    1.568551e+00
  2.732602e+01    1.459796e+00
  2.734189e+01    1.389285e+00
  2.735777e+01    1.304266e+00
  2.737365e+01    1.238412e+00
  2.738952e+01    1.178853e+00
  2.740540e+01    1.123140e+00
  2.742127e+01    1.104791e+00
  2.743715e+01    1.072731e+00
  2.745302e+01    1.051245e+00
  2.746890e+01    1.024912e+00
  2.748477e+01    9.976164e-01
  2.750065e+01    9.684576e-01
  2.751653e+01    9.665746e-01
  2.753240e+01    9.696454e-01
  2.754828e+01    9.439557e-01
  2.756415e+01    9.433889e-01
  2.758003e+01    9.306840e-01
  2.759590e+01    9.373595e-01
  2.761178e+01    9.422477e-01
  2.762765e+01    9.211220e-01
  2.764353e+01    9.241792e-01
  2.765941e+01    8.990547e-01
  2.767528e+01    9.163956e-01
  2.769116e+01    9.104562e-01
  2.770703e+01    8.970944e-01
  2.772291e+01    9.221649e-01
  2.773878e+01    9.189119e-01
  2.775466e+01    9.098464e-01
  2.777054e+01    9.125737e-01
  2.778641e+01    8.962059e-01
  2.780229e+01    8.847867e-01
  2.781816e+01    8.728690e-01
  2.783404e+01    8.926098e-01
  2.784991e+01    8.948866e-01
  2.786579e+01    8.883729e-01
  2.788166e+01    9.111434e-01
  2.789754e+01    8.830776e-01
  2.791342e+01    8.940244e-01
  2.792929e+01    9.059500e-01
  2.794517e+01    8.823521e-01
  2.796104e+01    9.035986e-01
  2.797692e+01    8.994020e-01
  2.799279e+01    8.679922e-01
  2.800867e+01    8.644849e-01
  2.802454e+01    8.626099e-01
  2.804042e+01    8.796684e-01
  2.805630e+01    8.916823e-01
  2.807217e+01    9.096809e-01
  2.808805e+01    8.696849e-01
  2.810392e+01    8.858781e-01
  2.811980e+01    8.841252e-01
  2.813567e+01    8.761373e-01
  2.815155e+01    8.596318e-01
  2.816742e+01    8.610249e-01
  2.818330e+01    8.677542e-01
  2.819918e+01    8.484610e-01
  2.821505e+01    8.683817e-01
  2.823093e+01    8.621184e-01
  2.824680e+01    8.444916e-01
  2.826268e+01    8.339984e-01
  2.827855e+01    8.384392e-01
  2.829443e+01    8.517052e-01
  2.831030e+01    8.691149e-01
  2.832618e+01    8.584846e-01
  2.834206e+01    8.650467e-01
  2.835793e+01    8.526375e-01
  2.837381e+01    8.566142e-01
  2.838968e+01    8.553827e-01
  2.840556e+01    8.580283e-01
  2.842143e+01    8.540927e-01
  2.843731e+01    8.337359e-01
  2.845318e+01    8.285707e-01
  2.846906e+01    8.488165e-01
  2.848494e+01    8.484389e-01
  2.850081e+01    8.389742e-01
  2.851669e+01    8.584586e-01
  2.853256e+01    8.412927e-01
  2.854844e+01    8.438068e-01
  2.856431e+01    8.426772e-01
  2.858019e+01    8.466671e-01
  2.859606e+01    8.446041e-01
  2.861194e+01    8.467764e-01
  2.862782e+01    8.312386e-01
  2.864369e+01    8.370588e-01
  2.865957e+01    8.387356e-01
  2.867544e+01    8.320545e-01
  2.869132e+01    8.767015e-01
  2.870719e+01    8.259536e-01
  2.872307e+01    8.343796e-01
  2.873895e+01    8.442372e-01
  2.875482e+01    8.144712e-01
  2.877070e+01    8.236035e-01
  2.878657e+01    8.274761e-01
  2.880245e+01    8.431715e-01
  2.881832e+01    8.466334e-01
  2.883420e+01    8.356801e-01
  2.885007e+01    8.290361e-01
  2.886595e+01    8.268440e-01
  2.888183e+01    8.306152e-01
  2.889770e+01    8.163841e-01
  2.891358e+01    8.478788e-01
  2.892945e+01    8.653692e-01
  2.894533e+01    8.327730e-01
  2.896120e+01    8.294957e-01
  2.897708e+01    8.500313e-01
  2.899295e+01    8.494344e-01
  2.900883e+01    8.307080e-01
  2.902471e+01    8.259251e-01
  2.904058e+01    8.272013e-01
  2.905646e+01    8.158486e-01
  2.907233e+01    8.037394e-01
  2.908821e+01    8.259308e-01
  2.910408e+01    8.277981e-01
  2.911996e+01    8.308403e-01
  2.913583e+01    8.389922e-01
  2.915171e+01    8.355383e-01
  2.916759e+01    8.219852e-01
  2.918346e+01    8.135197e-01
  2.919934e+01    8.164872e-01
  2.921521e+01    8.251330e-01
  2.923109e+01    8.275046e-01
  2.924696e+01    8.378412e-01
  2.926284e+01    8.059691e-01
  2.927871e+01    7.983248e-01
  2.929459e+01    8.054462e-01
  2.931047e+01    8.073510e-01
  2.932634e+01    7.997658e-01
  2.934222e+01    8.192858e-01
  2.935809e+01    8.206567e-01
  2.937397e+01    8.114985e-01
  2.938984e+01    8.024006e-01
  2.940572e+01    7.999831e-01
  2.942159e+01    8.119981e-01
  2.943747e+01    8.044634e-01
  2.945335e+01    8.256959e-01
  2.946922e+01    8.280474e-01
  2.948510e+01    8.045756e-01
  2.950097e+01    7.975971e-01
  2.951685e+01    7.887494e-01
  2.953272e+01    8.095387e-01
  2.954860e+01    8.135620e-01
  2.956447e+01    7.982681e-01
  2.958035e+01    7.849847e-01
  2.959623e+01    7.945249e-01
  2.961210e+01    7.970744e-01
  2.962798e+01    8.007129e-01
  2.964385e+01    8.166225e-01
  2.965973e+01    7.950332e-01
  2.967560e+01    7.982230e-01
  2.969148e+01    8.171468e-01
  2.970736e+01    8.055434e-01
  2.972323e+01    8.156382e-01
  2.973911e+01    7.965252e-01
  2.975498e+01    7.880627e-01
  2.977086e+01    7.914306e-01
  2.978673e+01    8.143938e-01
  2.980261e+01    7.842269e-01
  2.981848e+01    7.985833e-01
  2.983436e+01    7.727320e-01
  2.985024e+01    7.802836e-01
  2.986611e+01    8.070351e-01
  2.988199e+01    8.171726e-01
  2.989786e+01    7.962099e-01
  2.991374e+01    7.957737e-01
  2.992961e+01    7.942210e-01
  2.994549e+01    8.101148e-01
  2.996136e+01    7.985269e-01
  2.997724e+01    8.010892e-01
  2.999312e+01    8.001045e-01
  3.000899e+01    8.137130e-01
  3.002487e+01    8.218081e-01
  3.004074e+01    8.198400e-01
  3.005662e+01    8.191817e-01
  3.007249e+01    8.322319e-01
  3.008837e+01    7.957730e-01
  3.010424e+01    8.089670e-01
  3.012012e+01    7.969925e-01
  3.013600e+01    8.015864e-01
  3.015187e+01    7.963802e-01
  3.016775e+01    7.849061e-01
  3.018362e+01    7.806253e-01
  3.019950e+01    8.005556e-01
  3.021537e+01    7.768044e-01
  3.023125e+01    7.788424e-01
  3.024712e+01    7.949693e-01
  3.026300e+01    7.955989e-01
  3.027888e+01    7.933665e-01
  3.029475e+01    7.760366e-01
  3.031063e+01    7.514126e-01
  3.032650e+01    7.712519e-01
  3.034238e+01    8.022188e-01
  3.035825e+01    7.976599e-01
  3.037413e+01    7.999142e-01
  3.039000e+01    7.725903e-01
  3.040588e+01    7.824332e-01
  3.042176e+01    7.797449e-01
  3.043763e+01    7.840710e-01
  3.045351e+01    7.785813e-01
  3.046938e+01    7.748799e-01
  3.048526e+01    7.825319e-01
  3.050113e+01    7.920737e-01
  3.051701e+01    7.880286e-01
  3.053288e+01    7.670429e-01
  3.054876e+01    7.781081e-01
  3.056464e+01    7.965806e-01
  3.058051e+01    7.866060e-01
  3.059639e+01    8.012000e-01
  3.061226e+01    7.968678e-01
  3.062814e+01    7.905455e-01
  3.064401e+01    7.772050e-01
  3.065989e+01    7.673311e-01
  3.067577e+01    7.672626e-01
  3.069164e+01    7.569042e-01
  3.070752e+01    7.851531e-01
  3.072339e+01    8.082781e-01
  3.073927e+01    7.994295e-01
  3.075514e+01    7.902117e-01
  3.077102e+01    8.039947e-01
  3.078689e+01    7.911929e-01
  3.080277e+01    7.889437e-01
  3.081865e+01    7.870174e-01
  3.083452e+01    7.813821e-01
  3.085040e+01    7.838932e-01
  3.086627e+01    7.679269e-01
  3.088215e+01    7.680721e-01
  3.089802e+01    7.639093e-01
  3.091390e+01    7.706592e-01
  3.092977e+01    7.822211e-01
  3.094565e+01    7.896439e-01
  3.096153e+01    7.956672e-01
  3.097740e+01    8.059117e-01
  3.099328e+01    7.930425e-01
  3.100915e+01    7.941273e-01
  3.102503e+01    7.984376e-01
  3.104090e+01    7.707350e-01
  3.105678e+01    7.882289e-01
  3.107265e+01    8.090890e-01
  3.108853e+01    7.898586e-01
  3.110441e+01    7.866305e-01
  3.112028e+01    8.051119e-01
  3.113616e+01    7.949265e-01
  3.115203e+01    7.989559e-01
  3.116791e+01    7.868409e-01
  3.118378e+01    7.905139e-01
  3.119966e+01    7.981447e-01
  3.121553e+01    8.032540e-01
  3.123141e+01    8.179225e-01
  3.124729e+01    7.859293e-01
  3.126316e+01    8.017127e-01
  3.127904e+01    8.164573e-01
  3.129491e+01    8.141411e-01
  3.131079e+01    8.301982e-01
  3.132666e+01    8.196649e-01
  3.134254e+01    8.342749e-01
  3.135841e+01    8.325025e-01
  3.137429e+01    8.179148e-01
  3.139017e+01    7.847863e-01
  3.140604e+01    7.792694e-01
  3.142192e+01    8.156235e-01
  3.143779e+01    8.188801e-01
  3.145367e+01    8.063707e-01
  3.146954e+01    8.241895e-01
  3.148542e+01    8.352420e-01
  3.150129e+01    8.360216e-01
  3.151717e+01    8.568501e-01
  3.153305e+01    8.288733e-01
  3.154892e+01    8.350708e-01
  3.156480e+01    8.814906e-01
  3.158067e+01    8.745228e-01
  3.159655e+01    8.757519e-01
  3.161242e+01    8.878517e-01
  3.162830e+01    8.858514e-01
  3.164418e+01    9.072582e-01
  3.166005e+01    9.366125e-01
  3.167593e+01    9.790862e-01
  3.169180e+01    1.019847e+00
  3.170768e+01    1.032571e+00
  3.172355e+01    1.076313e+00
  3.173943e+01    1.115668e+00
  3.175530e+01    1.210369e+00
  3.177118e+01    1.283910e+00
  3.178706e+01    1.356553e+00
  3.180293e+01    1.451969e+00
  3.181881e+01    1.613659e+00
  3.183468e+01    1.746037e+00
  3.185056e+01    1.833966e+00
  3.186643e+01    1.953146e+00
  3.188231e+01    2.069871e+00
  3.189818e+01    2.121142e+00
  3.191406e+01    2.135086e+00
  3.192994e+01    2.073652e+00
  3.194581e+01    1.975279e+00
  3.196169e+01    1.845482e+00
  3.197756e+01    1.716267e+00
  3.199344e+01    1.590773e+00
  3.200931e+01    1.479728e+00
  3.202519e+01    1.336355e+00
  3.204106e+01    1.229029e+00
  3.205694e+01    1.158720e+00
  3.207282e+01    1.086622e+00
  3.208869e+01    1.057762e+00
  3.210457e+01    9.896948e-01
  3.212044e+01    9.750471e-01
  3.213632e+01    9.356207e-01
  3.215219e+01    9.264700e-01
  3.216807e+01    9.126922e-01
  3.218394e+01    8.658645e-01
  3.219982e+01    8.688809e-01
  3.221570e+01    8.597836e-01
  3.223157e+01    8.522376e-01
  3.224745e+01    8.576040e-01
  3.226332e+01    8.526532e-01
  3.227920e+01    8.455740e-01
  3.229507e+01    8.167264e-01
  3.231095e+01    8.154276e-01
  3.232682e+01    8.098692e-01
  3.234270e+01    8.219023e-01
  3.235858e+01    8.088831e-01
  3.237445e+01    8.080742e-01
  3.239033e+01    8.197883e-01
  3.240620e+01    8.171708e-01
  3.242208e+01    8.117900e-01
  3.243795e+01    8.025680e-01
  3.245383e+01    8.122143e-01
  3.246970e+01    7.934071e-01
  3.248558e+01    7.903240e-01
  3.250146e+01    7.896737e-01
  3.251733e+01    7.735284e-01
  3.253321e+01    7.891196e-01
  3.254908e+01    7.965475e-01
