# == pyFAI calibration ==
# Distance Sample to Detector: 0.3999999939076516 m
# PONI: 9.750e-02, 1.135e-01 m
# Rotations: -0.000175 0.000000 -0.000000 rad
# 
# == Fit2d calibration ==
# Distance Sample-beamCenter: 400.000 mm
# Center: x=1514.000, y=1300.000 pix
# Tilt: 0.010 deg  TiltPlanRot: 0.010 deg
# 
# Detector Detector	 Spline= None	 PixelSize= 7.500e-05, 7.500e-05 m
#    Detector has a mask: False 
#    Detector has a dark current: False 
#    detector has a flat field: False 
# 
# Wavelength: 6.888e-11 m
# Mask applied: user provided
# Dark current applied: False
# Flat field applied: False
# Polarization factor: 0.99
# Normalization factor: 1.0
# --> /home/myspot/data/2024_07_Rosario/Ru-CGO-ex/2024-07-27_003_Ru-CGO-ex_Reaction_dwell_000023_data_000186.dat
#       q_nm^-1             I 
  2.003187e-02    0.000000e+00
  3.590745e-02    1.401520e-01
  5.178302e-02    2.137052e-01
  6.765859e-02    1.485372e-01
  8.353417e-02    9.777845e-02
  9.940974e-02    1.015809e-01
  1.152853e-01    1.031080e-01
  1.311609e-01    2.738347e-02
  1.470365e-01    2.548775e-02
  1.629120e-01    1.193912e-02
  1.787876e-01    0.000000e+00
  1.946632e-01    1.428648e-02
  2.105388e-01    3.621241e-02
  2.264143e-01    6.522363e-03
  2.422899e-01    2.998466e-02
  2.581655e-01    2.636067e-02
  2.740411e-01    1.861152e-02
  2.899166e-01    2.358552e-02
  3.057922e-01    4.293618e-02
  3.216678e-01    8.450343e-02
  3.375433e-01    8.602586e-02
  3.534189e-01    1.009944e-01
  3.692945e-01    4.644011e-02
  3.851701e-01    3.091742e-02
  4.010456e-01    4.424983e-02
  4.169212e-01    7.852356e-02
  4.327968e-01    4.772010e-02
  4.486724e-01    5.100895e-02
  4.645479e-01    4.014540e-02
  4.804235e-01    2.586673e-02
  4.962991e-01    4.217374e-02
  5.121747e-01    3.855440e-02
  5.280502e-01    3.158014e-02
  5.439258e-01    3.793268e-02
  5.598014e-01    2.864240e-02
  5.756770e-01    3.824549e-02
  5.915525e-01    3.733948e-02
  6.074281e-01    6.376176e-02
  6.233037e-01    7.539278e-02
  6.391793e-01    4.584536e-02
  6.550548e-01    4.419165e-02
  6.709304e-01    3.777167e-02
  6.868060e-01    5.041734e-02
  7.026815e-01    5.420257e-02
  7.185571e-01    4.279871e-02
  7.344327e-01    5.799162e-02
  7.503083e-01    5.514842e-02
  7.661838e-01    6.614991e-02
  7.820594e-01    1.087311e-01
  7.979350e-01    1.776894e-01
  8.138106e-01    2.566883e-01
  8.296861e-01    3.719882e-01
  8.455617e-01    3.442675e-01
  8.614373e-01    3.134176e-01
  8.773129e-01    4.415518e-01
  8.931884e-01    5.281240e-01
  9.090640e-01    6.636953e-01
  9.249396e-01    7.617608e-01
  9.408152e-01    7.996563e-01
  9.566907e-01    9.088814e-01
  9.725663e-01    9.975705e-01
  9.884419e-01    1.017569e+00
  1.004317e+00    1.163809e+00
  1.020193e+00    1.298252e+00
  1.036069e+00    1.330516e+00
  1.051944e+00    1.407196e+00
  1.067820e+00    1.482109e+00
  1.083695e+00    1.494462e+00
  1.099571e+00    1.494971e+00
  1.115446e+00    1.640585e+00
  1.131322e+00    1.690000e+00
  1.147198e+00    1.657644e+00
  1.163073e+00    1.712613e+00
  1.178949e+00    1.574974e+00
  1.194824e+00    1.788774e+00
  1.210700e+00    2.038995e+00
  1.226575e+00    2.279752e+00
  1.242451e+00    2.361720e+00
  1.258327e+00    2.376117e+00
  1.274202e+00    2.401105e+00
  1.290078e+00    2.503198e+00
  1.305953e+00    2.716560e+00
  1.321829e+00    2.766574e+00
  1.337705e+00    2.791969e+00
  1.353580e+00    2.732657e+00
  1.369456e+00    2.724321e+00
  1.385331e+00    2.873344e+00
  1.401207e+00    2.878783e+00
  1.417082e+00    2.813906e+00
  1.432958e+00    2.897850e+00
  1.448834e+00    2.926888e+00
  1.464709e+00    3.011824e+00
  1.480585e+00    3.153562e+00
  1.496460e+00    3.178662e+00
  1.512336e+00    3.253151e+00
  1.528211e+00    3.310982e+00
  1.544087e+00    3.198458e+00
  1.559963e+00    2.974591e+00
  1.575838e+00    3.195322e+00
  1.591714e+00    3.250198e+00
  1.607589e+00    3.153996e+00
  1.623465e+00    2.964271e+00
  1.639340e+00    3.046341e+00
  1.655216e+00    3.103360e+00
  1.671092e+00    2.974749e+00
  1.686967e+00    3.000327e+00
  1.702843e+00    3.022993e+00
  1.718718e+00    3.011115e+00
  1.734594e+00    3.102044e+00
  1.750469e+00    3.045474e+00
  1.766345e+00    3.089207e+00
  1.782221e+00    3.001317e+00
  1.798096e+00    3.114829e+00
  1.813972e+00    3.115178e+00
  1.829847e+00    3.080063e+00
  1.845723e+00    2.983676e+00
  1.861598e+00    2.993669e+00
  1.877474e+00    3.096427e+00
  1.893350e+00    3.073883e+00
  1.909225e+00    2.986589e+00
  1.925101e+00    2.951047e+00
  1.940976e+00    2.932233e+00
  1.956852e+00    2.989839e+00
  1.972727e+00    3.039609e+00
  1.988603e+00    3.053716e+00
  2.004479e+00    2.976986e+00
  2.020354e+00    2.928187e+00
  2.036230e+00    3.023218e+00
  2.052105e+00    2.956159e+00
  2.067981e+00    3.050081e+00
  2.083856e+00    3.130162e+00
  2.099732e+00    3.041633e+00
  2.115608e+00    3.048360e+00
  2.131483e+00    3.010636e+00
  2.147359e+00    3.025665e+00
  2.163234e+00    3.066779e+00
  2.179110e+00    3.128370e+00
  2.194985e+00    3.113201e+00
  2.210861e+00    3.006736e+00
  2.226737e+00    3.038821e+00
  2.242612e+00    3.033565e+00
  2.258488e+00    2.957193e+00
  2.274363e+00    3.070713e+00
  2.290239e+00    3.103116e+00
  2.306115e+00    3.201892e+00
  2.321990e+00    3.077621e+00
  2.337866e+00    3.090017e+00
  2.353741e+00    3.080646e+00
  2.369617e+00    3.157796e+00
  2.385492e+00    3.214234e+00
  2.401368e+00    3.135855e+00
  2.417244e+00    3.200513e+00
  2.433119e+00    3.239712e+00
  2.448995e+00    3.164389e+00
  2.464870e+00    3.227976e+00
  2.480746e+00    3.211240e+00
  2.496621e+00    3.087436e+00
  2.512497e+00    3.160401e+00
  2.528373e+00    3.144440e+00
  2.544248e+00    3.136644e+00
  2.560124e+00    3.176718e+00
  2.575999e+00    3.157606e+00
  2.591875e+00    3.192274e+00
  2.607750e+00    3.090567e+00
  2.623626e+00    3.148514e+00
  2.639502e+00    3.069643e+00
  2.655377e+00    3.166821e+00
  2.671253e+00    3.220078e+00
  2.687128e+00    3.238043e+00
  2.703004e+00    3.226419e+00
  2.718879e+00    3.146395e+00
  2.734755e+00    3.205704e+00
  2.750631e+00    3.221444e+00
  2.766506e+00    3.186891e+00
  2.782382e+00    3.188577e+00
  2.798257e+00    3.189613e+00
  2.814133e+00    3.187150e+00
  2.830008e+00    3.222516e+00
  2.845884e+00    3.171071e+00
  2.861760e+00    3.094411e+00
  2.877635e+00    3.196945e+00
  2.893511e+00    3.166515e+00
  2.909386e+00    3.263028e+00
  2.925262e+00    3.339759e+00
  2.941137e+00    3.304649e+00
  2.957013e+00    3.315647e+00
  2.972889e+00    3.332326e+00
  2.988764e+00    3.341675e+00
  3.004640e+00    3.253663e+00
  3.020515e+00    3.165858e+00
  3.036391e+00    3.274053e+00
  3.052266e+00    3.280150e+00
  3.068142e+00    3.216102e+00
  3.084018e+00    3.214579e+00
  3.099893e+00    3.244245e+00
  3.115769e+00    3.359981e+00
  3.131644e+00    3.254959e+00
  3.147520e+00    3.214689e+00
  3.163395e+00    3.345188e+00
  3.179271e+00    3.262728e+00
  3.195147e+00    3.298645e+00
  3.211022e+00    3.406663e+00
  3.226898e+00    3.384191e+00
  3.242773e+00    3.287406e+00
  3.258649e+00    3.312894e+00
  3.274525e+00    3.352866e+00
  3.290400e+00    3.332650e+00
  3.306276e+00    3.367527e+00
  3.322151e+00    3.431872e+00
  3.338027e+00    3.420885e+00
  3.353902e+00    3.373081e+00
  3.369778e+00    3.361431e+00
  3.385654e+00    3.334325e+00
  3.401529e+00    3.393377e+00
  3.417405e+00    3.327341e+00
  3.433280e+00    3.318023e+00
  3.449156e+00    3.325984e+00
  3.465031e+00    3.300270e+00
  3.480907e+00    3.309076e+00
  3.496783e+00    3.403768e+00
  3.512658e+00    3.333153e+00
  3.528534e+00    3.309961e+00
  3.544409e+00    3.405577e+00
  3.560285e+00    3.517215e+00
  3.576160e+00    3.422672e+00
  3.592036e+00    3.481676e+00
  3.607912e+00    3.426556e+00
  3.623787e+00    3.321496e+00
  3.639663e+00    3.421476e+00
  3.655538e+00    3.372662e+00
  3.671414e+00    3.434395e+00
  3.687289e+00    3.406126e+00
  3.703165e+00    3.418280e+00
  3.719041e+00    3.332634e+00
  3.734916e+00    3.352533e+00
  3.750792e+00    3.414795e+00
  3.766667e+00    3.382975e+00
  3.782543e+00    3.416385e+00
  3.798418e+00    3.481524e+00
  3.814294e+00    3.425415e+00
  3.830170e+00    3.336497e+00
  3.846045e+00    3.497736e+00
  3.861921e+00    3.503639e+00
  3.877796e+00    3.474604e+00
  3.893672e+00    3.493475e+00
  3.909547e+00    3.509256e+00
  3.925423e+00    3.466111e+00
  3.941299e+00    3.498449e+00
  3.957174e+00    3.547999e+00
  3.973050e+00    3.408714e+00
  3.988925e+00    3.405375e+00
  4.004801e+00    3.406182e+00
  4.020676e+00    3.498505e+00
  4.036552e+00    3.471862e+00
  4.052428e+00    3.409875e+00
  4.068303e+00    3.413725e+00
  4.084179e+00    3.426195e+00
  4.100054e+00    3.424943e+00
  4.115930e+00    3.456967e+00
  4.131806e+00    3.526789e+00
  4.147681e+00    3.548367e+00
  4.163557e+00    3.555683e+00
  4.179432e+00    3.523385e+00
  4.195308e+00    3.446017e+00
  4.211183e+00    3.486282e+00
  4.227059e+00    3.493588e+00
  4.242935e+00    3.513486e+00
  4.258810e+00    3.481712e+00
  4.274686e+00    3.475845e+00
  4.290561e+00    3.536858e+00
  4.306437e+00    3.573111e+00
  4.322312e+00    3.543612e+00
  4.338188e+00    3.536995e+00
  4.354064e+00    3.514917e+00
  4.369939e+00    3.497102e+00
  4.385815e+00    3.504122e+00
  4.401690e+00    3.557470e+00
  4.417566e+00    3.527317e+00
  4.433441e+00    3.530740e+00
  4.449317e+00    3.553770e+00
  4.465193e+00    3.523225e+00
  4.481068e+00    3.548487e+00
  4.496944e+00    3.485545e+00
  4.512819e+00    3.529248e+00
  4.528695e+00    3.546825e+00
  4.544570e+00    3.572624e+00
  4.560446e+00    3.506814e+00
  4.576322e+00    3.495683e+00
  4.592197e+00    3.475869e+00
  4.608073e+00    3.458653e+00
  4.623948e+00    3.567127e+00
  4.639824e+00    3.611663e+00
  4.655699e+00    3.567801e+00
  4.671575e+00    3.547939e+00
  4.687451e+00    3.560211e+00
  4.703326e+00    3.468795e+00
  4.719202e+00    3.444762e+00
  4.735077e+00    3.616150e+00
  4.750953e+00    3.695940e+00
  4.766828e+00    3.514797e+00
  4.782704e+00    3.441757e+00
  4.798580e+00    3.502354e+00
  4.814455e+00    3.594565e+00
  4.830331e+00    3.684046e+00
  4.846206e+00    3.648759e+00
  4.862082e+00    3.586245e+00
  4.877957e+00    3.507139e+00
  4.893833e+00    3.529211e+00
  4.909709e+00    3.473684e+00
  4.925584e+00    3.501733e+00
  4.941460e+00    3.586322e+00
  4.957335e+00    3.586066e+00
  4.973211e+00    3.566866e+00
  4.989086e+00    3.635236e+00
  5.004962e+00    3.647284e+00
  5.020838e+00    3.559690e+00
  5.036713e+00    3.678423e+00
  5.052589e+00    3.667908e+00
  5.068464e+00    3.637961e+00
  5.084340e+00    3.578955e+00
  5.100216e+00    3.546230e+00
  5.116091e+00    3.581650e+00
  5.131967e+00    3.591192e+00
  5.147842e+00    3.558919e+00
  5.163718e+00    3.575219e+00
  5.179593e+00    3.600487e+00
  5.195469e+00    3.593479e+00
  5.211345e+00    3.545023e+00
  5.227220e+00    3.584084e+00
  5.243096e+00    3.561821e+00
  5.258971e+00    3.522411e+00
  5.274847e+00    3.491586e+00
  5.290722e+00    3.630018e+00
  5.306598e+00    3.682513e+00
  5.322474e+00    3.618950e+00
  5.338349e+00    3.553176e+00
  5.354225e+00    3.559690e+00
  5.370100e+00    3.632768e+00
  5.385976e+00    3.609702e+00
  5.401851e+00    3.598942e+00
  5.417727e+00    3.583403e+00
  5.433603e+00    3.563998e+00
  5.449478e+00    3.593301e+00
  5.465354e+00    3.499748e+00
  5.481229e+00    3.506042e+00
  5.497105e+00    3.621492e+00
  5.512980e+00    3.531992e+00
  5.528856e+00    3.536530e+00
  5.544732e+00    3.567312e+00
  5.560607e+00    3.565437e+00
  5.576483e+00    3.600820e+00
  5.592358e+00    3.500978e+00
  5.608234e+00    3.459605e+00
  5.624109e+00    3.509289e+00
  5.639985e+00    3.534745e+00
  5.655861e+00    3.510916e+00
  5.671736e+00    3.566736e+00
  5.687612e+00    3.565236e+00
  5.703487e+00    3.540751e+00
  5.719363e+00    3.539303e+00
  5.735238e+00    3.427808e+00
  5.751114e+00    3.487748e+00
  5.766990e+00    3.475889e+00
  5.782865e+00    3.476295e+00
  5.798741e+00    3.628230e+00
  5.814616e+00    3.549976e+00
  5.830492e+00    3.518699e+00
  5.846367e+00    3.528836e+00
  5.862243e+00    3.509319e+00
  5.878119e+00    3.478854e+00
  5.893994e+00    3.423238e+00
  5.909870e+00    3.397015e+00
  5.925745e+00    3.439555e+00
  5.941621e+00    3.438587e+00
  5.957497e+00    3.423941e+00
  5.973372e+00    3.461907e+00
  5.989248e+00    3.463943e+00
  6.005123e+00    3.505321e+00
  6.020999e+00    3.456121e+00
  6.036874e+00    3.468765e+00
  6.052750e+00    3.478555e+00
  6.068626e+00    3.511047e+00
  6.084501e+00    3.536610e+00
  6.100377e+00    3.447971e+00
  6.116252e+00    3.519738e+00
  6.132128e+00    3.578303e+00
  6.148003e+00    3.447924e+00
  6.163879e+00    3.495012e+00
  6.179755e+00    3.494927e+00
  6.195630e+00    3.514271e+00
  6.211506e+00    3.547357e+00
  6.227381e+00    3.545641e+00
  6.243257e+00    3.553174e+00
  6.259132e+00    3.580612e+00
  6.275008e+00    3.559122e+00
  6.290884e+00    3.531092e+00
  6.306759e+00    3.468050e+00
  6.322635e+00    3.494420e+00
  6.338510e+00    3.522179e+00
  6.354386e+00    3.560591e+00
  6.370261e+00    3.503805e+00
  6.386137e+00    3.428098e+00
  6.402013e+00    3.440498e+00
  6.417888e+00    3.527301e+00
  6.433764e+00    3.468713e+00
  6.449639e+00    3.482566e+00
  6.465515e+00    3.568282e+00
  6.481390e+00    3.527529e+00
  6.497266e+00    3.474784e+00
  6.513142e+00    3.543499e+00
  6.529017e+00    3.545310e+00
  6.544893e+00    3.524403e+00
  6.560768e+00    3.504947e+00
  6.576644e+00    3.500013e+00
  6.592519e+00    3.444319e+00
  6.608395e+00    3.483101e+00
  6.624271e+00    3.537400e+00
  6.640146e+00    3.425518e+00
  6.656022e+00    3.410685e+00
  6.671897e+00    3.500983e+00
  6.687773e+00    3.503724e+00
  6.703648e+00    3.476656e+00
  6.719524e+00    3.476996e+00
  6.735400e+00    3.508197e+00
  6.751275e+00    3.472645e+00
  6.767151e+00    3.427867e+00
  6.783026e+00    3.446445e+00
  6.798902e+00    3.505855e+00
  6.814777e+00    3.542979e+00
  6.830653e+00    3.526973e+00
  6.846529e+00    3.445244e+00
  6.862404e+00    3.491643e+00
  6.878280e+00    3.453605e+00
  6.894155e+00    3.503879e+00
  6.910031e+00    3.488508e+00
  6.925907e+00    3.452996e+00
  6.941782e+00    3.457386e+00
  6.957658e+00    3.460240e+00
  6.973533e+00    3.430971e+00
  6.989409e+00    3.478706e+00
  7.005284e+00    3.516162e+00
  7.021160e+00    3.534246e+00
  7.037036e+00    3.526866e+00
  7.052911e+00    3.538671e+00
  7.068787e+00    3.492555e+00
  7.084662e+00    3.415567e+00
  7.100538e+00    3.391403e+00
  7.116413e+00    3.396674e+00
  7.132289e+00    3.415972e+00
  7.148165e+00    3.404294e+00
  7.164040e+00    3.433238e+00
  7.179916e+00    3.452332e+00
  7.195791e+00    3.467930e+00
  7.211667e+00    3.486864e+00
  7.227542e+00    3.490687e+00
  7.243418e+00    3.476552e+00
  7.259294e+00    3.468328e+00
  7.275169e+00    3.458272e+00
  7.291045e+00    3.513952e+00
  7.306920e+00    3.433874e+00
  7.322796e+00    3.494598e+00
  7.338671e+00    3.445842e+00
  7.354547e+00    3.438380e+00
  7.370423e+00    3.416826e+00
  7.386298e+00    3.467215e+00
  7.402174e+00    3.452253e+00
  7.418049e+00    3.473587e+00
  7.433925e+00    3.441601e+00
  7.449800e+00    3.402759e+00
  7.465676e+00    3.424436e+00
  7.481552e+00    3.451076e+00
  7.497427e+00    3.420089e+00
  7.513303e+00    3.460153e+00
  7.529178e+00    3.430444e+00
  7.545054e+00    3.481214e+00
  7.560929e+00    3.483107e+00
  7.576805e+00    3.496436e+00
  7.592681e+00    3.482842e+00
  7.608556e+00    3.453487e+00
  7.624432e+00    3.414981e+00
  7.640307e+00    3.411712e+00
  7.656183e+00    3.465011e+00
  7.672058e+00    3.477835e+00
  7.687934e+00    3.485276e+00
  7.703810e+00    3.435019e+00
  7.719685e+00    3.425339e+00
  7.735561e+00    3.371758e+00
  7.751436e+00    3.429791e+00
  7.767312e+00    3.434818e+00
  7.783187e+00    3.365005e+00
  7.799063e+00    3.344837e+00
  7.814939e+00    3.319942e+00
  7.830814e+00    3.380027e+00
  7.846690e+00    3.436481e+00
  7.862565e+00    3.421823e+00
  7.878441e+00    3.336876e+00
  7.894317e+00    3.316465e+00
  7.910192e+00    3.410610e+00
  7.926068e+00    3.382093e+00
  7.941943e+00    3.421292e+00
  7.957819e+00    3.374071e+00
  7.973694e+00    3.377779e+00
  7.989570e+00    3.347021e+00
  8.005446e+00    3.344783e+00
  8.021321e+00    3.309453e+00
  8.037197e+00    3.379688e+00
  8.053072e+00    3.428402e+00
  8.068948e+00    3.388234e+00
  8.084823e+00    3.291766e+00
  8.100699e+00    3.316395e+00
  8.116575e+00    3.346877e+00
  8.132450e+00    3.430249e+00
  8.148326e+00    3.383878e+00
  8.164201e+00    3.357081e+00
  8.180077e+00    3.388817e+00
  8.195952e+00    3.416622e+00
  8.211828e+00    3.422847e+00
  8.227704e+00    3.361362e+00
  8.243579e+00    3.365950e+00
  8.259455e+00    3.408602e+00
  8.275330e+00    3.397449e+00
  8.291206e+00    3.387065e+00
  8.307081e+00    3.412489e+00
  8.322957e+00    3.398012e+00
  8.338833e+00    3.304011e+00
  8.354708e+00    3.324486e+00
  8.370584e+00    3.304271e+00
  8.386459e+00    3.324190e+00
  8.402335e+00    3.315185e+00
  8.418210e+00    3.321122e+00
  8.434086e+00    3.378289e+00
  8.449962e+00    3.362455e+00
  8.465837e+00    3.352848e+00
  8.481713e+00    3.396257e+00
  8.497588e+00    3.331257e+00
  8.513464e+00    3.307461e+00
  8.529339e+00    3.338039e+00
  8.545215e+00    3.334327e+00
  8.561091e+00    3.307450e+00
  8.576966e+00    3.255260e+00
  8.592842e+00    3.327000e+00
  8.608717e+00    3.381285e+00
  8.624593e+00    3.397294e+00
  8.640468e+00    3.318660e+00
  8.656344e+00    3.267408e+00
  8.672220e+00    3.281009e+00
  8.688095e+00    3.216156e+00
  8.703971e+00    3.304496e+00
  8.719846e+00    3.366881e+00
  8.735722e+00    3.342365e+00
  8.751598e+00    3.304416e+00
  8.767473e+00    3.280625e+00
  8.783349e+00    3.315114e+00
  8.799224e+00    3.301455e+00
  8.815100e+00    3.306034e+00
  8.830975e+00    3.256480e+00
  8.846851e+00    3.229207e+00
  8.862727e+00    3.267588e+00
  8.878602e+00    3.239563e+00
  8.894478e+00    3.191962e+00
  8.910353e+00    3.208142e+00
  8.926229e+00    3.230140e+00
  8.942104e+00    3.240561e+00
  8.957980e+00    3.269458e+00
  8.973856e+00    3.222646e+00
  8.989731e+00    3.194824e+00
  9.005607e+00    3.207587e+00
  9.021482e+00    3.192647e+00
  9.037358e+00    3.203919e+00
  9.053233e+00    3.213128e+00
  9.069109e+00    3.196965e+00
  9.084985e+00    3.266728e+00
  9.100860e+00    3.189418e+00
  9.116736e+00    3.268308e+00
  9.132611e+00    3.284609e+00
  9.148487e+00    3.244635e+00
  9.164362e+00    3.179609e+00
  9.180238e+00    3.175367e+00
  9.196114e+00    3.262153e+00
  9.211989e+00    3.203315e+00
  9.227865e+00    3.164423e+00
  9.243740e+00    3.163020e+00
  9.259616e+00    3.191903e+00
  9.275491e+00    3.218935e+00
  9.291367e+00    3.234213e+00
  9.307243e+00    3.227020e+00
  9.323118e+00    3.188687e+00
  9.338994e+00    3.237649e+00
  9.354869e+00    3.177213e+00
  9.370745e+00    3.058980e+00
  9.386620e+00    3.143807e+00
  9.402496e+00    3.157551e+00
  9.418372e+00    3.109600e+00
  9.434247e+00    3.141086e+00
  9.450123e+00    3.141852e+00
  9.465998e+00    3.150670e+00
  9.481874e+00    3.192208e+00
  9.497749e+00    3.148707e+00
  9.513625e+00    3.169663e+00
  9.529501e+00    3.174914e+00
  9.545376e+00    3.174375e+00
  9.561252e+00    3.161419e+00
  9.577127e+00    3.127689e+00
  9.593003e+00    3.194528e+00
  9.608878e+00    3.162881e+00
  9.624754e+00    3.132912e+00
  9.640630e+00    3.123144e+00
  9.656505e+00    3.152766e+00
  9.672381e+00    3.141615e+00
  9.688256e+00    3.099550e+00
  9.704132e+00    3.122991e+00
  9.720008e+00    3.176225e+00
  9.735883e+00    3.182827e+00
  9.751759e+00    3.113536e+00
  9.767634e+00    3.152921e+00
  9.783510e+00    3.182405e+00
  9.799385e+00    3.128611e+00
  9.815261e+00    3.053277e+00
  9.831137e+00    3.036841e+00
  9.847012e+00    3.087284e+00
  9.862888e+00    3.140968e+00
  9.878763e+00    3.138864e+00
  9.894639e+00    3.083080e+00
  9.910514e+00    3.125940e+00
  9.926390e+00    3.108855e+00
  9.942266e+00    3.122863e+00
  9.958141e+00    3.073011e+00
  9.974017e+00    3.147754e+00
  9.989892e+00    3.112391e+00
  1.000577e+01    3.085384e+00
  1.002164e+01    3.101062e+00
  1.003752e+01    3.095727e+00
  1.005339e+01    3.062550e+00
  1.006927e+01    3.093601e+00
  1.008515e+01    3.044743e+00
  1.010102e+01    2.996811e+00
  1.011690e+01    3.022479e+00
  1.013277e+01    3.009380e+00
  1.014865e+01    3.049384e+00
  1.016452e+01    3.009856e+00
  1.018040e+01    2.971072e+00
  1.019627e+01    2.965253e+00
  1.021215e+01    3.048056e+00
  1.022803e+01    3.047860e+00
  1.024390e+01    3.080126e+00
  1.025978e+01    3.026103e+00
  1.027565e+01    3.026880e+00
  1.029153e+01    2.976014e+00
  1.030740e+01    2.948954e+00
  1.032328e+01    2.982266e+00
  1.033915e+01    3.029906e+00
  1.035503e+01    3.029604e+00
  1.037091e+01    3.020149e+00
  1.038678e+01    3.011649e+00
  1.040266e+01    2.977910e+00
  1.041853e+01    2.986404e+00
  1.043441e+01    3.011946e+00
  1.045028e+01    2.987665e+00
  1.046616e+01    2.975300e+00
  1.048204e+01    3.024155e+00
  1.049791e+01    3.035468e+00
  1.051379e+01    3.029695e+00
  1.052966e+01    2.958195e+00
  1.054554e+01    2.937841e+00
  1.056141e+01    2.938716e+00
  1.057729e+01    2.955399e+00
  1.059316e+01    2.979621e+00
  1.060904e+01    2.978869e+00
  1.062492e+01    2.962184e+00
  1.064079e+01    2.941885e+00
  1.065667e+01    2.923541e+00
  1.067254e+01    2.895836e+00
  1.068842e+01    2.857066e+00
  1.070429e+01    2.913956e+00
  1.072017e+01    2.902479e+00
  1.073604e+01    2.934701e+00
  1.075192e+01    2.965975e+00
  1.076780e+01    2.938097e+00
  1.078367e+01    2.908527e+00
  1.079955e+01    2.869458e+00
  1.081542e+01    2.965095e+00
  1.083130e+01    2.905708e+00
  1.084717e+01    2.886678e+00
  1.086305e+01    2.902793e+00
  1.087892e+01    2.869130e+00
  1.089480e+01    2.931924e+00
  1.091068e+01    2.922439e+00
  1.092655e+01    2.904727e+00
  1.094243e+01    2.879380e+00
  1.095830e+01    2.867101e+00
  1.097418e+01    2.844077e+00
  1.099005e+01    2.855736e+00
  1.100593e+01    2.828789e+00
  1.102180e+01    2.848356e+00
  1.103768e+01    2.772756e+00
  1.105356e+01    2.804216e+00
  1.106943e+01    2.886917e+00
  1.108531e+01    2.876677e+00
  1.110118e+01    2.867797e+00
  1.111706e+01    2.806520e+00
  1.113293e+01    2.810186e+00
  1.114881e+01    2.843252e+00
  1.116468e+01    2.884880e+00
  1.118056e+01    2.852001e+00
  1.119644e+01    2.802941e+00
  1.121231e+01    2.790186e+00
  1.122819e+01    2.810876e+00
  1.124406e+01    2.809031e+00
  1.125994e+01    2.846713e+00
  1.127581e+01    2.874956e+00
  1.129169e+01    2.838729e+00
  1.130756e+01    2.794502e+00
  1.132344e+01    2.783984e+00
  1.133932e+01    2.781969e+00
  1.135519e+01    2.825201e+00
  1.137107e+01    2.762504e+00
  1.138694e+01    2.725677e+00
  1.140282e+01    2.759330e+00
  1.141869e+01    2.801065e+00
  1.143457e+01    2.798429e+00
  1.145045e+01    2.782984e+00
  1.146632e+01    2.768995e+00
  1.148220e+01    2.727627e+00
  1.149807e+01    2.724344e+00
  1.151395e+01    2.756811e+00
  1.152982e+01    2.749860e+00
  1.154570e+01    2.778413e+00
  1.156157e+01    2.748738e+00
  1.157745e+01    2.725754e+00
  1.159333e+01    2.731148e+00
  1.160920e+01    2.739291e+00
  1.162508e+01    2.763223e+00
  1.164095e+01    2.726195e+00
  1.165683e+01    2.703889e+00
  1.167270e+01    2.708094e+00
  1.168858e+01    2.767756e+00
  1.170445e+01    2.729745e+00
  1.172033e+01    2.689450e+00
  1.173621e+01    2.717793e+00
  1.175208e+01    2.703680e+00
  1.176796e+01    2.673141e+00
  1.178383e+01    2.733063e+00
  1.179971e+01    2.722470e+00
  1.181558e+01    2.726666e+00
  1.183146e+01    2.704787e+00
  1.184733e+01    2.690231e+00
  1.186321e+01    2.693028e+00
  1.187909e+01    2.725487e+00
  1.189496e+01    2.714769e+00
  1.191084e+01    2.663948e+00
  1.192671e+01    2.685604e+00
  1.194259e+01    2.682734e+00
  1.195846e+01    2.699572e+00
  1.197434e+01    2.688862e+00
  1.199021e+01    2.641750e+00
  1.200609e+01    2.659641e+00
  1.202197e+01    2.656320e+00
  1.203784e+01    2.656462e+00
  1.205372e+01    2.643565e+00
  1.206959e+01    2.611542e+00
  1.208547e+01    2.644161e+00
  1.210134e+01    2.740416e+00
  1.211722e+01    2.641082e+00
  1.213309e+01    2.626865e+00
  1.214897e+01    2.678641e+00
  1.216485e+01    2.660227e+00
  1.218072e+01    2.639810e+00
  1.219660e+01    2.633683e+00
  1.221247e+01    2.615827e+00
  1.222835e+01    2.616297e+00
  1.224422e+01    2.648237e+00
  1.226010e+01    2.670419e+00
  1.227597e+01    2.648620e+00
  1.229185e+01    2.647197e+00
  1.230773e+01    2.650191e+00
  1.232360e+01    2.631579e+00
  1.233948e+01    2.651714e+00
  1.235535e+01    2.679060e+00
  1.237123e+01    2.677400e+00
  1.238710e+01    2.658240e+00
  1.240298e+01    2.657381e+00
  1.241886e+01    2.667945e+00
  1.243473e+01    2.653831e+00
  1.245061e+01    2.641870e+00
  1.246648e+01    2.624883e+00
  1.248236e+01    2.702810e+00
  1.249823e+01    2.708412e+00
  1.251411e+01    2.704932e+00
  1.252998e+01    2.675931e+00
  1.254586e+01    2.676496e+00
  1.256174e+01    2.646877e+00
  1.257761e+01    2.647635e+00
  1.259349e+01    2.719229e+00
  1.260936e+01    2.697648e+00
  1.262524e+01    2.733527e+00
  1.264111e+01    2.807159e+00
  1.265699e+01    2.758782e+00
  1.267286e+01    2.728139e+00
  1.268874e+01    2.747652e+00
  1.270462e+01    2.762139e+00
  1.272049e+01    2.786034e+00
  1.273637e+01    2.775324e+00
  1.275224e+01    2.846053e+00
  1.276812e+01    2.916975e+00
  1.278399e+01    2.885557e+00
  1.279987e+01    2.936044e+00
  1.281574e+01    3.001456e+00
  1.283162e+01    3.049937e+00
  1.284750e+01    3.177556e+00
  1.286337e+01    3.247839e+00
  1.287925e+01    3.318468e+00
  1.289512e+01    3.446153e+00
  1.291100e+01    3.620167e+00
  1.292687e+01    3.833550e+00
  1.294275e+01    4.034250e+00
  1.295862e+01    4.308987e+00
  1.297450e+01    4.676917e+00
  1.299038e+01    5.222417e+00
  1.300625e+01    5.823685e+00
  1.302213e+01    6.593863e+00
  1.303800e+01    7.554567e+00
  1.305388e+01    8.751392e+00
  1.306975e+01    9.980162e+00
  1.308563e+01    1.127871e+01
  1.310150e+01    1.247100e+01
  1.311738e+01    1.356829e+01
  1.313326e+01    1.466237e+01
  1.314913e+01    1.558398e+01
  1.316501e+01    1.609236e+01
  1.318088e+01    1.600532e+01
  1.319676e+01    1.538485e+01
  1.321263e+01    1.394484e+01
  1.322851e+01    1.223375e+01
  1.324438e+01    1.050552e+01
  1.326026e+01    8.938613e+00
  1.327614e+01    7.735370e+00
  1.329201e+01    6.665520e+00
  1.330789e+01    5.812985e+00
  1.332376e+01    5.238292e+00
  1.333964e+01    4.746561e+00
  1.335551e+01    4.428429e+00
  1.337139e+01    4.075873e+00
  1.338727e+01    3.790697e+00
  1.340314e+01    3.625956e+00
  1.341902e+01    3.416528e+00
  1.343489e+01    3.295572e+00
  1.345077e+01    3.145576e+00
  1.346664e+01    3.036008e+00
  1.348252e+01    3.044653e+00
  1.349839e+01    2.940481e+00
  1.351427e+01    2.841524e+00
  1.353015e+01    2.795894e+00
  1.354602e+01    2.757452e+00
  1.356190e+01    2.733039e+00
  1.357777e+01    2.664555e+00
  1.359365e+01    2.678617e+00
  1.360952e+01    2.645773e+00
  1.362540e+01    2.636807e+00
  1.364127e+01    2.641523e+00
  1.365715e+01    2.545719e+00
  1.367303e+01    2.525190e+00
  1.368890e+01    2.553817e+00
  1.370478e+01    2.561230e+00
  1.372065e+01    2.500065e+00
  1.373653e+01    2.481910e+00
  1.375240e+01    2.504513e+00
  1.376828e+01    2.506037e+00
  1.378415e+01    2.460942e+00
  1.380003e+01    2.410009e+00
  1.381591e+01    2.368698e+00
  1.383178e+01    2.403334e+00
  1.384766e+01    2.372163e+00
  1.386353e+01    2.379552e+00
  1.387941e+01    2.391173e+00
  1.389528e+01    2.368348e+00
  1.391116e+01    2.375031e+00
  1.392703e+01    2.386223e+00
  1.394291e+01    2.324402e+00
  1.395879e+01    2.331263e+00
  1.397466e+01    2.330389e+00
  1.399054e+01    2.385893e+00
  1.400641e+01    2.343185e+00
  1.402229e+01    2.334248e+00
  1.403816e+01    2.334379e+00
  1.405404e+01    2.305419e+00
  1.406991e+01    2.333505e+00
  1.408579e+01    2.306880e+00
  1.410167e+01    2.327755e+00
  1.411754e+01    2.311996e+00
  1.413342e+01    2.274075e+00
  1.414929e+01    2.282918e+00
  1.416517e+01    2.290612e+00
  1.418104e+01    2.293148e+00
  1.419692e+01    2.244335e+00
  1.421279e+01    2.254353e+00
  1.422867e+01    2.279758e+00
  1.424455e+01    2.239225e+00
  1.426042e+01    2.222540e+00
  1.427630e+01    2.251588e+00
  1.429217e+01    2.239900e+00
  1.430805e+01    2.234957e+00
  1.432392e+01    2.252730e+00
  1.433980e+01    2.234264e+00
  1.435568e+01    2.245425e+00
  1.437155e+01    2.235443e+00
  1.438743e+01    2.229016e+00
  1.440330e+01    2.245610e+00
  1.441918e+01    2.239548e+00
  1.443505e+01    2.210124e+00
  1.445093e+01    2.220355e+00
  1.446680e+01    2.187330e+00
  1.448268e+01    2.221836e+00
  1.449856e+01    2.249681e+00
  1.451443e+01    2.221926e+00
  1.453031e+01    2.215847e+00
  1.454618e+01    2.166083e+00
  1.456206e+01    2.169142e+00
  1.457793e+01    2.191568e+00
  1.459381e+01    2.199053e+00
  1.460968e+01    2.156696e+00
  1.462556e+01    2.205598e+00
  1.464144e+01    2.228173e+00
  1.465731e+01    2.213215e+00
  1.467319e+01    2.157163e+00
  1.468906e+01    2.173244e+00
  1.470494e+01    2.177696e+00
  1.472081e+01    2.174491e+00
  1.473669e+01    2.174215e+00
  1.475256e+01    2.162493e+00
  1.476844e+01    2.193643e+00
  1.478432e+01    2.194278e+00
  1.480019e+01    2.149960e+00
  1.481607e+01    2.206566e+00
  1.483194e+01    2.159613e+00
  1.484782e+01    2.178492e+00
  1.486369e+01    2.219002e+00
  1.487957e+01    2.231432e+00
  1.489544e+01    2.220167e+00
  1.491132e+01    2.198279e+00
  1.492720e+01    2.214241e+00
  1.494307e+01    2.232255e+00
  1.495895e+01    2.249103e+00
  1.497482e+01    2.285713e+00
  1.499070e+01    2.337170e+00
  1.500657e+01    2.383480e+00
  1.502245e+01    2.490579e+00
  1.503832e+01    2.539723e+00
  1.505420e+01    2.634239e+00
  1.507008e+01    2.772889e+00
  1.508595e+01    2.968725e+00
  1.510183e+01    3.142714e+00
  1.511770e+01    3.434648e+00
  1.513358e+01    3.759609e+00
  1.514945e+01    4.096295e+00
  1.516533e+01    4.440802e+00
  1.518120e+01    4.787724e+00
  1.519708e+01    5.097435e+00
  1.521296e+01    5.383705e+00
  1.522883e+01    5.543880e+00
  1.524471e+01    5.635098e+00
  1.526058e+01    5.640583e+00
  1.527646e+01    5.645763e+00
  1.529233e+01    5.357546e+00
  1.530821e+01    5.020329e+00
  1.532409e+01    4.627137e+00
  1.533996e+01    4.163597e+00
  1.535584e+01    3.700358e+00
  1.537171e+01    3.394780e+00
  1.538759e+01    3.148642e+00
  1.540346e+01    2.876230e+00
  1.541934e+01    2.722535e+00
  1.543521e+01    2.572125e+00
  1.545109e+01    2.439342e+00
  1.546697e+01    2.404886e+00
  1.548284e+01    2.347353e+00
  1.549872e+01    2.266493e+00
  1.551459e+01    2.212710e+00
  1.553047e+01    2.181059e+00
  1.554634e+01    2.135064e+00
  1.556222e+01    2.105190e+00
  1.557809e+01    2.069210e+00
  1.559397e+01    2.050156e+00
  1.560985e+01    2.029041e+00
  1.562572e+01    2.013725e+00
  1.564160e+01    2.010708e+00
  1.565747e+01    2.002404e+00
  1.567335e+01    1.992868e+00
  1.568922e+01    1.946684e+00
  1.570510e+01    1.966276e+00
  1.572097e+01    1.973067e+00
  1.573685e+01    1.976774e+00
  1.575273e+01    1.934740e+00
  1.576860e+01    1.881644e+00
  1.578448e+01    1.917182e+00
  1.580035e+01    1.928809e+00
  1.581623e+01    1.903203e+00
  1.583210e+01    1.904816e+00
  1.584798e+01    1.914195e+00
  1.586385e+01    1.890894e+00
  1.587973e+01    1.874386e+00
  1.589561e+01    1.897332e+00
  1.591148e+01    1.859199e+00
  1.592736e+01    1.893050e+00
  1.594323e+01    1.866951e+00
  1.595911e+01    1.883612e+00
  1.597498e+01    1.861876e+00
  1.599086e+01    1.816356e+00
  1.600673e+01    1.840612e+00
  1.602261e+01    1.840705e+00
  1.603849e+01    1.845183e+00
  1.605436e+01    1.850213e+00
  1.607024e+01    1.813833e+00
  1.608611e+01    1.830559e+00
  1.610199e+01    1.805233e+00
  1.611786e+01    1.816488e+00
  1.613374e+01    1.827518e+00
  1.614961e+01    1.819985e+00
  1.616549e+01    1.826646e+00
  1.618137e+01    1.810452e+00
  1.619724e+01    1.785326e+00
  1.621312e+01    1.800835e+00
  1.622899e+01    1.789350e+00
  1.624487e+01    1.793925e+00
  1.626074e+01    1.785746e+00
  1.627662e+01    1.750767e+00
  1.629250e+01    1.754134e+00
  1.630837e+01    1.779509e+00
  1.632425e+01    1.782446e+00
  1.634012e+01    1.777912e+00
  1.635600e+01    1.758041e+00
  1.637187e+01    1.727536e+00
  1.638775e+01    1.745418e+00
  1.640362e+01    1.788472e+00
  1.641950e+01    1.774409e+00
  1.643538e+01    1.730308e+00
  1.645125e+01    1.727803e+00
  1.646713e+01    1.730235e+00
  1.648300e+01    1.728111e+00
  1.649888e+01    1.738625e+00
  1.651475e+01    1.711998e+00
  1.653063e+01    1.675534e+00
  1.654650e+01    1.694958e+00
  1.656238e+01    1.730919e+00
  1.657826e+01    1.700264e+00
  1.659413e+01    1.692864e+00
  1.661001e+01    1.708826e+00
  1.662588e+01    1.691725e+00
  1.664176e+01    1.698689e+00
  1.665763e+01    1.688556e+00
  1.667351e+01    1.678727e+00
  1.668938e+01    1.676888e+00
  1.670526e+01    1.672844e+00
  1.672114e+01    1.688164e+00
  1.673701e+01    1.696249e+00
  1.675289e+01    1.693962e+00
  1.676876e+01    1.675101e+00
  1.678464e+01    1.675521e+00
  1.680051e+01    1.648862e+00
  1.681639e+01    1.641859e+00
  1.683226e+01    1.683285e+00
  1.684814e+01    1.671044e+00
  1.686402e+01    1.656746e+00
  1.687989e+01    1.649392e+00
  1.689577e+01    1.672747e+00
  1.691164e+01    1.675158e+00
  1.692752e+01    1.691142e+00
  1.694339e+01    1.678754e+00
  1.695927e+01    1.666455e+00
  1.697514e+01    1.630334e+00
  1.699102e+01    1.638002e+00
  1.700690e+01    1.650999e+00
  1.702277e+01    1.627354e+00
  1.703865e+01    1.633939e+00
  1.705452e+01    1.644939e+00
  1.707040e+01    1.611712e+00
  1.708627e+01    1.608174e+00
  1.710215e+01    1.620558e+00
  1.711802e+01    1.641189e+00
  1.713390e+01    1.611588e+00
  1.714978e+01    1.598381e+00
  1.716565e+01    1.630760e+00
  1.718153e+01    1.611319e+00
  1.719740e+01    1.578544e+00
  1.721328e+01    1.629881e+00
  1.722915e+01    1.600739e+00
  1.724503e+01    1.593806e+00
  1.726091e+01    1.597659e+00
  1.727678e+01    1.583701e+00
  1.729266e+01    1.604154e+00
  1.730853e+01    1.624408e+00
  1.732441e+01    1.586537e+00
  1.734028e+01    1.597391e+00
  1.735616e+01    1.608570e+00
  1.737203e+01    1.566431e+00
  1.738791e+01    1.533287e+00
  1.740379e+01    1.540282e+00
  1.741966e+01    1.581615e+00
  1.743554e+01    1.552110e+00
  1.745141e+01    1.569219e+00
  1.746729e+01    1.581697e+00
  1.748316e+01    1.563096e+00
  1.749904e+01    1.549871e+00
  1.751491e+01    1.580183e+00
  1.753079e+01    1.564954e+00
  1.754667e+01    1.552498e+00
  1.756254e+01    1.543694e+00
  1.757842e+01    1.535804e+00
  1.759429e+01    1.560352e+00
  1.761017e+01    1.521258e+00
  1.762604e+01    1.564956e+00
  1.764192e+01    1.565608e+00
  1.765779e+01    1.573910e+00
  1.767367e+01    1.524436e+00
  1.768955e+01    1.495449e+00
  1.770542e+01    1.535959e+00
  1.772130e+01    1.575551e+00
  1.773717e+01    1.542958e+00
  1.775305e+01    1.495592e+00
  1.776892e+01    1.501568e+00
  1.778480e+01    1.516675e+00
  1.780067e+01    1.509792e+00
  1.781655e+01    1.492476e+00
  1.783243e+01    1.481082e+00
  1.784830e+01    1.503219e+00
  1.786418e+01    1.509128e+00
  1.788005e+01    1.479920e+00
  1.789593e+01    1.523562e+00
  1.791180e+01    1.524609e+00
  1.792768e+01    1.516032e+00
  1.794355e+01    1.496783e+00
  1.795943e+01    1.485364e+00
  1.797531e+01    1.495817e+00
  1.799118e+01    1.477827e+00
  1.800706e+01    1.496841e+00
  1.802293e+01    1.476646e+00
  1.803881e+01    1.476436e+00
  1.805468e+01    1.476389e+00
  1.807056e+01    1.467150e+00
  1.808643e+01    1.486789e+00
  1.810231e+01    1.479956e+00
  1.811819e+01    1.458146e+00
  1.813406e+01    1.424830e+00
  1.814994e+01    1.450941e+00
  1.816581e+01    1.454419e+00
  1.818169e+01    1.468074e+00
  1.819756e+01    1.462968e+00
  1.821344e+01    1.472696e+00
  1.822932e+01    1.447229e+00
  1.824519e+01    1.434786e+00
  1.826107e+01    1.429546e+00
  1.827694e+01    1.432366e+00
  1.829282e+01    1.422090e+00
  1.830869e+01    1.432562e+00
  1.832457e+01    1.462519e+00
  1.834044e+01    1.447242e+00
  1.835632e+01    1.440023e+00
  1.837220e+01    1.437994e+00
  1.838807e+01    1.416561e+00
  1.840395e+01    1.413498e+00
  1.841982e+01    1.420912e+00
  1.843570e+01    1.411605e+00
  1.845157e+01    1.417626e+00
  1.846745e+01    1.442816e+00
  1.848332e+01    1.442466e+00
  1.849920e+01    1.418850e+00
  1.851508e+01    1.434018e+00
  1.853095e+01    1.448249e+00
  1.854683e+01    1.410387e+00
  1.856270e+01    1.411392e+00
  1.857858e+01    1.440194e+00
  1.859445e+01    1.411976e+00
  1.861033e+01    1.406585e+00
  1.862620e+01    1.425771e+00
  1.864208e+01    1.382615e+00
  1.865796e+01    1.383776e+00
  1.867383e+01    1.423522e+00
  1.868971e+01    1.436643e+00
  1.870558e+01    1.403919e+00
  1.872146e+01    1.419930e+00
  1.873733e+01    1.410478e+00
  1.875321e+01    1.391656e+00
  1.876908e+01    1.369110e+00
  1.878496e+01    1.383949e+00
  1.880084e+01    1.378535e+00
  1.881671e+01    1.395683e+00
  1.883259e+01    1.379746e+00
  1.884846e+01    1.356369e+00
  1.886434e+01    1.373258e+00
  1.888021e+01    1.376820e+00
  1.889609e+01    1.369027e+00
  1.891196e+01    1.366072e+00
  1.892784e+01    1.364550e+00
  1.894372e+01    1.385699e+00
  1.895959e+01    1.394231e+00
  1.897547e+01    1.383696e+00
  1.899134e+01    1.394353e+00
  1.900722e+01    1.372498e+00
  1.902309e+01    1.359697e+00
  1.903897e+01    1.343738e+00
  1.905484e+01    1.362794e+00
  1.907072e+01    1.378871e+00
  1.908660e+01    1.366999e+00
  1.910247e+01    1.356397e+00
  1.911835e+01    1.368710e+00
  1.913422e+01    1.358271e+00
  1.915010e+01    1.358656e+00
  1.916597e+01    1.363377e+00
  1.918185e+01    1.363823e+00
  1.919773e+01    1.377863e+00
  1.921360e+01    1.348793e+00
  1.922948e+01    1.343751e+00
  1.924535e+01    1.341540e+00
  1.926123e+01    1.333199e+00
  1.927710e+01    1.337616e+00
  1.929298e+01    1.321638e+00
  1.930885e+01    1.341853e+00
  1.932473e+01    1.319601e+00
  1.934061e+01    1.288106e+00
  1.935648e+01    1.305754e+00
  1.937236e+01    1.311568e+00
  1.938823e+01    1.324044e+00
  1.940411e+01    1.324976e+00
  1.941998e+01    1.309776e+00
  1.943586e+01    1.316314e+00
  1.945173e+01    1.292998e+00
  1.946761e+01    1.335832e+00
  1.948349e+01    1.321250e+00
  1.949936e+01    1.318636e+00
  1.951524e+01    1.318481e+00
  1.953111e+01    1.300280e+00
  1.954699e+01    1.276595e+00
  1.956286e+01    1.291457e+00
  1.957874e+01    1.295957e+00
  1.959461e+01    1.316901e+00
  1.961049e+01    1.313989e+00
  1.962637e+01    1.313768e+00
  1.964224e+01    1.306623e+00
  1.965812e+01    1.303328e+00
  1.967399e+01    1.308785e+00
  1.968987e+01    1.303720e+00
  1.970574e+01    1.278848e+00
  1.972162e+01    1.279421e+00
  1.973749e+01    1.297955e+00
  1.975337e+01    1.295143e+00
  1.976925e+01    1.301028e+00
  1.978512e+01    1.326030e+00
  1.980100e+01    1.312681e+00
  1.981687e+01    1.265622e+00
  1.983275e+01    1.282411e+00
  1.984862e+01    1.273438e+00
  1.986450e+01    1.264106e+00
  1.988037e+01    1.291740e+00
  1.989625e+01    1.300423e+00
  1.991213e+01    1.282480e+00
  1.992800e+01    1.247783e+00
  1.994388e+01    1.288161e+00
  1.995975e+01    1.281803e+00
  1.997563e+01    1.277619e+00
  1.999150e+01    1.251098e+00
  2.000738e+01    1.282562e+00
  2.002325e+01    1.276601e+00
  2.003913e+01    1.259513e+00
  2.005501e+01    1.266722e+00
  2.007088e+01    1.277350e+00
  2.008676e+01    1.297908e+00
  2.010263e+01    1.265158e+00
  2.011851e+01    1.258512e+00
  2.013438e+01    1.248454e+00
  2.015026e+01    1.237643e+00
  2.016614e+01    1.268971e+00
  2.018201e+01    1.242052e+00
  2.019789e+01    1.259728e+00
  2.021376e+01    1.251874e+00
  2.022964e+01    1.250817e+00
  2.024551e+01    1.259205e+00
  2.026139e+01    1.240878e+00
  2.027726e+01    1.252860e+00
  2.029314e+01    1.245217e+00
  2.030902e+01    1.248841e+00
  2.032489e+01    1.227225e+00
  2.034077e+01    1.223051e+00
  2.035664e+01    1.243845e+00
  2.037252e+01    1.244027e+00
  2.038839e+01    1.221727e+00
  2.040427e+01    1.233018e+00
  2.042014e+01    1.209863e+00
  2.043602e+01    1.213651e+00
  2.045190e+01    1.218728e+00
  2.046777e+01    1.207416e+00
  2.048365e+01    1.207840e+00
  2.049952e+01    1.205958e+00
  2.051540e+01    1.232704e+00
  2.053127e+01    1.261037e+00
  2.054715e+01    1.238756e+00
  2.056302e+01    1.221050e+00
  2.057890e+01    1.208332e+00
  2.059478e+01    1.217058e+00
  2.061065e+01    1.214668e+00
  2.062653e+01    1.220438e+00
  2.064240e+01    1.216204e+00
  2.065828e+01    1.212435e+00
  2.067415e+01    1.219023e+00
  2.069003e+01    1.211687e+00
  2.070590e+01    1.207691e+00
  2.072178e+01    1.215891e+00
  2.073766e+01    1.206460e+00
  2.075353e+01    1.236389e+00
  2.076941e+01    1.228876e+00
  2.078528e+01    1.210178e+00
  2.080116e+01    1.195036e+00
  2.081703e+01    1.186710e+00
  2.083291e+01    1.201206e+00
  2.084878e+01    1.219011e+00
  2.086466e+01    1.230261e+00
  2.088054e+01    1.218022e+00
  2.089641e+01    1.212152e+00
  2.091229e+01    1.205431e+00
  2.092816e+01    1.202644e+00
  2.094404e+01    1.213597e+00
  2.095991e+01    1.221743e+00
  2.097579e+01    1.199887e+00
  2.099166e+01    1.216505e+00
  2.100754e+01    1.222484e+00
  2.102342e+01    1.209919e+00
  2.103929e+01    1.195508e+00
  2.105517e+01    1.200336e+00
  2.107104e+01    1.188093e+00
  2.108692e+01    1.207831e+00
  2.110279e+01    1.176494e+00
  2.111867e+01    1.181916e+00
  2.113455e+01    1.216272e+00
  2.115042e+01    1.234614e+00
  2.116630e+01    1.236407e+00
  2.118217e+01    1.211263e+00
  2.119805e+01    1.218093e+00
  2.121392e+01    1.238392e+00
  2.122980e+01    1.229005e+00
  2.124567e+01    1.244549e+00
  2.126155e+01    1.241539e+00
  2.127743e+01    1.247500e+00
  2.129330e+01    1.272620e+00
  2.130918e+01    1.255840e+00
  2.132505e+01    1.273251e+00
  2.134093e+01    1.282113e+00
  2.135680e+01    1.273909e+00
  2.137268e+01    1.277207e+00
  2.138855e+01    1.277045e+00
  2.140443e+01    1.300841e+00
  2.142031e+01    1.330924e+00
  2.143618e+01    1.323217e+00
  2.145206e+01    1.339905e+00
  2.146793e+01    1.340835e+00
  2.148381e+01    1.375989e+00
  2.149968e+01    1.397051e+00
  2.151556e+01    1.446121e+00
  2.153143e+01    1.456316e+00
  2.154731e+01    1.479591e+00
  2.156319e+01    1.523497e+00
  2.157906e+01    1.578991e+00
  2.159494e+01    1.707293e+00
  2.161081e+01    1.749128e+00
  2.162669e+01    1.836877e+00
  2.164256e+01    1.937183e+00
  2.165844e+01    2.077433e+00
  2.167431e+01    2.265041e+00
  2.169019e+01    2.465615e+00
  2.170607e+01    2.695128e+00
  2.172194e+01    3.056190e+00
  2.173782e+01    3.456292e+00
  2.175369e+01    3.973779e+00
  2.176957e+01    4.542760e+00
  2.178544e+01    5.127039e+00
  2.180132e+01    5.758370e+00
  2.181719e+01    6.367189e+00
  2.183307e+01    6.998923e+00
  2.184895e+01    7.659921e+00
  2.186482e+01    8.209966e+00
  2.188070e+01    8.648571e+00
  2.189657e+01    8.828808e+00
  2.191245e+01    8.743974e+00
  2.192832e+01    8.161664e+00
  2.194420e+01    7.386684e+00
  2.196007e+01    6.473814e+00
  2.197595e+01    5.654507e+00
  2.199183e+01    4.798299e+00
  2.200770e+01    4.145019e+00
  2.202358e+01    3.532009e+00
  2.203945e+01    3.132838e+00
  2.205533e+01    2.816226e+00
  2.207120e+01    2.502209e+00
  2.208708e+01    2.291909e+00
  2.210296e+01    2.139157e+00
  2.211883e+01    1.994549e+00
  2.213471e+01    1.877616e+00
  2.215058e+01    1.748897e+00
  2.216646e+01    1.661505e+00
  2.218233e+01    1.600404e+00
  2.219821e+01    1.525632e+00
  2.221408e+01    1.476419e+00
  2.222996e+01    1.430140e+00
  2.224584e+01    1.379873e+00
  2.226171e+01    1.352621e+00
  2.227759e+01    1.336581e+00
  2.229346e+01    1.264822e+00
  2.230934e+01    1.258585e+00
  2.232521e+01    1.248557e+00
  2.234109e+01    1.221740e+00
  2.235696e+01    1.213573e+00
  2.237284e+01    1.158520e+00
  2.238872e+01    1.186326e+00
  2.240459e+01    1.183395e+00
  2.242047e+01    1.183608e+00
  2.243634e+01    1.153793e+00
  2.245222e+01    1.143208e+00
  2.246809e+01    1.159418e+00
  2.248397e+01    1.142328e+00
  2.249984e+01    1.143627e+00
  2.251572e+01    1.133406e+00
  2.253160e+01    1.120145e+00
  2.254747e+01    1.116482e+00
  2.256335e+01    1.093220e+00
  2.257922e+01    1.064555e+00
  2.259510e+01    1.077989e+00
  2.261097e+01    1.079523e+00
  2.262685e+01    1.067577e+00
  2.264272e+01    1.071741e+00
  2.265860e+01    1.070774e+00
  2.267448e+01    1.082634e+00
  2.269035e+01    1.052351e+00
  2.270623e+01    1.056486e+00
  2.272210e+01    1.062933e+00
  2.273798e+01    1.084014e+00
  2.275385e+01    1.039103e+00
  2.276973e+01    1.030930e+00
  2.278560e+01    1.045730e+00
  2.280148e+01    1.038483e+00
  2.281736e+01    1.042491e+00
  2.283323e+01    1.035867e+00
  2.284911e+01    1.032664e+00
  2.286498e+01    1.026855e+00
  2.288086e+01    1.019380e+00
  2.289673e+01    1.023244e+00
  2.291261e+01    1.033701e+00
  2.292848e+01    1.005437e+00
  2.294436e+01    1.014822e+00
  2.296024e+01    1.038343e+00
  2.297611e+01    1.008924e+00
  2.299199e+01    9.832214e-01
  2.300786e+01    1.009796e+00
  2.302374e+01    1.002089e+00
  2.303961e+01    1.006922e+00
  2.305549e+01    9.921258e-01
  2.307137e+01    9.801304e-01
  2.308724e+01    9.759337e-01
  2.310312e+01    9.736068e-01
  2.311899e+01    9.791595e-01
  2.313487e+01    9.927505e-01
  2.315074e+01    9.801098e-01
  2.316662e+01    9.442345e-01
  2.318249e+01    9.776500e-01
  2.319837e+01    9.937746e-01
  2.321425e+01    9.795216e-01
  2.323012e+01    9.698862e-01
  2.324600e+01    9.743083e-01
  2.326187e+01    9.701942e-01
  2.327775e+01    9.331910e-01
  2.329362e+01    9.329698e-01
  2.330950e+01    9.439059e-01
  2.332537e+01    9.472587e-01
  2.334125e+01    9.729251e-01
  2.335713e+01    9.564754e-01
  2.337300e+01    9.533636e-01
  2.338888e+01    9.849720e-01
  2.340475e+01    9.746026e-01
  2.342063e+01    9.349393e-01
  2.343650e+01    9.370887e-01
  2.345238e+01    9.344909e-01
  2.346825e+01    9.558744e-01
  2.348413e+01    9.578859e-01
  2.350001e+01    9.495697e-01
  2.351588e+01    9.580787e-01
  2.353176e+01    9.609432e-01
  2.354763e+01    9.516124e-01
  2.356351e+01    9.453619e-01
  2.357938e+01    9.353493e-01
  2.359526e+01    9.422992e-01
  2.361113e+01    9.322567e-01
  2.362701e+01    9.559487e-01
  2.364289e+01    9.404284e-01
  2.365876e+01    9.260516e-01
  2.367464e+01    9.367342e-01
  2.369051e+01    9.240518e-01
  2.370639e+01    9.127039e-01
  2.372226e+01    9.341894e-01
  2.373814e+01    9.527854e-01
  2.375401e+01    9.334804e-01
  2.376989e+01    9.104908e-01
  2.378577e+01    9.001533e-01
  2.380164e+01    9.059607e-01
  2.381752e+01    9.076258e-01
  2.383339e+01    9.082418e-01
  2.384927e+01    9.125507e-01
  2.386514e+01    9.125367e-01
  2.388102e+01    8.929735e-01
  2.389689e+01    9.147344e-01
  2.391277e+01    9.146384e-01
  2.392865e+01    8.879300e-01
  2.394452e+01    8.906806e-01
  2.396040e+01    8.995804e-01
  2.397627e+01    9.218304e-01
  2.399215e+01    9.144583e-01
  2.400802e+01    9.155225e-01
  2.402390e+01    8.798653e-01
  2.403978e+01    8.925128e-01
  2.405565e+01    8.895710e-01
  2.407153e+01    8.699237e-01
  2.408740e+01    8.672496e-01
  2.410328e+01    8.771583e-01
  2.411915e+01    8.731795e-01
  2.413503e+01    8.967191e-01
  2.415090e+01    8.515109e-01
  2.416678e+01    8.386236e-01
  2.418266e+01    8.622643e-01
  2.419853e+01    8.770823e-01
  2.421441e+01    8.721888e-01
  2.423028e+01    8.617623e-01
  2.424616e+01    8.612996e-01
  2.426203e+01    8.766323e-01
  2.427791e+01    8.802623e-01
  2.429378e+01    8.781705e-01
  2.430966e+01    8.693295e-01
  2.432554e+01    8.878139e-01
  2.434141e+01    8.934144e-01
  2.435729e+01    8.860850e-01
  2.437316e+01    8.648593e-01
  2.438904e+01    8.511634e-01
  2.440491e+01    8.483341e-01
  2.442079e+01    8.931260e-01
  2.443666e+01    8.896201e-01
  2.445254e+01    9.003156e-01
  2.446842e+01    8.832635e-01
  2.448429e+01    8.963557e-01
  2.450017e+01    8.834379e-01
  2.451604e+01    8.832424e-01
  2.453192e+01    8.792408e-01
  2.454779e+01    8.991586e-01
  2.456367e+01    8.776563e-01
  2.457954e+01    8.685973e-01
  2.459542e+01    8.792536e-01
  2.461130e+01    8.711560e-01
  2.462717e+01    8.490160e-01
  2.464305e+01    8.544326e-01
  2.465892e+01    8.771082e-01
  2.467480e+01    8.681439e-01
  2.469067e+01    8.748010e-01
  2.470655e+01    8.709322e-01
  2.472242e+01    8.738664e-01
  2.473830e+01    8.761420e-01
  2.475418e+01    8.864976e-01
  2.477005e+01    8.706517e-01
  2.478593e+01    8.654680e-01
  2.480180e+01    8.636912e-01
  2.481768e+01    8.617970e-01
  2.483355e+01    8.992786e-01
  2.484943e+01    8.659278e-01
  2.486530e+01    8.662004e-01
  2.488118e+01    8.767204e-01
  2.489706e+01    8.832521e-01
  2.491293e+01    8.869836e-01
  2.492881e+01    8.717600e-01
  2.494468e+01    8.568971e-01
  2.496056e+01    8.691217e-01
  2.497643e+01    8.606824e-01
  2.499231e+01    8.757878e-01
  2.500819e+01    9.073853e-01
  2.502406e+01    8.875854e-01
  2.503994e+01    8.942616e-01
  2.505581e+01    8.873631e-01
  2.507169e+01    8.850498e-01
  2.508756e+01    8.773752e-01
  2.510344e+01    8.708279e-01
  2.511931e+01    8.802578e-01
  2.513519e+01    8.752472e-01
  2.515107e+01    8.869665e-01
  2.516694e+01    9.028711e-01
  2.518282e+01    9.013202e-01
  2.519869e+01    9.006569e-01
  2.521457e+01    9.055852e-01
  2.523044e+01    9.105881e-01
  2.524632e+01    9.274622e-01
  2.526219e+01    9.301226e-01
  2.527807e+01    9.367576e-01
  2.529395e+01    9.337509e-01
  2.530982e+01    9.235076e-01
  2.532570e+01    9.394211e-01
  2.534157e+01    9.489562e-01
  2.535745e+01    9.561891e-01
  2.537332e+01    9.493113e-01
  2.538920e+01    9.698868e-01
  2.540507e+01    9.795217e-01
  2.542095e+01    9.933425e-01
  2.543683e+01    9.970849e-01
  2.545270e+01    1.023694e+00
  2.546858e+01    1.031770e+00
  2.548445e+01    1.040515e+00
  2.550033e+01    1.053829e+00
  2.551620e+01    1.037444e+00
  2.553208e+01    1.059698e+00
  2.554795e+01    1.108457e+00
  2.556383e+01    1.102224e+00
  2.557971e+01    1.141271e+00
  2.559558e+01    1.157887e+00
  2.561146e+01    1.217919e+00
  2.562733e+01    1.218801e+00
  2.564321e+01    1.254494e+00
  2.565908e+01    1.335605e+00
  2.567496e+01    1.410817e+00
  2.569083e+01    1.473600e+00
  2.570671e+01    1.557830e+00
  2.572259e+01    1.691020e+00
  2.573846e+01    1.801974e+00
  2.575434e+01    1.975063e+00
  2.577021e+01    2.199256e+00
  2.578609e+01    2.414495e+00
  2.580196e+01    2.697187e+00
  2.581784e+01    3.104275e+00
  2.583371e+01    3.635066e+00
  2.584959e+01    4.064531e+00
  2.586547e+01    4.594659e+00
  2.588134e+01    5.157655e+00
  2.589722e+01    5.682648e+00
  2.591309e+01    6.200406e+00
  2.592897e+01    6.701566e+00
  2.594484e+01    6.947042e+00
  2.596072e+01    7.042670e+00
  2.597660e+01    6.899063e+00
  2.599247e+01    6.506376e+00
  2.600835e+01    5.898641e+00
  2.602422e+01    5.213462e+00
  2.604010e+01    4.516775e+00
  2.605597e+01    3.898812e+00
  2.607185e+01    3.400216e+00
  2.608772e+01    2.955573e+00
  2.610360e+01    2.601175e+00
  2.611948e+01    2.332200e+00
  2.613535e+01    2.081214e+00
  2.615123e+01    1.895755e+00
  2.616710e+01    1.762989e+00
  2.618298e+01    1.639605e+00
  2.619885e+01    1.549039e+00
  2.621473e+01    1.439860e+00
  2.623060e+01    1.387112e+00
  2.624648e+01    1.312955e+00
  2.626236e+01    1.283342e+00
  2.627823e+01    1.256690e+00
  2.629411e+01    1.207103e+00
  2.630998e+01    1.147003e+00
  2.632586e+01    1.151703e+00
  2.634173e+01    1.112562e+00
  2.635761e+01    1.103582e+00
  2.637348e+01    1.101742e+00
  2.638936e+01    1.078393e+00
  2.640524e+01    1.053070e+00
  2.642111e+01    1.047600e+00
  2.643699e+01    1.032407e+00
  2.645286e+01    1.020877e+00
  2.646874e+01    1.011667e+00
  2.648461e+01    9.937132e-01
  2.650049e+01    1.021941e+00
  2.651636e+01    9.823894e-01
  2.653224e+01    9.780032e-01
  2.654812e+01    9.788321e-01
  2.656399e+01    9.689819e-01
  2.657987e+01    9.791875e-01
  2.659574e+01    9.685747e-01
  2.661162e+01    9.695763e-01
  2.662749e+01    9.697322e-01
  2.664337e+01    9.687169e-01
  2.665924e+01    9.742206e-01
  2.667512e+01    9.662624e-01
  2.669100e+01    9.461864e-01
  2.670687e+01    9.436160e-01
  2.672275e+01    9.510386e-01
  2.673862e+01    9.375311e-01
  2.675450e+01    9.245030e-01
  2.677037e+01    9.370811e-01
  2.678625e+01    9.323013e-01
  2.680212e+01    9.607025e-01
  2.681800e+01    9.590730e-01
  2.683388e+01    9.738867e-01
  2.684975e+01    9.758098e-01
  2.686563e+01    9.861355e-01
  2.688150e+01    9.965368e-01
  2.689738e+01    9.830456e-01
  2.691325e+01    9.742422e-01
  2.692913e+01    9.940669e-01
  2.694501e+01    1.004313e+00
  2.696088e+01    1.012754e+00
  2.697676e+01    1.033707e+00
  2.699263e+01    1.081519e+00
  2.700851e+01    1.104828e+00
  2.702438e+01    1.120013e+00
  2.704026e+01    1.163318e+00
  2.705613e+01    1.217291e+00
  2.707201e+01    1.283140e+00
  2.708789e+01    1.377191e+00
  2.710376e+01    1.453656e+00
  2.711964e+01    1.578317e+00
  2.713551e+01    1.682297e+00
  2.715139e+01    1.785937e+00
  2.716726e+01    1.937429e+00
  2.718314e+01    2.043109e+00
  2.719901e+01    2.118008e+00
  2.721489e+01    2.120819e+00
  2.723077e+01    2.112356e+00
  2.724664e+01    2.058975e+00
  2.726252e+01    1.913781e+00
  2.727839e+01    1.784954e+00
  2.729427e+01    1.668068e+00
  2.731014e+01    1.536544e+00
  2.732602e+01    1.430815e+00
  2.734189e+01    1.343593e+00
  2.735777e+01    1.277324e+00
  2.737365e+01    1.209897e+00
  2.738952e+01    1.154964e+00
  2.740540e+01    1.109174e+00
  2.742127e+01    1.102070e+00
  2.743715e+01    1.061659e+00
  2.745302e+01    1.010833e+00
  2.746890e+01    1.001981e+00
  2.748477e+01    9.878054e-01
  2.750065e+01    9.683537e-01
  2.751653e+01    9.714718e-01
  2.753240e+01    9.697024e-01
  2.754828e+01    9.588355e-01
  2.756415e+01    9.361531e-01
  2.758003e+01    9.186059e-01
  2.759590e+01    9.135933e-01
  2.761178e+01    8.968298e-01
  2.762765e+01    8.912554e-01
  2.764353e+01    9.086877e-01
  2.765941e+01    8.813038e-01
  2.767528e+01    8.984569e-01
  2.769116e+01    9.093039e-01
  2.770703e+01    9.149187e-01
  2.772291e+01    9.026088e-01
  2.773878e+01    8.901439e-01
  2.775466e+01    8.737941e-01
  2.777054e+01    8.972311e-01
  2.778641e+01    8.881834e-01
  2.780229e+01    8.694155e-01
  2.781816e+01    8.591108e-01
  2.783404e+01    8.649403e-01
  2.784991e+01    8.731124e-01
  2.786579e+01    8.796973e-01
  2.788166e+01    8.778346e-01
  2.789754e+01    8.610128e-01
  2.791342e+01    8.516814e-01
  2.792929e+01    8.540978e-01
  2.794517e+01    8.638248e-01
  2.796104e+01    8.710831e-01
  2.797692e+01    8.897773e-01
  2.799279e+01    8.742809e-01
  2.800867e+01    8.504362e-01
  2.802454e+01    8.523498e-01
  2.804042e+01    8.648753e-01
  2.805630e+01    8.526860e-01
  2.807217e+01    8.511557e-01
  2.808805e+01    8.414485e-01
  2.810392e+01    8.311701e-01
  2.811980e+01    8.349814e-01
  2.813567e+01    8.482013e-01
  2.815155e+01    8.584260e-01
  2.816742e+01    8.369687e-01
  2.818330e+01    8.429874e-01
  2.819918e+01    8.407198e-01
  2.821505e+01    8.427266e-01
  2.823093e+01    8.415342e-01
  2.824680e+01    8.464271e-01
  2.826268e+01    8.437480e-01
  2.827855e+01    8.644616e-01
  2.829443e+01    8.488605e-01
  2.831030e+01    8.218873e-01
  2.832618e+01    8.366538e-01
  2.834206e+01    8.476925e-01
  2.835793e+01    8.319181e-01
  2.837381e+01    8.412015e-01
  2.838968e+01    8.411594e-01
  2.840556e+01    8.170087e-01
  2.842143e+01    8.294865e-01
  2.843731e+01    8.383786e-01
  2.845318e+01    8.383571e-01
  2.846906e+01    8.376419e-01
  2.848494e+01    8.409455e-01
  2.850081e+01    8.383045e-01
  2.851669e+01    8.072610e-01
  2.853256e+01    8.240675e-01
  2.854844e+01    8.271177e-01
  2.856431e+01    8.175818e-01
  2.858019e+01    8.186231e-01
  2.859606e+01    8.207702e-01
  2.861194e+01    8.312230e-01
  2.862782e+01    8.297375e-01
  2.864369e+01    8.391363e-01
  2.865957e+01    8.445638e-01
  2.867544e+01    8.224792e-01
  2.869132e+01    8.109290e-01
  2.870719e+01    8.358933e-01
  2.872307e+01    8.206753e-01
  2.873895e+01    8.170529e-01
  2.875482e+01    7.997468e-01
  2.877070e+01    7.992163e-01
  2.878657e+01    8.144447e-01
  2.880245e+01    8.015308e-01
  2.881832e+01    8.173339e-01
  2.883420e+01    8.310548e-01
  2.885007e+01    8.055492e-01
  2.886595e+01    8.024850e-01
  2.888183e+01    8.187997e-01
  2.889770e+01    8.178549e-01
  2.891358e+01    7.889912e-01
  2.892945e+01    8.017259e-01
  2.894533e+01    8.194052e-01
  2.896120e+01    8.078122e-01
  2.897708e+01    8.088182e-01
  2.899295e+01    8.029438e-01
  2.900883e+01    8.117053e-01
  2.902471e+01    8.314940e-01
  2.904058e+01    7.954234e-01
  2.905646e+01    8.115637e-01
  2.907233e+01    8.100196e-01
  2.908821e+01    8.212337e-01
  2.910408e+01    7.884731e-01
  2.911996e+01    7.823020e-01
  2.913583e+01    7.861996e-01
  2.915171e+01    7.905506e-01
  2.916759e+01    8.165010e-01
  2.918346e+01    8.215725e-01
  2.919934e+01    8.200987e-01
  2.921521e+01    8.197120e-01
  2.923109e+01    8.172507e-01
  2.924696e+01    8.146847e-01
  2.926284e+01    8.026876e-01
  2.927871e+01    7.985609e-01
  2.929459e+01    7.965973e-01
  2.931047e+01    7.850690e-01
  2.932634e+01    8.099276e-01
  2.934222e+01    8.130454e-01
  2.935809e+01    7.892382e-01
  2.937397e+01    7.887477e-01
  2.938984e+01    7.982035e-01
  2.940572e+01    7.793400e-01
  2.942159e+01    7.805641e-01
  2.943747e+01    7.959451e-01
  2.945335e+01    8.064435e-01
  2.946922e+01    7.776780e-01
  2.948510e+01    7.690016e-01
  2.950097e+01    8.070748e-01
  2.951685e+01    8.166523e-01
  2.953272e+01    7.923018e-01
  2.954860e+01    8.150960e-01
  2.956447e+01    8.107294e-01
  2.958035e+01    7.936153e-01
  2.959623e+01    7.769796e-01
  2.961210e+01    7.927305e-01
  2.962798e+01    7.966223e-01
  2.964385e+01    8.104880e-01
  2.965973e+01    8.014616e-01
  2.967560e+01    7.854582e-01
  2.969148e+01    7.804855e-01
  2.970736e+01    7.753940e-01
  2.972323e+01    7.881342e-01
  2.973911e+01    7.933125e-01
  2.975498e+01    7.766717e-01
  2.977086e+01    7.813230e-01
  2.978673e+01    7.994063e-01
  2.980261e+01    8.074055e-01
  2.981848e+01    7.730737e-01
  2.983436e+01    7.852826e-01
  2.985024e+01    7.794181e-01
  2.986611e+01    7.789970e-01
  2.988199e+01    7.726029e-01
  2.989786e+01    7.825542e-01
  2.991374e+01    7.952604e-01
  2.992961e+01    7.687194e-01
  2.994549e+01    7.796220e-01
  2.996136e+01    7.814637e-01
  2.997724e+01    7.928261e-01
  2.999312e+01    7.973226e-01
  3.000899e+01    8.068371e-01
  3.002487e+01    8.013048e-01
  3.004074e+01    7.964682e-01
  3.005662e+01    7.912380e-01
  3.007249e+01    7.860972e-01
  3.008837e+01    7.937230e-01
  3.010424e+01    7.908900e-01
  3.012012e+01    8.123412e-01
  3.013600e+01    7.868358e-01
  3.015187e+01    7.481949e-01
  3.016775e+01    7.527562e-01
  3.018362e+01    7.716947e-01
  3.019950e+01    7.740571e-01
  3.021537e+01    7.713743e-01
  3.023125e+01    7.611783e-01
  3.024712e+01    7.748790e-01
  3.026300e+01    7.550941e-01
  3.027888e+01    7.667721e-01
  3.029475e+01    7.713798e-01
  3.031063e+01    7.680457e-01
  3.032650e+01    7.679216e-01
  3.034238e+01    7.849621e-01
  3.035825e+01    7.788937e-01
  3.037413e+01    7.773330e-01
  3.039000e+01    7.435504e-01
  3.040588e+01    7.652088e-01
  3.042176e+01    7.666471e-01
  3.043763e+01    7.795262e-01
  3.045351e+01    7.716162e-01
  3.046938e+01    7.573871e-01
  3.048526e+01    7.512905e-01
  3.050113e+01    7.704534e-01
  3.051701e+01    7.607827e-01
  3.053288e+01    7.483105e-01
  3.054876e+01    7.395054e-01
  3.056464e+01    7.581297e-01
  3.058051e+01    7.764429e-01
  3.059639e+01    7.945577e-01
  3.061226e+01    7.753305e-01
  3.062814e+01    7.688121e-01
  3.064401e+01    7.674040e-01
  3.065989e+01    7.734644e-01
  3.067577e+01    7.616801e-01
  3.069164e+01    7.549965e-01
  3.070752e+01    7.490691e-01
  3.072339e+01    7.657802e-01
  3.073927e+01    7.783855e-01
  3.075514e+01    7.946678e-01
  3.077102e+01    7.799931e-01
  3.078689e+01    7.601768e-01
  3.080277e+01    7.636688e-01
  3.081865e+01    7.655546e-01
  3.083452e+01    7.570457e-01
  3.085040e+01    7.577528e-01
  3.086627e+01    7.591524e-01
  3.088215e+01    7.894276e-01
  3.089802e+01    7.839858e-01
  3.091390e+01    7.975559e-01
  3.092977e+01    7.848310e-01
  3.094565e+01    7.727033e-01
  3.096153e+01    7.756795e-01
  3.097740e+01    7.843167e-01
  3.099328e+01    7.929572e-01
  3.100915e+01    7.776768e-01
  3.102503e+01    7.719398e-01
  3.104090e+01    7.628444e-01
  3.105678e+01    7.649124e-01
  3.107265e+01    7.812362e-01
  3.108853e+01    7.889669e-01
  3.110441e+01    7.921175e-01
  3.112028e+01    7.842290e-01
  3.113616e+01    7.753685e-01
  3.115203e+01    7.647167e-01
  3.116791e+01    7.628691e-01
  3.118378e+01    7.837895e-01
  3.119966e+01    7.927672e-01
  3.121553e+01    7.831219e-01
  3.123141e+01    7.806478e-01
  3.124729e+01    7.716123e-01
  3.126316e+01    7.816063e-01
  3.127904e+01    7.885237e-01
  3.129491e+01    7.885437e-01
  3.131079e+01    7.849161e-01
  3.132666e+01    7.880206e-01
  3.134254e+01    8.084072e-01
  3.135841e+01    7.920658e-01
  3.137429e+01    7.925065e-01
  3.139017e+01    7.787516e-01
  3.140604e+01    7.693841e-01
  3.142192e+01    7.933446e-01
  3.143779e+01    7.974867e-01
  3.145367e+01    8.125646e-01
  3.146954e+01    8.193259e-01
  3.148542e+01    8.212176e-01
  3.150129e+01    8.154660e-01
  3.151717e+01    8.185111e-01
  3.153305e+01    8.084587e-01
  3.154892e+01    8.118650e-01
  3.156480e+01    8.164404e-01
  3.158067e+01    8.316060e-01
  3.159655e+01    8.628043e-01
  3.161242e+01    8.685701e-01
  3.162830e+01    8.907326e-01
  3.164418e+01    9.055138e-01
  3.166005e+01    9.317515e-01
  3.167593e+01    9.550170e-01
  3.169180e+01    9.722158e-01
  3.170768e+01    1.015481e+00
  3.172355e+01    1.044295e+00
  3.173943e+01    1.080857e+00
  3.175530e+01    1.173785e+00
  3.177118e+01    1.242997e+00
  3.178706e+01    1.319908e+00
  3.180293e+01    1.410729e+00
  3.181881e+01    1.536521e+00
  3.183468e+01    1.663125e+00
  3.185056e+01    1.772420e+00
  3.186643e+01    1.885148e+00
  3.188231e+01    2.008102e+00
  3.189818e+01    2.073529e+00
  3.191406e+01    2.049732e+00
  3.192994e+01    1.977800e+00
  3.194581e+01    1.910700e+00
  3.196169e+01    1.815021e+00
  3.197756e+01    1.683140e+00
  3.199344e+01    1.533718e+00
  3.200931e+01    1.410769e+00
  3.202519e+01    1.289981e+00
  3.204106e+01    1.227997e+00
  3.205694e+01    1.172207e+00
  3.207282e+01    1.091510e+00
  3.208869e+01    1.023010e+00
  3.210457e+01    9.764015e-01
  3.212044e+01    9.475023e-01
  3.213632e+01    9.282068e-01
  3.215219e+01    8.915103e-01
  3.216807e+01    8.813373e-01
  3.218394e+01    8.557457e-01
  3.219982e+01    8.775045e-01
  3.221570e+01    8.497798e-01
  3.223157e+01    8.453640e-01
  3.224745e+01    8.272412e-01
  3.226332e+01    8.159714e-01
  3.227920e+01    8.126071e-01
  3.229507e+01    8.104632e-01
  3.231095e+01    8.045689e-01
  3.232682e+01    7.938398e-01
  3.234270e+01    8.002574e-01
  3.235858e+01    7.989663e-01
  3.237445e+01    7.892838e-01
  3.239033e+01    7.838727e-01
  3.240620e+01    7.811185e-01
  3.242208e+01    7.517599e-01
  3.243795e+01    7.589713e-01
  3.245383e+01    7.693356e-01
  3.246970e+01    7.726166e-01
  3.248558e+01    7.658961e-01
  3.250146e+01    7.866354e-01
  3.251733e+01    7.627817e-01
  3.253321e+01    7.593639e-01
  3.254908e+01    7.812544e-01
