# == pyFAI calibration ==
# Distance Sample to Detector: 0.3999999939076516 m
# PONI: 9.750e-02, 1.135e-01 m
# Rotations: -0.000175 0.000000 -0.000000 rad
# 
# == Fit2d calibration ==
# Distance Sample-beamCenter: 400.000 mm
# Center: x=1514.000, y=1300.000 pix
# Tilt: 0.010 deg  TiltPlanRot: 0.010 deg
# 
# Detector Detector	 Spline= None	 PixelSize= 7.500e-05, 7.500e-05 m
#    Detector has a mask: False 
#    Detector has a dark current: False 
#    detector has a flat field: False 
# 
# Wavelength: 6.888e-11 m
# Mask applied: user provided
# Dark current applied: False
# Flat field applied: False
# Polarization factor: 0.99
# Normalization factor: 1.0
# --> /home/myspot/data/2024_07_Rosario/Ru-CGO-ex/2024-07-27_003_Ru-CGO-ex_Reaction_dwell_000023_data_000056.dat
#       q_nm^-1             I 
  2.003187e-02    0.000000e+00
  3.590745e-02    0.000000e+00
  5.178302e-02    2.671360e-02
  6.765859e-02    7.582189e-02
  8.353417e-02    5.028606e-02
  9.940974e-02    1.617871e-03
  1.152853e-01    4.572718e-02
  1.311609e-01    7.487686e-02
  1.470365e-01    6.907506e-02
  1.629120e-01    5.991865e-02
  1.787876e-01    4.287915e-02
  1.946632e-01    2.647654e-02
  2.105388e-01    3.720425e-02
  2.264143e-01    2.221534e-02
  2.422899e-01    1.932249e-02
  2.581655e-01    5.613636e-02
  2.740411e-01    2.044231e-02
  2.899166e-01    1.642742e-02
  3.057922e-01    6.332074e-02
  3.216678e-01    3.904685e-02
  3.375433e-01    3.195669e-02
  3.534189e-01    2.814002e-02
  3.692945e-01    2.330439e-02
  3.851701e-01    1.398442e-02
  4.010456e-01    2.915685e-02
  4.169212e-01    3.086578e-02
  4.327968e-01    5.137457e-02
  4.486724e-01    1.958669e-02
  4.645479e-01    2.279809e-02
  4.804235e-01    3.723447e-02
  4.962991e-01    3.740377e-02
  5.121747e-01    5.015630e-02
  5.280502e-01    3.070341e-02
  5.439258e-01    4.996401e-02
  5.598014e-01    3.405438e-02
  5.756770e-01    3.427776e-02
  5.915525e-01    4.251806e-02
  6.074281e-01    2.131618e-02
  6.233037e-01    3.662487e-02
  6.391793e-01    5.737921e-02
  6.550548e-01    5.924215e-02
  6.709304e-01    3.897499e-02
  6.868060e-01    3.068178e-02
  7.026815e-01    3.543574e-02
  7.185571e-01    4.329040e-02
  7.344327e-01    3.137287e-02
  7.503083e-01    6.368245e-02
  7.661838e-01    9.820454e-02
  7.820594e-01    1.161937e-01
  7.979350e-01    1.917402e-01
  8.138106e-01    2.652129e-01
  8.296861e-01    2.970801e-01
  8.455617e-01    3.658304e-01
  8.614373e-01    3.994718e-01
  8.773129e-01    4.670212e-01
  8.931884e-01    6.343123e-01
  9.090640e-01    7.400662e-01
  9.249396e-01    8.086810e-01
  9.408152e-01    8.596670e-01
  9.566907e-01    8.428149e-01
  9.725663e-01    1.054711e+00
  9.884419e-01    1.149686e+00
  1.004317e+00    1.221187e+00
  1.020193e+00    1.349486e+00
  1.036069e+00    1.274212e+00
  1.051944e+00    1.335304e+00
  1.067820e+00    1.471530e+00
  1.083695e+00    1.457771e+00
  1.099571e+00    1.548749e+00
  1.115446e+00    1.625024e+00
  1.131322e+00    1.645335e+00
  1.147198e+00    1.693616e+00
  1.163073e+00    1.733616e+00
  1.178949e+00    1.794611e+00
  1.194824e+00    1.770455e+00
  1.210700e+00    2.003148e+00
  1.226575e+00    2.179989e+00
  1.242451e+00    2.312307e+00
  1.258327e+00    2.521607e+00
  1.274202e+00    2.656959e+00
  1.290078e+00    2.583524e+00
  1.305953e+00    2.622233e+00
  1.321829e+00    2.752987e+00
  1.337705e+00    2.850389e+00
  1.353580e+00    2.829772e+00
  1.369456e+00    2.896281e+00
  1.385331e+00    2.886310e+00
  1.401207e+00    2.898756e+00
  1.417082e+00    3.093450e+00
  1.432958e+00    3.093180e+00
  1.448834e+00    3.070941e+00
  1.464709e+00    3.021389e+00
  1.480585e+00    3.145402e+00
  1.496460e+00    3.142583e+00
  1.512336e+00    3.077666e+00
  1.528211e+00    3.170663e+00
  1.544087e+00    3.183873e+00
  1.559963e+00    3.214591e+00
  1.575838e+00    3.108334e+00
  1.591714e+00    3.127137e+00
  1.607589e+00    3.143725e+00
  1.623465e+00    3.034774e+00
  1.639340e+00    3.036154e+00
  1.655216e+00    3.144823e+00
  1.671092e+00    3.110883e+00
  1.686967e+00    3.074833e+00
  1.702843e+00    3.155289e+00
  1.718718e+00    3.212641e+00
  1.734594e+00    3.140127e+00
  1.750469e+00    3.191457e+00
  1.766345e+00    3.038237e+00
  1.782221e+00    3.062497e+00
  1.798096e+00    3.008955e+00
  1.813972e+00    3.202469e+00
  1.829847e+00    3.173163e+00
  1.845723e+00    3.066797e+00
  1.861598e+00    3.061081e+00
  1.877474e+00    2.997483e+00
  1.893350e+00    3.051026e+00
  1.909225e+00    2.986325e+00
  1.925101e+00    3.004834e+00
  1.940976e+00    3.049726e+00
  1.956852e+00    3.059320e+00
  1.972727e+00    3.066949e+00
  1.988603e+00    2.915936e+00
  2.004479e+00    2.992150e+00
  2.020354e+00    3.019119e+00
  2.036230e+00    2.941052e+00
  2.052105e+00    2.995815e+00
  2.067981e+00    3.105709e+00
  2.083856e+00    3.177871e+00
  2.099732e+00    3.116202e+00
  2.115608e+00    2.992659e+00
  2.131483e+00    3.178294e+00
  2.147359e+00    3.090270e+00
  2.163234e+00    3.146313e+00
  2.179110e+00    3.086538e+00
  2.194985e+00    3.134254e+00
  2.210861e+00    3.061676e+00
  2.226737e+00    3.112995e+00
  2.242612e+00    3.204428e+00
  2.258488e+00    3.221410e+00
  2.274363e+00    3.245804e+00
  2.290239e+00    3.133475e+00
  2.306115e+00    3.100533e+00
  2.321990e+00    3.162416e+00
  2.337866e+00    3.221308e+00
  2.353741e+00    3.158096e+00
  2.369617e+00    3.224740e+00
  2.385492e+00    3.148001e+00
  2.401368e+00    3.251479e+00
  2.417244e+00    3.309292e+00
  2.433119e+00    3.257781e+00
  2.448995e+00    3.209768e+00
  2.464870e+00    3.230427e+00
  2.480746e+00    3.177124e+00
  2.496621e+00    3.266177e+00
  2.512497e+00    3.290052e+00
  2.528373e+00    3.219031e+00
  2.544248e+00    3.235177e+00
  2.560124e+00    3.299049e+00
  2.575999e+00    3.286510e+00
  2.591875e+00    3.244934e+00
  2.607750e+00    3.199351e+00
  2.623626e+00    3.121945e+00
  2.639502e+00    3.233315e+00
  2.655377e+00    3.242955e+00
  2.671253e+00    3.293986e+00
  2.687128e+00    3.365924e+00
  2.703004e+00    3.279756e+00
  2.718879e+00    3.160256e+00
  2.734755e+00    3.213646e+00
  2.750631e+00    3.285985e+00
  2.766506e+00    3.200900e+00
  2.782382e+00    3.260096e+00
  2.798257e+00    3.331830e+00
  2.814133e+00    3.347994e+00
  2.830008e+00    3.353371e+00
  2.845884e+00    3.403372e+00
  2.861760e+00    3.371566e+00
  2.877635e+00    3.246577e+00
  2.893511e+00    3.269893e+00
  2.909386e+00    3.253396e+00
  2.925262e+00    3.363965e+00
  2.941137e+00    3.435086e+00
  2.957013e+00    3.339224e+00
  2.972889e+00    3.234214e+00
  2.988764e+00    3.337422e+00
  3.004640e+00    3.358388e+00
  3.020515e+00    3.435233e+00
  3.036391e+00    3.430996e+00
  3.052266e+00    3.408009e+00
  3.068142e+00    3.416361e+00
  3.084018e+00    3.320397e+00
  3.099893e+00    3.265480e+00
  3.115769e+00    3.411108e+00
  3.131644e+00    3.421264e+00
  3.147520e+00    3.339218e+00
  3.163395e+00    3.365316e+00
  3.179271e+00    3.327371e+00
  3.195147e+00    3.392102e+00
  3.211022e+00    3.424028e+00
  3.226898e+00    3.420846e+00
  3.242773e+00    3.471411e+00
  3.258649e+00    3.436099e+00
  3.274525e+00    3.450537e+00
  3.290400e+00    3.438970e+00
  3.306276e+00    3.419607e+00
  3.322151e+00    3.428672e+00
  3.338027e+00    3.474698e+00
  3.353902e+00    3.403827e+00
  3.369778e+00    3.486942e+00
  3.385654e+00    3.489621e+00
  3.401529e+00    3.490305e+00
  3.417405e+00    3.499516e+00
  3.433280e+00    3.531698e+00
  3.449156e+00    3.552973e+00
  3.465031e+00    3.480570e+00
  3.480907e+00    3.486454e+00
  3.496783e+00    3.538314e+00
  3.512658e+00    3.477902e+00
  3.528534e+00    3.478921e+00
  3.544409e+00    3.509339e+00
  3.560285e+00    3.460040e+00
  3.576160e+00    3.383425e+00
  3.592036e+00    3.380440e+00
  3.607912e+00    3.444203e+00
  3.623787e+00    3.545316e+00
  3.639663e+00    3.494119e+00
  3.655538e+00    3.430667e+00
  3.671414e+00    3.401552e+00
  3.687289e+00    3.475459e+00
  3.703165e+00    3.536437e+00
  3.719041e+00    3.635543e+00
  3.734916e+00    3.478494e+00
  3.750792e+00    3.422917e+00
  3.766667e+00    3.461052e+00
  3.782543e+00    3.450232e+00
  3.798418e+00    3.468654e+00
  3.814294e+00    3.526075e+00
  3.830170e+00    3.490322e+00
  3.846045e+00    3.542969e+00
  3.861921e+00    3.536637e+00
  3.877796e+00    3.570781e+00
  3.893672e+00    3.660188e+00
  3.909547e+00    3.526146e+00
  3.925423e+00    3.491907e+00
  3.941299e+00    3.536615e+00
  3.957174e+00    3.556542e+00
  3.973050e+00    3.549892e+00
  3.988925e+00    3.588366e+00
  4.004801e+00    3.547342e+00
  4.020676e+00    3.524523e+00
  4.036552e+00    3.579080e+00
  4.052428e+00    3.595852e+00
  4.068303e+00    3.545630e+00
  4.084179e+00    3.556784e+00
  4.100054e+00    3.605033e+00
  4.115930e+00    3.559035e+00
  4.131806e+00    3.588119e+00
  4.147681e+00    3.530054e+00
  4.163557e+00    3.411400e+00
  4.179432e+00    3.519217e+00
  4.195308e+00    3.653132e+00
  4.211183e+00    3.701818e+00
  4.227059e+00    3.655464e+00
  4.242935e+00    3.586316e+00
  4.258810e+00    3.596614e+00
  4.274686e+00    3.539809e+00
  4.290561e+00    3.441945e+00
  4.306437e+00    3.452036e+00
  4.322312e+00    3.584685e+00
  4.338188e+00    3.595846e+00
  4.354064e+00    3.517635e+00
  4.369939e+00    3.489674e+00
  4.385815e+00    3.605345e+00
  4.401690e+00    3.497564e+00
  4.417566e+00    3.531209e+00
  4.433441e+00    3.540429e+00
  4.449317e+00    3.552860e+00
  4.465193e+00    3.592987e+00
  4.481068e+00    3.575727e+00
  4.496944e+00    3.582643e+00
  4.512819e+00    3.607044e+00
  4.528695e+00    3.581080e+00
  4.544570e+00    3.640604e+00
  4.560446e+00    3.680356e+00
  4.576322e+00    3.629957e+00
  4.592197e+00    3.560513e+00
  4.608073e+00    3.574181e+00
  4.623948e+00    3.598238e+00
  4.639824e+00    3.576437e+00
  4.655699e+00    3.574775e+00
  4.671575e+00    3.592652e+00
  4.687451e+00    3.628983e+00
  4.703326e+00    3.684743e+00
  4.719202e+00    3.636494e+00
  4.735077e+00    3.586895e+00
  4.750953e+00    3.604784e+00
  4.766828e+00    3.685290e+00
  4.782704e+00    3.687296e+00
  4.798580e+00    3.708957e+00
  4.814455e+00    3.660286e+00
  4.830331e+00    3.724923e+00
  4.846206e+00    3.711433e+00
  4.862082e+00    3.659223e+00
  4.877957e+00    3.673344e+00
  4.893833e+00    3.676561e+00
  4.909709e+00    3.727031e+00
  4.925584e+00    3.658706e+00
  4.941460e+00    3.658985e+00
  4.957335e+00    3.720282e+00
  4.973211e+00    3.724345e+00
  4.989086e+00    3.611228e+00
  5.004962e+00    3.573002e+00
  5.020838e+00    3.715813e+00
  5.036713e+00    3.757450e+00
  5.052589e+00    3.701152e+00
  5.068464e+00    3.666447e+00
  5.084340e+00    3.654228e+00
  5.100216e+00    3.572480e+00
  5.116091e+00    3.616763e+00
  5.131967e+00    3.581111e+00
  5.147842e+00    3.647483e+00
  5.163718e+00    3.687819e+00
  5.179593e+00    3.654855e+00
  5.195469e+00    3.656249e+00
  5.211345e+00    3.692682e+00
  5.227220e+00    3.725538e+00
  5.243096e+00    3.660524e+00
  5.258971e+00    3.742120e+00
  5.274847e+00    3.718058e+00
  5.290722e+00    3.646421e+00
  5.306598e+00    3.650118e+00
  5.322474e+00    3.687381e+00
  5.338349e+00    3.775217e+00
  5.354225e+00    3.658817e+00
  5.370100e+00    3.678178e+00
  5.385976e+00    3.719836e+00
  5.401851e+00    3.657337e+00
  5.417727e+00    3.639316e+00
  5.433603e+00    3.604934e+00
  5.449478e+00    3.627596e+00
  5.465354e+00    3.622279e+00
  5.481229e+00    3.678401e+00
  5.497105e+00    3.675003e+00
  5.512980e+00    3.555634e+00
  5.528856e+00    3.581808e+00
  5.544732e+00    3.548175e+00
  5.560607e+00    3.614198e+00
  5.576483e+00    3.653249e+00
  5.592358e+00    3.638396e+00
  5.608234e+00    3.655727e+00
  5.624109e+00    3.596439e+00
  5.639985e+00    3.523365e+00
  5.655861e+00    3.629138e+00
  5.671736e+00    3.561473e+00
  5.687612e+00    3.529314e+00
  5.703487e+00    3.631234e+00
  5.719363e+00    3.542565e+00
  5.735238e+00    3.551320e+00
  5.751114e+00    3.587384e+00
  5.766990e+00    3.561490e+00
  5.782865e+00    3.507898e+00
  5.798741e+00    3.524154e+00
  5.814616e+00    3.605625e+00
  5.830492e+00    3.650963e+00
  5.846367e+00    3.588042e+00
  5.862243e+00    3.575206e+00
  5.878119e+00    3.676923e+00
  5.893994e+00    3.657673e+00
  5.909870e+00    3.601732e+00
  5.925745e+00    3.534408e+00
  5.941621e+00    3.525199e+00
  5.957497e+00    3.539833e+00
  5.973372e+00    3.530994e+00
  5.989248e+00    3.620743e+00
  6.005123e+00    3.488465e+00
  6.020999e+00    3.508882e+00
  6.036874e+00    3.515313e+00
  6.052750e+00    3.501203e+00
  6.068626e+00    3.574920e+00
  6.084501e+00    3.680703e+00
  6.100377e+00    3.633198e+00
  6.116252e+00    3.603585e+00
  6.132128e+00    3.581158e+00
  6.148003e+00    3.565141e+00
  6.163879e+00    3.674810e+00
  6.179755e+00    3.590385e+00
  6.195630e+00    3.594377e+00
  6.211506e+00    3.610872e+00
  6.227381e+00    3.608526e+00
  6.243257e+00    3.592217e+00
  6.259132e+00    3.565567e+00
  6.275008e+00    3.577933e+00
  6.290884e+00    3.606766e+00
  6.306759e+00    3.610134e+00
  6.322635e+00    3.573889e+00
  6.338510e+00    3.551519e+00
  6.354386e+00    3.553275e+00
  6.370261e+00    3.584753e+00
  6.386137e+00    3.575914e+00
  6.402013e+00    3.554991e+00
  6.417888e+00    3.553916e+00
  6.433764e+00    3.517901e+00
  6.449639e+00    3.504280e+00
  6.465515e+00    3.530508e+00
  6.481390e+00    3.501952e+00
  6.497266e+00    3.596621e+00
  6.513142e+00    3.607275e+00
  6.529017e+00    3.554147e+00
  6.544893e+00    3.599134e+00
  6.560768e+00    3.606755e+00
  6.576644e+00    3.591128e+00
  6.592519e+00    3.566507e+00
  6.608395e+00    3.547005e+00
  6.624271e+00    3.590180e+00
  6.640146e+00    3.592238e+00
  6.656022e+00    3.598853e+00
  6.671897e+00    3.510233e+00
  6.687773e+00    3.526812e+00
  6.703648e+00    3.473135e+00
  6.719524e+00    3.527165e+00
  6.735400e+00    3.500066e+00
  6.751275e+00    3.600137e+00
  6.767151e+00    3.623321e+00
  6.783026e+00    3.556755e+00
  6.798902e+00    3.549316e+00
  6.814777e+00    3.511220e+00
  6.830653e+00    3.508937e+00
  6.846529e+00    3.598506e+00
  6.862404e+00    3.643564e+00
  6.878280e+00    3.550647e+00
  6.894155e+00    3.563402e+00
  6.910031e+00    3.548770e+00
  6.925907e+00    3.569659e+00
  6.941782e+00    3.596805e+00
  6.957658e+00    3.594347e+00
  6.973533e+00    3.596537e+00
  6.989409e+00    3.594480e+00
  7.005284e+00    3.569500e+00
  7.021160e+00    3.556259e+00
  7.037036e+00    3.525685e+00
  7.052911e+00    3.535551e+00
  7.068787e+00    3.536837e+00
  7.084662e+00    3.585464e+00
  7.100538e+00    3.532518e+00
  7.116413e+00    3.521830e+00
  7.132289e+00    3.517618e+00
  7.148165e+00    3.497478e+00
  7.164040e+00    3.507288e+00
  7.179916e+00    3.517785e+00
  7.195791e+00    3.434489e+00
  7.211667e+00    3.465276e+00
  7.227542e+00    3.516541e+00
  7.243418e+00    3.481851e+00
  7.259294e+00    3.531971e+00
  7.275169e+00    3.573847e+00
  7.291045e+00    3.551679e+00
  7.306920e+00    3.512980e+00
  7.322796e+00    3.501770e+00
  7.338671e+00    3.514045e+00
  7.354547e+00    3.536084e+00
  7.370423e+00    3.524012e+00
  7.386298e+00    3.504587e+00
  7.402174e+00    3.516677e+00
  7.418049e+00    3.461215e+00
  7.433925e+00    3.476760e+00
  7.449800e+00    3.552152e+00
  7.465676e+00    3.574265e+00
  7.481552e+00    3.614100e+00
  7.497427e+00    3.554901e+00
  7.513303e+00    3.555640e+00
  7.529178e+00    3.528120e+00
  7.545054e+00    3.512429e+00
  7.560929e+00    3.500561e+00
  7.576805e+00    3.543022e+00
  7.592681e+00    3.507512e+00
  7.608556e+00    3.586874e+00
  7.624432e+00    3.568534e+00
  7.640307e+00    3.502815e+00
  7.656183e+00    3.498783e+00
  7.672058e+00    3.509377e+00
  7.687934e+00    3.447925e+00
  7.703810e+00    3.395944e+00
  7.719685e+00    3.416016e+00
  7.735561e+00    3.441684e+00
  7.751436e+00    3.467475e+00
  7.767312e+00    3.514021e+00
  7.783187e+00    3.462626e+00
  7.799063e+00    3.396480e+00
  7.814939e+00    3.431916e+00
  7.830814e+00    3.454555e+00
  7.846690e+00    3.478715e+00
  7.862565e+00    3.520658e+00
  7.878441e+00    3.425285e+00
  7.894317e+00    3.410198e+00
  7.910192e+00    3.460987e+00
  7.926068e+00    3.481252e+00
  7.941943e+00    3.490357e+00
  7.957819e+00    3.406930e+00
  7.973694e+00    3.385205e+00
  7.989570e+00    3.476640e+00
  8.005446e+00    3.483509e+00
  8.021321e+00    3.445363e+00
  8.037197e+00    3.450347e+00
  8.053072e+00    3.431912e+00
  8.068948e+00    3.406849e+00
  8.084823e+00    3.404023e+00
  8.100699e+00    3.526289e+00
  8.116575e+00    3.525873e+00
  8.132450e+00    3.486959e+00
  8.148326e+00    3.389800e+00
  8.164201e+00    3.402380e+00
  8.180077e+00    3.406824e+00
  8.195952e+00    3.417029e+00
  8.211828e+00    3.466327e+00
  8.227704e+00    3.562577e+00
  8.243579e+00    3.500049e+00
  8.259455e+00    3.526037e+00
  8.275330e+00    3.440309e+00
  8.291206e+00    3.363760e+00
  8.307081e+00    3.373564e+00
  8.322957e+00    3.414479e+00
  8.338833e+00    3.433465e+00
  8.354708e+00    3.415369e+00
  8.370584e+00    3.415162e+00
  8.386459e+00    3.366157e+00
  8.402335e+00    3.462726e+00
  8.418210e+00    3.403572e+00
  8.434086e+00    3.396037e+00
  8.449962e+00    3.382306e+00
  8.465837e+00    3.377213e+00
  8.481713e+00    3.406793e+00
  8.497588e+00    3.418109e+00
  8.513464e+00    3.375406e+00
  8.529339e+00    3.359663e+00
  8.545215e+00    3.428473e+00
  8.561091e+00    3.344764e+00
  8.576966e+00    3.337610e+00
  8.592842e+00    3.410251e+00
  8.608717e+00    3.398642e+00
  8.624593e+00    3.403584e+00
  8.640468e+00    3.382087e+00
  8.656344e+00    3.354929e+00
  8.672220e+00    3.366947e+00
  8.688095e+00    3.378496e+00
  8.703971e+00    3.407665e+00
  8.719846e+00    3.408192e+00
  8.735722e+00    3.313732e+00
  8.751598e+00    3.328325e+00
  8.767473e+00    3.346044e+00
  8.783349e+00    3.346766e+00
  8.799224e+00    3.299866e+00
  8.815100e+00    3.361910e+00
  8.830975e+00    3.289242e+00
  8.846851e+00    3.311946e+00
  8.862727e+00    3.347994e+00
  8.878602e+00    3.338853e+00
  8.894478e+00    3.381827e+00
  8.910353e+00    3.405581e+00
  8.926229e+00    3.325500e+00
  8.942104e+00    3.292489e+00
  8.957980e+00    3.274057e+00
  8.973856e+00    3.311164e+00
  8.989731e+00    3.297727e+00
  9.005607e+00    3.350717e+00
  9.021482e+00    3.370293e+00
  9.037358e+00    3.293815e+00
  9.053233e+00    3.253083e+00
  9.069109e+00    3.270993e+00
  9.084985e+00    3.292347e+00
  9.100860e+00    3.267107e+00
  9.116736e+00    3.241570e+00
  9.132611e+00    3.294507e+00
  9.148487e+00    3.343282e+00
  9.164362e+00    3.277355e+00
  9.180238e+00    3.343719e+00
  9.196114e+00    3.299986e+00
  9.211989e+00    3.227821e+00
  9.227865e+00    3.253476e+00
  9.243740e+00    3.247562e+00
  9.259616e+00    3.234347e+00
  9.275491e+00    3.271086e+00
  9.291367e+00    3.242157e+00
  9.307243e+00    3.251250e+00
  9.323118e+00    3.213159e+00
  9.338994e+00    3.241459e+00
  9.354869e+00    3.277757e+00
  9.370745e+00    3.252627e+00
  9.386620e+00    3.234265e+00
  9.402496e+00    3.264100e+00
  9.418372e+00    3.274697e+00
  9.434247e+00    3.207974e+00
  9.450123e+00    3.191130e+00
  9.465998e+00    3.257221e+00
  9.481874e+00    3.297871e+00
  9.497749e+00    3.253694e+00
  9.513625e+00    3.208980e+00
  9.529501e+00    3.213240e+00
  9.545376e+00    3.238556e+00
  9.561252e+00    3.222253e+00
  9.577127e+00    3.174348e+00
  9.593003e+00    3.174021e+00
  9.608878e+00    3.186564e+00
  9.624754e+00    3.226013e+00
  9.640630e+00    3.221641e+00
  9.656505e+00    3.243563e+00
  9.672381e+00    3.174912e+00
  9.688256e+00    3.187593e+00
  9.704132e+00    3.166960e+00
  9.720008e+00    3.166761e+00
  9.735883e+00    3.142283e+00
  9.751759e+00    3.140642e+00
  9.767634e+00    3.154633e+00
  9.783510e+00    3.160213e+00
  9.799385e+00    3.206848e+00
  9.815261e+00    3.184360e+00
  9.831137e+00    3.197759e+00
  9.847012e+00    3.186580e+00
  9.862888e+00    3.157802e+00
  9.878763e+00    3.152201e+00
  9.894639e+00    3.150227e+00
  9.910514e+00    3.143220e+00
  9.926390e+00    3.123562e+00
  9.942266e+00    3.100634e+00
  9.958141e+00    3.133946e+00
  9.974017e+00    3.133663e+00
  9.989892e+00    3.139676e+00
  1.000577e+01    3.212476e+00
  1.002164e+01    3.155183e+00
  1.003752e+01    3.088699e+00
  1.005339e+01    3.116208e+00
  1.006927e+01    3.157674e+00
  1.008515e+01    3.111393e+00
  1.010102e+01    3.082394e+00
  1.011690e+01    3.053096e+00
  1.013277e+01    3.100688e+00
  1.014865e+01    3.104827e+00
  1.016452e+01    3.110042e+00
  1.018040e+01    3.096788e+00
  1.019627e+01    3.131011e+00
  1.021215e+01    3.142646e+00
  1.022803e+01    3.096258e+00
  1.024390e+01    3.138697e+00
  1.025978e+01    3.087600e+00
  1.027565e+01    3.033862e+00
  1.029153e+01    3.053977e+00
  1.030740e+01    3.075116e+00
  1.032328e+01    3.055989e+00
  1.033915e+01    3.082566e+00
  1.035503e+01    3.043751e+00
  1.037091e+01    3.000478e+00
  1.038678e+01    3.040166e+00
  1.040266e+01    3.057205e+00
  1.041853e+01    3.029909e+00
  1.043441e+01    3.003339e+00
  1.045028e+01    3.022129e+00
  1.046616e+01    2.991832e+00
  1.048204e+01    3.045909e+00
  1.049791e+01    3.056521e+00
  1.051379e+01    2.967668e+00
  1.052966e+01    2.966701e+00
  1.054554e+01    2.963784e+00
  1.056141e+01    2.983626e+00
  1.057729e+01    3.019380e+00
  1.059316e+01    3.070391e+00
  1.060904e+01    3.032370e+00
  1.062492e+01    2.956919e+00
  1.064079e+01    2.922212e+00
  1.065667e+01    2.974787e+00
  1.067254e+01    2.994621e+00
  1.068842e+01    2.938028e+00
  1.070429e+01    2.949050e+00
  1.072017e+01    2.981221e+00
  1.073604e+01    2.993595e+00
  1.075192e+01    3.007539e+00
  1.076780e+01    2.993216e+00
  1.078367e+01    2.937106e+00
  1.079955e+01    2.925425e+00
  1.081542e+01    2.929821e+00
  1.083130e+01    2.993351e+00
  1.084717e+01    2.996653e+00
  1.086305e+01    2.973478e+00
  1.087892e+01    2.985614e+00
  1.089480e+01    3.000819e+00
  1.091068e+01    3.005644e+00
  1.092655e+01    2.945289e+00
  1.094243e+01    2.904806e+00
  1.095830e+01    2.935256e+00
  1.097418e+01    2.913251e+00
  1.099005e+01    2.929708e+00
  1.100593e+01    2.918942e+00
  1.102180e+01    2.898539e+00
  1.103768e+01    2.870489e+00
  1.105356e+01    2.912783e+00
  1.106943e+01    2.954864e+00
  1.108531e+01    2.935531e+00
  1.110118e+01    2.912687e+00
  1.111706e+01    2.948071e+00
  1.113293e+01    2.977736e+00
  1.114881e+01    2.940108e+00
  1.116468e+01    2.882886e+00
  1.118056e+01    2.842599e+00
  1.119644e+01    2.860145e+00
  1.121231e+01    2.904268e+00
  1.122819e+01    2.887377e+00
  1.124406e+01    2.851476e+00
  1.125994e+01    2.867508e+00
  1.127581e+01    2.852209e+00
  1.129169e+01    2.897076e+00
  1.130756e+01    2.845948e+00
  1.132344e+01    2.861835e+00
  1.133932e+01    2.828592e+00
  1.135519e+01    2.879071e+00
  1.137107e+01    2.862381e+00
  1.138694e+01    2.820377e+00
  1.140282e+01    2.843534e+00
  1.141869e+01    2.904521e+00
  1.143457e+01    2.855282e+00
  1.145045e+01    2.823655e+00
  1.146632e+01    2.769235e+00
  1.148220e+01    2.840998e+00
  1.149807e+01    2.852623e+00
  1.151395e+01    2.835408e+00
  1.152982e+01    2.861982e+00
  1.154570e+01    2.768157e+00
  1.156157e+01    2.774398e+00
  1.157745e+01    2.807389e+00
  1.159333e+01    2.796856e+00
  1.160920e+01    2.802423e+00
  1.162508e+01    2.777465e+00
  1.164095e+01    2.746693e+00
  1.165683e+01    2.750566e+00
  1.167270e+01    2.760803e+00
  1.168858e+01    2.771794e+00
  1.170445e+01    2.786639e+00
  1.172033e+01    2.743804e+00
  1.173621e+01    2.760333e+00
  1.175208e+01    2.757832e+00
  1.176796e+01    2.749609e+00
  1.178383e+01    2.742641e+00
  1.179971e+01    2.743569e+00
  1.181558e+01    2.751680e+00
  1.183146e+01    2.811118e+00
  1.184733e+01    2.774967e+00
  1.186321e+01    2.753454e+00
  1.187909e+01    2.769432e+00
  1.189496e+01    2.742897e+00
  1.191084e+01    2.712755e+00
  1.192671e+01    2.707774e+00
  1.194259e+01    2.689360e+00
  1.195846e+01    2.781449e+00
  1.197434e+01    2.794491e+00
  1.199021e+01    2.724346e+00
  1.200609e+01    2.708353e+00
  1.202197e+01    2.686963e+00
  1.203784e+01    2.740666e+00
  1.205372e+01    2.760773e+00
  1.206959e+01    2.789735e+00
  1.208547e+01    2.700260e+00
  1.210134e+01    2.691651e+00
  1.211722e+01    2.747476e+00
  1.213309e+01    2.753725e+00
  1.214897e+01    2.697344e+00
  1.216485e+01    2.689473e+00
  1.218072e+01    2.671397e+00
  1.219660e+01    2.705926e+00
  1.221247e+01    2.706179e+00
  1.222835e+01    2.734198e+00
  1.224422e+01    2.704061e+00
  1.226010e+01    2.713802e+00
  1.227597e+01    2.740966e+00
  1.229185e+01    2.699189e+00
  1.230773e+01    2.691924e+00
  1.232360e+01    2.699950e+00
  1.233948e+01    2.726063e+00
  1.235535e+01    2.701268e+00
  1.237123e+01    2.699893e+00
  1.238710e+01    2.714124e+00
  1.240298e+01    2.713432e+00
  1.241886e+01    2.743447e+00
  1.243473e+01    2.737085e+00
  1.245061e+01    2.723276e+00
  1.246648e+01    2.712199e+00
  1.248236e+01    2.741535e+00
  1.249823e+01    2.714498e+00
  1.251411e+01    2.734076e+00
  1.252998e+01    2.718657e+00
  1.254586e+01    2.735468e+00
  1.256174e+01    2.759685e+00
  1.257761e+01    2.777919e+00
  1.259349e+01    2.728154e+00
  1.260936e+01    2.748268e+00
  1.262524e+01    2.782242e+00
  1.264111e+01    2.763469e+00
  1.265699e+01    2.787404e+00
  1.267286e+01    2.811707e+00
  1.268874e+01    2.863953e+00
  1.270462e+01    2.891688e+00
  1.272049e+01    2.901751e+00
  1.273637e+01    2.878208e+00
  1.275224e+01    2.895989e+00
  1.276812e+01    2.926475e+00
  1.278399e+01    2.966013e+00
  1.279987e+01    3.009436e+00
  1.281574e+01    3.066448e+00
  1.283162e+01    3.165867e+00
  1.284750e+01    3.221865e+00
  1.286337e+01    3.255719e+00
  1.287925e+01    3.328303e+00
  1.289512e+01    3.494818e+00
  1.291100e+01    3.648938e+00
  1.292687e+01    3.827793e+00
  1.294275e+01    4.081702e+00
  1.295862e+01    4.362179e+00
  1.297450e+01    4.835911e+00
  1.299038e+01    5.275175e+00
  1.300625e+01    5.840424e+00
  1.302213e+01    6.648837e+00
  1.303800e+01    7.560887e+00
  1.305388e+01    8.737591e+00
  1.306975e+01    1.011207e+01
  1.308563e+01    1.140400e+01
  1.310150e+01    1.252048e+01
  1.311738e+01    1.368569e+01
  1.313326e+01    1.484161e+01
  1.314913e+01    1.574746e+01
  1.316501e+01    1.617852e+01
  1.318088e+01    1.628795e+01
  1.319676e+01    1.562895e+01
  1.321263e+01    1.432940e+01
  1.322851e+01    1.259984e+01
  1.324438e+01    1.084690e+01
  1.326026e+01    9.127427e+00
  1.327614e+01    7.876948e+00
  1.329201e+01    6.785975e+00
  1.330789e+01    5.925063e+00
  1.332376e+01    5.364366e+00
  1.333964e+01    4.907600e+00
  1.335551e+01    4.486426e+00
  1.337139e+01    4.149009e+00
  1.338727e+01    3.894484e+00
  1.340314e+01    3.677879e+00
  1.341902e+01    3.490246e+00
  1.343489e+01    3.353810e+00
  1.345077e+01    3.219288e+00
  1.346664e+01    3.125840e+00
  1.348252e+01    3.039529e+00
  1.349839e+01    2.977313e+00
  1.351427e+01    2.934489e+00
  1.353015e+01    2.900141e+00
  1.354602e+01    2.873145e+00
  1.356190e+01    2.791803e+00
  1.357777e+01    2.769802e+00
  1.359365e+01    2.767998e+00
  1.360952e+01    2.667378e+00
  1.362540e+01    2.659439e+00
  1.364127e+01    2.645719e+00
  1.365715e+01    2.629869e+00
  1.367303e+01    2.629891e+00
  1.368890e+01    2.628345e+00
  1.370478e+01    2.582041e+00
  1.372065e+01    2.524771e+00
  1.373653e+01    2.515490e+00
  1.375240e+01    2.466212e+00
  1.376828e+01    2.465359e+00
  1.378415e+01    2.480003e+00
  1.380003e+01    2.491933e+00
  1.381591e+01    2.507759e+00
  1.383178e+01    2.488382e+00
  1.384766e+01    2.436399e+00
  1.386353e+01    2.450629e+00
  1.387941e+01    2.387980e+00
  1.389528e+01    2.458376e+00
  1.391116e+01    2.466491e+00
  1.392703e+01    2.424675e+00
  1.394291e+01    2.415543e+00
  1.395879e+01    2.331816e+00
  1.397466e+01    2.378944e+00
  1.399054e+01    2.393687e+00
  1.400641e+01    2.388886e+00
  1.402229e+01    2.445951e+00
  1.403816e+01    2.436595e+00
  1.405404e+01    2.395623e+00
  1.406991e+01    2.343153e+00
  1.408579e+01    2.343013e+00
  1.410167e+01    2.308947e+00
  1.411754e+01    2.324519e+00
  1.413342e+01    2.343401e+00
  1.414929e+01    2.322086e+00
  1.416517e+01    2.358557e+00
  1.418104e+01    2.314232e+00
  1.419692e+01    2.328431e+00
  1.421279e+01    2.329891e+00
  1.422867e+01    2.295817e+00
  1.424455e+01    2.313379e+00
  1.426042e+01    2.311225e+00
  1.427630e+01    2.297492e+00
  1.429217e+01    2.304676e+00
  1.430805e+01    2.253034e+00
  1.432392e+01    2.290542e+00
  1.433980e+01    2.319443e+00
  1.435568e+01    2.317032e+00
  1.437155e+01    2.304909e+00
  1.438743e+01    2.315238e+00
  1.440330e+01    2.258326e+00
  1.441918e+01    2.237785e+00
  1.443505e+01    2.209394e+00
  1.445093e+01    2.201523e+00
  1.446680e+01    2.205311e+00
  1.448268e+01    2.228676e+00
  1.449856e+01    2.265151e+00
  1.451443e+01    2.243359e+00
  1.453031e+01    2.236355e+00
  1.454618e+01    2.250214e+00
  1.456206e+01    2.275950e+00
  1.457793e+01    2.218932e+00
  1.459381e+01    2.216343e+00
  1.460968e+01    2.213030e+00
  1.462556e+01    2.232394e+00
  1.464144e+01    2.201951e+00
  1.465731e+01    2.218148e+00
  1.467319e+01    2.232707e+00
  1.468906e+01    2.247398e+00
  1.470494e+01    2.249854e+00
  1.472081e+01    2.197646e+00
  1.473669e+01    2.180305e+00
  1.475256e+01    2.200641e+00
  1.476844e+01    2.266450e+00
  1.478432e+01    2.244859e+00
  1.480019e+01    2.244597e+00
  1.481607e+01    2.226998e+00
  1.483194e+01    2.226895e+00
  1.484782e+01    2.209308e+00
  1.486369e+01    2.195514e+00
  1.487957e+01    2.212560e+00
  1.489544e+01    2.187177e+00
  1.491132e+01    2.236800e+00
  1.492720e+01    2.260781e+00
  1.494307e+01    2.341165e+00
  1.495895e+01    2.360470e+00
  1.497482e+01    2.355100e+00
  1.499070e+01    2.371522e+00
  1.500657e+01    2.444667e+00
  1.502245e+01    2.505387e+00
  1.503832e+01    2.602568e+00
  1.505420e+01    2.739271e+00
  1.507008e+01    2.824523e+00
  1.508595e+01    2.962326e+00
  1.510183e+01    3.187524e+00
  1.511770e+01    3.465397e+00
  1.513358e+01    3.769711e+00
  1.514945e+01    4.165967e+00
  1.516533e+01    4.557131e+00
  1.518120e+01    4.831179e+00
  1.519708e+01    5.150555e+00
  1.521296e+01    5.454847e+00
  1.522883e+01    5.667801e+00
  1.524471e+01    5.817899e+00
  1.526058e+01    5.846304e+00
  1.527646e+01    5.740390e+00
  1.529233e+01    5.475222e+00
  1.530821e+01    5.164263e+00
  1.532409e+01    4.690049e+00
  1.533996e+01    4.253281e+00
  1.535584e+01    3.816966e+00
  1.537171e+01    3.429321e+00
  1.538759e+01    3.165046e+00
  1.540346e+01    2.973953e+00
  1.541934e+01    2.823989e+00
  1.543521e+01    2.679511e+00
  1.545109e+01    2.550286e+00
  1.546697e+01    2.431420e+00
  1.548284e+01    2.375863e+00
  1.549872e+01    2.322647e+00
  1.551459e+01    2.254089e+00
  1.553047e+01    2.228426e+00
  1.554634e+01    2.205974e+00
  1.556222e+01    2.148302e+00
  1.557809e+01    2.112514e+00
  1.559397e+01    2.098879e+00
  1.560985e+01    2.066401e+00
  1.562572e+01    2.018584e+00
  1.564160e+01    2.063182e+00
  1.565747e+01    2.060158e+00
  1.567335e+01    2.015044e+00
  1.568922e+01    2.019536e+00
  1.570510e+01    1.990069e+00
  1.572097e+01    1.973195e+00
  1.573685e+01    1.980783e+00
  1.575273e+01    2.004927e+00
  1.576860e+01    2.015497e+00
  1.578448e+01    1.980515e+00
  1.580035e+01    1.930160e+00
  1.581623e+01    1.932131e+00
  1.583210e+01    1.940863e+00
  1.584798e+01    1.941918e+00
  1.586385e+01    1.915679e+00
  1.587973e+01    1.906591e+00
  1.589561e+01    1.934333e+00
  1.591148e+01    1.912631e+00
  1.592736e+01    1.922246e+00
  1.594323e+01    1.867329e+00
  1.595911e+01    1.835982e+00
  1.597498e+01    1.861559e+00
  1.599086e+01    1.877214e+00
  1.600673e+01    1.908948e+00
  1.602261e+01    1.879749e+00
  1.603849e+01    1.841102e+00
  1.605436e+01    1.829556e+00
  1.607024e+01    1.846067e+00
  1.608611e+01    1.875682e+00
  1.610199e+01    1.894912e+00
  1.611786e+01    1.864529e+00
  1.613374e+01    1.831969e+00
  1.614961e+01    1.862566e+00
  1.616549e+01    1.870089e+00
  1.618137e+01    1.858463e+00
  1.619724e+01    1.849880e+00
  1.621312e+01    1.827518e+00
  1.622899e+01    1.812553e+00
  1.624487e+01    1.829331e+00
  1.626074e+01    1.840446e+00
  1.627662e+01    1.800233e+00
  1.629250e+01    1.820107e+00
  1.630837e+01    1.789430e+00
  1.632425e+01    1.797688e+00
  1.634012e+01    1.799601e+00
  1.635600e+01    1.789248e+00
  1.637187e+01    1.793808e+00
  1.638775e+01    1.785382e+00
  1.640362e+01    1.771522e+00
  1.641950e+01    1.761135e+00
  1.643538e+01    1.789577e+00
  1.645125e+01    1.775680e+00
  1.646713e+01    1.783639e+00
  1.648300e+01    1.764047e+00
  1.649888e+01    1.741868e+00
  1.651475e+01    1.725301e+00
  1.653063e+01    1.742053e+00
  1.654650e+01    1.754700e+00
  1.656238e+01    1.755684e+00
  1.657826e+01    1.787974e+00
  1.659413e+01    1.780185e+00
  1.661001e+01    1.769533e+00
  1.662588e+01    1.717403e+00
  1.664176e+01    1.755340e+00
  1.665763e+01    1.732126e+00
  1.667351e+01    1.763925e+00
  1.668938e+01    1.764320e+00
  1.670526e+01    1.730577e+00
  1.672114e+01    1.691368e+00
  1.673701e+01    1.714936e+00
  1.675289e+01    1.693858e+00
  1.676876e+01    1.707269e+00
  1.678464e+01    1.719959e+00
  1.680051e+01    1.680041e+00
  1.681639e+01    1.667425e+00
  1.683226e+01    1.713010e+00
  1.684814e+01    1.703986e+00
  1.686402e+01    1.729343e+00
  1.687989e+01    1.710427e+00
  1.689577e+01    1.687398e+00
  1.691164e+01    1.681395e+00
  1.692752e+01    1.701728e+00
  1.694339e+01    1.678378e+00
  1.695927e+01    1.667491e+00
  1.697514e+01    1.668983e+00
  1.699102e+01    1.694314e+00
  1.700690e+01    1.659528e+00
  1.702277e+01    1.649740e+00
  1.703865e+01    1.654264e+00
  1.705452e+01    1.643086e+00
  1.707040e+01    1.664841e+00
  1.708627e+01    1.637543e+00
  1.710215e+01    1.638647e+00
  1.711802e+01    1.676488e+00
  1.713390e+01    1.683703e+00
  1.714978e+01    1.652357e+00
  1.716565e+01    1.640602e+00
  1.718153e+01    1.649298e+00
  1.719740e+01    1.641472e+00
  1.721328e+01    1.608312e+00
  1.722915e+01    1.640481e+00
  1.724503e+01    1.639827e+00
  1.726091e+01    1.622113e+00
  1.727678e+01    1.597689e+00
  1.729266e+01    1.656259e+00
  1.730853e+01    1.627006e+00
  1.732441e+01    1.600150e+00
  1.734028e+01    1.614270e+00
  1.735616e+01    1.641127e+00
  1.737203e+01    1.611347e+00
  1.738791e+01    1.589902e+00
  1.740379e+01    1.584710e+00
  1.741966e+01    1.562068e+00
  1.743554e+01    1.591021e+00
  1.745141e+01    1.600723e+00
  1.746729e+01    1.590826e+00
  1.748316e+01    1.596421e+00
  1.749904e+01    1.610571e+00
  1.751491e+01    1.610817e+00
  1.753079e+01    1.585518e+00
  1.754667e+01    1.599035e+00
  1.756254e+01    1.608528e+00
  1.757842e+01    1.586030e+00
  1.759429e+01    1.571241e+00
  1.761017e+01    1.546807e+00
  1.762604e+01    1.564707e+00
  1.764192e+01    1.541282e+00
  1.765779e+01    1.553762e+00
  1.767367e+01    1.545135e+00
  1.768955e+01    1.548027e+00
  1.770542e+01    1.569882e+00
  1.772130e+01    1.552420e+00
  1.773717e+01    1.565118e+00
  1.775305e+01    1.578707e+00
  1.776892e+01    1.541076e+00
  1.778480e+01    1.528454e+00
  1.780067e+01    1.573630e+00
  1.781655e+01    1.537001e+00
  1.783243e+01    1.524424e+00
  1.784830e+01    1.566506e+00
  1.786418e+01    1.573206e+00
  1.788005e+01    1.540563e+00
  1.789593e+01    1.558550e+00
  1.791180e+01    1.551687e+00
  1.792768e+01    1.549164e+00
  1.794355e+01    1.525908e+00
  1.795943e+01    1.524693e+00
  1.797531e+01    1.532975e+00
  1.799118e+01    1.519941e+00
  1.800706e+01    1.518716e+00
  1.802293e+01    1.505463e+00
  1.803881e+01    1.546618e+00
  1.805468e+01    1.519148e+00
  1.807056e+01    1.478634e+00
  1.808643e+01    1.512204e+00
  1.810231e+01    1.521482e+00
  1.811819e+01    1.520065e+00
  1.813406e+01    1.497536e+00
  1.814994e+01    1.483288e+00
  1.816581e+01    1.474671e+00
  1.818169e+01    1.495194e+00
  1.819756e+01    1.517731e+00
  1.821344e+01    1.490392e+00
  1.822932e+01    1.475249e+00
  1.824519e+01    1.491367e+00
  1.826107e+01    1.474554e+00
  1.827694e+01    1.495309e+00
  1.829282e+01    1.502111e+00
  1.830869e+01    1.499064e+00
  1.832457e+01    1.505216e+00
  1.834044e+01    1.475503e+00
  1.835632e+01    1.461836e+00
  1.837220e+01    1.481337e+00
  1.838807e+01    1.453799e+00
  1.840395e+01    1.457378e+00
  1.841982e+01    1.451848e+00
  1.843570e+01    1.451365e+00
  1.845157e+01    1.468878e+00
  1.846745e+01    1.455488e+00
  1.848332e+01    1.452002e+00
  1.849920e+01    1.445222e+00
  1.851508e+01    1.425341e+00
  1.853095e+01    1.412492e+00
  1.854683e+01    1.435500e+00
  1.856270e+01    1.444411e+00
  1.857858e+01    1.428678e+00
  1.859445e+01    1.414384e+00
  1.861033e+01    1.464064e+00
  1.862620e+01    1.461362e+00
  1.864208e+01    1.445587e+00
  1.865796e+01    1.455282e+00
  1.867383e+01    1.439768e+00
  1.868971e+01    1.431250e+00
  1.870558e+01    1.401800e+00
  1.872146e+01    1.384543e+00
  1.873733e+01    1.413435e+00
  1.875321e+01    1.390666e+00
  1.876908e+01    1.416226e+00
  1.878496e+01    1.374904e+00
  1.880084e+01    1.409068e+00
  1.881671e+01    1.446280e+00
  1.883259e+01    1.435359e+00
  1.884846e+01    1.424053e+00
  1.886434e+01    1.419435e+00
  1.888021e+01    1.431005e+00
  1.889609e+01    1.404716e+00
  1.891196e+01    1.387346e+00
  1.892784e+01    1.419584e+00
  1.894372e+01    1.427907e+00
  1.895959e+01    1.401650e+00
  1.897547e+01    1.368652e+00
  1.899134e+01    1.413320e+00
  1.900722e+01    1.384863e+00
  1.902309e+01    1.371840e+00
  1.903897e+01    1.377297e+00
  1.905484e+01    1.365722e+00
  1.907072e+01    1.398172e+00
  1.908660e+01    1.364949e+00
  1.910247e+01    1.355005e+00
  1.911835e+01    1.353506e+00
  1.913422e+01    1.354957e+00
  1.915010e+01    1.380139e+00
  1.916597e+01    1.394867e+00
  1.918185e+01    1.377694e+00
  1.919773e+01    1.357843e+00
  1.921360e+01    1.359937e+00
  1.922948e+01    1.385259e+00
  1.924535e+01    1.387100e+00
  1.926123e+01    1.369013e+00
  1.927710e+01    1.362043e+00
  1.929298e+01    1.395447e+00
  1.930885e+01    1.375044e+00
  1.932473e+01    1.367277e+00
  1.934061e+01    1.324149e+00
  1.935648e+01    1.336269e+00
  1.937236e+01    1.336508e+00
  1.938823e+01    1.351540e+00
  1.940411e+01    1.326421e+00
  1.941998e+01    1.345146e+00
  1.943586e+01    1.382384e+00
  1.945173e+01    1.365832e+00
  1.946761e+01    1.346447e+00
  1.948349e+01    1.308023e+00
  1.949936e+01    1.340654e+00
  1.951524e+01    1.349724e+00
  1.953111e+01    1.326905e+00
  1.954699e+01    1.314380e+00
  1.956286e+01    1.328722e+00
  1.957874e+01    1.318902e+00
  1.959461e+01    1.324669e+00
  1.961049e+01    1.348207e+00
  1.962637e+01    1.341970e+00
  1.964224e+01    1.316648e+00
  1.965812e+01    1.322929e+00
  1.967399e+01    1.325193e+00
  1.968987e+01    1.336357e+00
  1.970574e+01    1.325557e+00
  1.972162e+01    1.332140e+00
  1.973749e+01    1.300227e+00
  1.975337e+01    1.315716e+00
  1.976925e+01    1.312936e+00
  1.978512e+01    1.313963e+00
  1.980100e+01    1.313786e+00
  1.981687e+01    1.332286e+00
  1.983275e+01    1.312575e+00
  1.984862e+01    1.324077e+00
  1.986450e+01    1.307128e+00
  1.988037e+01    1.297858e+00
  1.989625e+01    1.292683e+00
  1.991213e+01    1.277008e+00
  1.992800e+01    1.302026e+00
  1.994388e+01    1.301433e+00
  1.995975e+01    1.293990e+00
  1.997563e+01    1.279284e+00
  1.999150e+01    1.290449e+00
  2.000738e+01    1.303570e+00
  2.002325e+01    1.309928e+00
  2.003913e+01    1.292654e+00
  2.005501e+01    1.285040e+00
  2.007088e+01    1.293350e+00
  2.008676e+01    1.285594e+00
  2.010263e+01    1.271017e+00
  2.011851e+01    1.259067e+00
  2.013438e+01    1.248560e+00
  2.015026e+01    1.270904e+00
  2.016614e+01    1.281598e+00
  2.018201e+01    1.310560e+00
  2.019789e+01    1.288020e+00
  2.021376e+01    1.274483e+00
  2.022964e+01    1.267636e+00
  2.024551e+01    1.255723e+00
  2.026139e+01    1.265536e+00
  2.027726e+01    1.249280e+00
  2.029314e+01    1.228939e+00
  2.030902e+01    1.229362e+00
  2.032489e+01    1.239377e+00
  2.034077e+01    1.246751e+00
  2.035664e+01    1.252681e+00
  2.037252e+01    1.245567e+00
  2.038839e+01    1.243044e+00
  2.040427e+01    1.258791e+00
  2.042014e+01    1.253708e+00
  2.043602e+01    1.249539e+00
  2.045190e+01    1.242936e+00
  2.046777e+01    1.243983e+00
  2.048365e+01    1.246614e+00
  2.049952e+01    1.219066e+00
  2.051540e+01    1.242677e+00
  2.053127e+01    1.245301e+00
  2.054715e+01    1.244707e+00
  2.056302e+01    1.243338e+00
  2.057890e+01    1.254422e+00
  2.059478e+01    1.260169e+00
  2.061065e+01    1.259832e+00
  2.062653e+01    1.262433e+00
  2.064240e+01    1.253028e+00
  2.065828e+01    1.227984e+00
  2.067415e+01    1.236762e+00
  2.069003e+01    1.228671e+00
  2.070590e+01    1.236999e+00
  2.072178e+01    1.255616e+00
  2.073766e+01    1.242310e+00
  2.075353e+01    1.234243e+00
  2.076941e+01    1.224704e+00
  2.078528e+01    1.239961e+00
  2.080116e+01    1.215212e+00
  2.081703e+01    1.216580e+00
  2.083291e+01    1.245582e+00
  2.084878e+01    1.236326e+00
  2.086466e+01    1.252940e+00
  2.088054e+01    1.257673e+00
  2.089641e+01    1.236981e+00
  2.091229e+01    1.229376e+00
  2.092816e+01    1.201104e+00
  2.094404e+01    1.216873e+00
  2.095991e+01    1.231242e+00
  2.097579e+01    1.239020e+00
  2.099166e+01    1.243912e+00
  2.100754e+01    1.244972e+00
  2.102342e+01    1.229808e+00
  2.103929e+01    1.235422e+00
  2.105517e+01    1.255325e+00
  2.107104e+01    1.241454e+00
  2.108692e+01    1.220640e+00
  2.110279e+01    1.220227e+00
  2.111867e+01    1.223605e+00
  2.113455e+01    1.195031e+00
  2.115042e+01    1.215430e+00
  2.116630e+01    1.239651e+00
  2.118217e+01    1.223831e+00
  2.119805e+01    1.236959e+00
  2.121392e+01    1.280878e+00
  2.122980e+01    1.249934e+00
  2.124567e+01    1.253175e+00
  2.126155e+01    1.248004e+00
  2.127743e+01    1.271779e+00
  2.129330e+01    1.278110e+00
  2.130918e+01    1.272310e+00
  2.132505e+01    1.282113e+00
  2.134093e+01    1.316267e+00
  2.135680e+01    1.286782e+00
  2.137268e+01    1.285383e+00
  2.138855e+01    1.332700e+00
  2.140443e+01    1.311290e+00
  2.142031e+01    1.317424e+00
  2.143618e+01    1.345300e+00
  2.145206e+01    1.382975e+00
  2.146793e+01    1.365919e+00
  2.148381e+01    1.360743e+00
  2.149968e+01    1.427922e+00
  2.151556e+01    1.471563e+00
  2.153143e+01    1.489682e+00
  2.154731e+01    1.524112e+00
  2.156319e+01    1.551008e+00
  2.157906e+01    1.602789e+00
  2.159494e+01    1.672982e+00
  2.161081e+01    1.766665e+00
  2.162669e+01    1.849660e+00
  2.164256e+01    1.951540e+00
  2.165844e+01    2.076677e+00
  2.167431e+01    2.270947e+00
  2.169019e+01    2.475344e+00
  2.170607e+01    2.741683e+00
  2.172194e+01    3.091184e+00
  2.173782e+01    3.525032e+00
  2.175369e+01    3.947830e+00
  2.176957e+01    4.506881e+00
  2.178544e+01    5.130812e+00
  2.180132e+01    5.788887e+00
  2.181719e+01    6.457737e+00
  2.183307e+01    7.060833e+00
  2.184895e+01    7.723665e+00
  2.186482e+01    8.269441e+00
  2.188070e+01    8.724759e+00
  2.189657e+01    8.987252e+00
  2.191245e+01    8.834649e+00
  2.192832e+01    8.339014e+00
  2.194420e+01    7.545455e+00
  2.196007e+01    6.695673e+00
  2.197595e+01    5.827225e+00
  2.199183e+01    4.989626e+00
  2.200770e+01    4.291167e+00
  2.202358e+01    3.704553e+00
  2.203945e+01    3.181447e+00
  2.205533e+01    2.880385e+00
  2.207120e+01    2.609423e+00
  2.208708e+01    2.332676e+00
  2.210296e+01    2.168943e+00
  2.211883e+01    2.016234e+00
  2.213471e+01    1.884811e+00
  2.215058e+01    1.780609e+00
  2.216646e+01    1.685324e+00
  2.218233e+01    1.631920e+00
  2.219821e+01    1.537922e+00
  2.221408e+01    1.491534e+00
  2.222996e+01    1.436299e+00
  2.224584e+01    1.397141e+00
  2.226171e+01    1.368882e+00
  2.227759e+01    1.360389e+00
  2.229346e+01    1.336652e+00
  2.230934e+01    1.296876e+00
  2.232521e+01    1.262391e+00
  2.234109e+01    1.252620e+00
  2.235696e+01    1.248960e+00
  2.237284e+01    1.249320e+00
  2.238872e+01    1.250923e+00
  2.240459e+01    1.200536e+00
  2.242047e+01    1.208845e+00
  2.243634e+01    1.198868e+00
  2.245222e+01    1.182237e+00
  2.246809e+01    1.176278e+00
  2.248397e+01    1.157825e+00
  2.249984e+01    1.164962e+00
  2.251572e+01    1.149360e+00
  2.253160e+01    1.141963e+00
  2.254747e+01    1.157412e+00
  2.256335e+01    1.095370e+00
  2.257922e+01    1.096095e+00
  2.259510e+01    1.109074e+00
  2.261097e+01    1.129924e+00
  2.262685e+01    1.099658e+00
  2.264272e+01    1.083812e+00
  2.265860e+01    1.086340e+00
  2.267448e+01    1.078703e+00
  2.269035e+01    1.092210e+00
  2.270623e+01    1.099608e+00
  2.272210e+01    1.094996e+00
  2.273798e+01    1.085781e+00
  2.275385e+01    1.077670e+00
  2.276973e+01    1.072092e+00
  2.278560e+01    1.066190e+00
  2.280148e+01    1.074533e+00
  2.281736e+01    1.060595e+00
  2.283323e+01    1.051068e+00
  2.284911e+01    1.046029e+00
  2.286498e+01    1.077661e+00
  2.288086e+01    1.055539e+00
  2.289673e+01    1.045364e+00
  2.291261e+01    1.040277e+00
  2.292848e+01    1.044475e+00
  2.294436e+01    1.064568e+00
  2.296024e+01    1.030885e+00
  2.297611e+01    9.892164e-01
  2.299199e+01    1.009239e+00
  2.300786e+01    1.031256e+00
  2.302374e+01    1.019313e+00
  2.303961e+01    1.005767e+00
  2.305549e+01    1.016980e+00
  2.307137e+01    1.014693e+00
  2.308724e+01    1.013308e+00
  2.310312e+01    1.004021e+00
  2.311899e+01    9.922603e-01
  2.313487e+01    1.022826e+00
  2.315074e+01    1.024557e+00
  2.316662e+01    1.012626e+00
  2.318249e+01    9.915269e-01
  2.319837e+01    1.012022e+00
  2.321425e+01    1.002390e+00
  2.323012e+01    1.009043e+00
  2.324600e+01    9.823000e-01
  2.326187e+01    9.806833e-01
  2.327775e+01    9.818715e-01
  2.329362e+01    9.794574e-01
  2.330950e+01    1.001148e+00
  2.332537e+01    1.003778e+00
  2.334125e+01    9.978896e-01
  2.335713e+01    9.819807e-01
  2.337300e+01    9.712380e-01
  2.338888e+01    9.972647e-01
  2.340475e+01    9.831777e-01
  2.342063e+01    9.740686e-01
  2.343650e+01    9.639059e-01
  2.345238e+01    9.492295e-01
  2.346825e+01    9.616568e-01
  2.348413e+01    9.610077e-01
  2.350001e+01    9.855982e-01
  2.351588e+01    9.668294e-01
  2.353176e+01    9.596093e-01
  2.354763e+01    9.542072e-01
  2.356351e+01    9.504571e-01
  2.357938e+01    9.741002e-01
  2.359526e+01    9.838239e-01
  2.361113e+01    9.885321e-01
  2.362701e+01    9.844395e-01
  2.364289e+01    9.681724e-01
  2.365876e+01    9.373456e-01
  2.367464e+01    9.238576e-01
  2.369051e+01    9.180452e-01
  2.370639e+01    9.274003e-01
  2.372226e+01    9.441131e-01
  2.373814e+01    9.384242e-01
  2.375401e+01    9.481378e-01
  2.376989e+01    9.494760e-01
  2.378577e+01    9.565005e-01
  2.380164e+01    9.486594e-01
  2.381752e+01    9.329731e-01
  2.383339e+01    9.248213e-01
  2.384927e+01    9.173769e-01
  2.386514e+01    9.226013e-01
  2.388102e+01    9.230874e-01
  2.389689e+01    9.102933e-01
  2.391277e+01    9.036207e-01
  2.392865e+01    9.023693e-01
  2.394452e+01    8.826774e-01
  2.396040e+01    8.825459e-01
  2.397627e+01    9.063290e-01
  2.399215e+01    9.236678e-01
  2.400802e+01    9.169424e-01
  2.402390e+01    8.942699e-01
  2.403978e+01    8.969096e-01
  2.405565e+01    8.864616e-01
  2.407153e+01    8.796122e-01
  2.408740e+01    8.867600e-01
  2.410328e+01    8.805237e-01
  2.411915e+01    8.992066e-01
  2.413503e+01    9.254932e-01
  2.415090e+01    8.970793e-01
  2.416678e+01    8.782539e-01
  2.418266e+01    8.743227e-01
  2.419853e+01    8.821883e-01
  2.421441e+01    8.813764e-01
  2.423028e+01    8.774101e-01
  2.424616e+01    8.862608e-01
  2.426203e+01    9.011421e-01
  2.427791e+01    8.887240e-01
  2.429378e+01    8.888208e-01
  2.430966e+01    8.975030e-01
  2.432554e+01    8.855195e-01
  2.434141e+01    9.057116e-01
  2.435729e+01    8.959346e-01
  2.437316e+01    8.869175e-01
  2.438904e+01    8.808503e-01
  2.440491e+01    9.218993e-01
  2.442079e+01    9.097460e-01
  2.443666e+01    9.037844e-01
  2.445254e+01    8.922592e-01
  2.446842e+01    9.140977e-01
  2.448429e+01    9.086303e-01
  2.450017e+01    8.920011e-01
  2.451604e+01    8.948706e-01
  2.453192e+01    9.043609e-01
  2.454779e+01    9.187674e-01
  2.456367e+01    9.009318e-01
  2.457954e+01    9.052728e-01
  2.459542e+01    9.067166e-01
  2.461130e+01    9.018410e-01
  2.462717e+01    8.944371e-01
  2.464305e+01    8.991311e-01
  2.465892e+01    8.823603e-01
  2.467480e+01    8.985705e-01
  2.469067e+01    8.995352e-01
  2.470655e+01    8.963208e-01
  2.472242e+01    8.928632e-01
  2.473830e+01    8.844079e-01
  2.475418e+01    9.058633e-01
  2.477005e+01    8.899655e-01
  2.478593e+01    8.917568e-01
  2.480180e+01    8.975254e-01
  2.481768e+01    8.930637e-01
  2.483355e+01    8.994026e-01
  2.484943e+01    8.928991e-01
  2.486530e+01    8.859000e-01
  2.488118e+01    8.993340e-01
  2.489706e+01    8.896959e-01
  2.491293e+01    9.049696e-01
  2.492881e+01    8.827713e-01
  2.494468e+01    8.900988e-01
  2.496056e+01    8.812385e-01
  2.497643e+01    8.754346e-01
  2.499231e+01    8.756283e-01
  2.500819e+01    8.886669e-01
  2.502406e+01    8.939176e-01
  2.503994e+01    8.889086e-01
  2.505581e+01    9.037725e-01
  2.507169e+01    9.250347e-01
  2.508756e+01    9.068787e-01
  2.510344e+01    9.113393e-01
  2.511931e+01    9.140972e-01
  2.513519e+01    8.976127e-01
  2.515107e+01    9.058402e-01
  2.516694e+01    9.082613e-01
  2.518282e+01    8.935767e-01
  2.519869e+01    9.180549e-01
  2.521457e+01    9.420274e-01
  2.523044e+01    9.373631e-01
  2.524632e+01    9.341403e-01
  2.526219e+01    9.536797e-01
  2.527807e+01    9.586281e-01
  2.529395e+01    9.646331e-01
  2.530982e+01    9.702412e-01
  2.532570e+01    9.466785e-01
  2.534157e+01    9.735246e-01
  2.535745e+01    9.774078e-01
  2.537332e+01    9.793963e-01
  2.538920e+01    1.007311e+00
  2.540507e+01    1.015426e+00
  2.542095e+01    1.011785e+00
  2.543683e+01    1.007523e+00
  2.545270e+01    1.018142e+00
  2.546858e+01    1.007440e+00
  2.548445e+01    1.020831e+00
  2.550033e+01    1.069155e+00
  2.551620e+01    1.090904e+00
  2.553208e+01    1.093833e+00
  2.554795e+01    1.107287e+00
  2.556383e+01    1.129906e+00
  2.557971e+01    1.157029e+00
  2.559558e+01    1.192475e+00
  2.561146e+01    1.228575e+00
  2.562733e+01    1.252897e+00
  2.564321e+01    1.302404e+00
  2.565908e+01    1.342399e+00
  2.567496e+01    1.391057e+00
  2.569083e+01    1.478559e+00
  2.570671e+01    1.604216e+00
  2.572259e+01    1.694141e+00
  2.573846e+01    1.843162e+00
  2.575434e+01    2.030996e+00
  2.577021e+01    2.214012e+00
  2.578609e+01    2.461393e+00
  2.580196e+01    2.771380e+00
  2.581784e+01    3.138139e+00
  2.583371e+01    3.574930e+00
  2.584959e+01    4.086206e+00
  2.586547e+01    4.631656e+00
  2.588134e+01    5.234491e+00
  2.589722e+01    5.833604e+00
  2.591309e+01    6.314041e+00
  2.592897e+01    6.753559e+00
  2.594484e+01    7.058619e+00
  2.596072e+01    7.141096e+00
  2.597660e+01    6.948083e+00
  2.599247e+01    6.597757e+00
  2.600835e+01    6.089540e+00
  2.602422e+01    5.380193e+00
  2.604010e+01    4.694877e+00
  2.605597e+01    4.041479e+00
  2.607185e+01    3.481113e+00
  2.608772e+01    3.065895e+00
  2.610360e+01    2.699512e+00
  2.611948e+01    2.385296e+00
  2.613535e+01    2.158422e+00
  2.615123e+01    1.965711e+00
  2.616710e+01    1.802368e+00
  2.618298e+01    1.685974e+00
  2.619885e+01    1.579641e+00
  2.621473e+01    1.500047e+00
  2.623060e+01    1.446634e+00
  2.624648e+01    1.366727e+00
  2.626236e+01    1.329874e+00
  2.627823e+01    1.269748e+00
  2.629411e+01    1.216695e+00
  2.630998e+01    1.194195e+00
  2.632586e+01    1.147643e+00
  2.634173e+01    1.146109e+00
  2.635761e+01    1.137884e+00
  2.637348e+01    1.117598e+00
  2.638936e+01    1.087340e+00
  2.640524e+01    1.062956e+00
  2.642111e+01    1.029193e+00
  2.643699e+01    1.041803e+00
  2.645286e+01    1.034083e+00
  2.646874e+01    1.016929e+00
  2.648461e+01    1.015167e+00
  2.650049e+01    1.007906e+00
  2.651636e+01    1.007532e+00
  2.653224e+01    1.006438e+00
  2.654812e+01    9.815599e-01
  2.656399e+01    9.785963e-01
  2.657987e+01    9.969391e-01
  2.659574e+01    9.843702e-01
  2.661162e+01    9.628510e-01
  2.662749e+01    9.799079e-01
  2.664337e+01    9.765159e-01
  2.665924e+01    9.720836e-01
  2.667512e+01    9.929532e-01
  2.669100e+01    9.599438e-01
  2.670687e+01    9.955814e-01
  2.672275e+01    9.878475e-01
  2.673862e+01    9.489107e-01
  2.675450e+01    9.669008e-01
  2.677037e+01    9.874578e-01
  2.678625e+01    9.691572e-01
  2.680212e+01    9.674230e-01
  2.681800e+01    9.751693e-01
  2.683388e+01    9.769579e-01
  2.684975e+01    9.858887e-01
  2.686563e+01    9.866641e-01
  2.688150e+01    9.929740e-01
  2.689738e+01    1.014417e+00
  2.691325e+01    1.018831e+00
  2.692913e+01    1.032291e+00
  2.694501e+01    1.030228e+00
  2.696088e+01    1.043238e+00
  2.697676e+01    1.026094e+00
  2.699263e+01    1.067799e+00
  2.700851e+01    1.114186e+00
  2.702438e+01    1.143833e+00
  2.704026e+01    1.166656e+00
  2.705613e+01    1.237736e+00
  2.707201e+01    1.330976e+00
  2.708789e+01    1.398454e+00
  2.710376e+01    1.497014e+00
  2.711964e+01    1.608495e+00
  2.713551e+01    1.737344e+00
  2.715139e+01    1.867224e+00
  2.716726e+01    1.974824e+00
  2.718314e+01    2.051908e+00
  2.719901e+01    2.154373e+00
  2.721489e+01    2.222089e+00
  2.723077e+01    2.192091e+00
  2.724664e+01    2.104765e+00
  2.726252e+01    1.961744e+00
  2.727839e+01    1.828641e+00
  2.729427e+01    1.694600e+00
  2.731014e+01    1.574775e+00
  2.732602e+01    1.447232e+00
  2.734189e+01    1.330598e+00
  2.735777e+01    1.278647e+00
  2.737365e+01    1.242453e+00
  2.738952e+01    1.156392e+00
  2.740540e+01    1.127558e+00
  2.742127e+01    1.109572e+00
  2.743715e+01    1.069646e+00
  2.745302e+01    1.029978e+00
  2.746890e+01    1.014405e+00
  2.748477e+01    1.003374e+00
  2.750065e+01    9.973989e-01
  2.751653e+01    1.007814e+00
  2.753240e+01    9.637054e-01
  2.754828e+01    9.345796e-01
  2.756415e+01    9.423658e-01
  2.758003e+01    9.218639e-01
  2.759590e+01    9.144868e-01
  2.761178e+01    9.322128e-01
  2.762765e+01    9.368290e-01
  2.764353e+01    9.099175e-01
  2.765941e+01    9.389977e-01
  2.767528e+01    9.345485e-01
  2.769116e+01    9.215303e-01
  2.770703e+01    9.186625e-01
  2.772291e+01    9.196604e-01
  2.773878e+01    9.011635e-01
  2.775466e+01    8.954623e-01
  2.777054e+01    9.108444e-01
  2.778641e+01    8.904887e-01
  2.780229e+01    8.968017e-01
  2.781816e+01    9.154693e-01
  2.783404e+01    8.673217e-01
  2.784991e+01    8.656244e-01
  2.786579e+01    8.743902e-01
  2.788166e+01    8.747702e-01
  2.789754e+01    8.552974e-01
  2.791342e+01    8.664601e-01
  2.792929e+01    8.703379e-01
  2.794517e+01    8.827240e-01
  2.796104e+01    8.704678e-01
  2.797692e+01    8.427221e-01
  2.799279e+01    8.617120e-01
  2.800867e+01    8.611749e-01
  2.802454e+01    8.523512e-01
  2.804042e+01    8.614305e-01
  2.805630e+01    8.698477e-01
  2.807217e+01    8.618087e-01
  2.808805e+01    8.646755e-01
  2.810392e+01    8.675857e-01
  2.811980e+01    8.721001e-01
  2.813567e+01    8.854799e-01
  2.815155e+01    8.500133e-01
  2.816742e+01    8.527373e-01
  2.818330e+01    8.557464e-01
  2.819918e+01    8.571870e-01
  2.821505e+01    8.500322e-01
  2.823093e+01    8.816600e-01
  2.824680e+01    8.683996e-01
  2.826268e+01    8.764181e-01
  2.827855e+01    8.517723e-01
  2.829443e+01    8.525963e-01
  2.831030e+01    8.582838e-01
  2.832618e+01    8.467734e-01
  2.834206e+01    8.644953e-01
  2.835793e+01    8.510932e-01
  2.837381e+01    8.707567e-01
  2.838968e+01    8.706127e-01
  2.840556e+01    8.430752e-01
  2.842143e+01    8.490274e-01
  2.843731e+01    8.418929e-01
  2.845318e+01    8.571394e-01
  2.846906e+01    8.622038e-01
  2.848494e+01    8.538234e-01
  2.850081e+01    8.481179e-01
  2.851669e+01    8.237599e-01
  2.853256e+01    8.444980e-01
  2.854844e+01    8.531423e-01
  2.856431e+01    8.362345e-01
  2.858019e+01    8.350699e-01
  2.859606e+01    8.507378e-01
  2.861194e+01    8.550738e-01
  2.862782e+01    8.377012e-01
  2.864369e+01    8.425773e-01
  2.865957e+01    8.503886e-01
  2.867544e+01    8.498306e-01
  2.869132e+01    8.430015e-01
  2.870719e+01    8.277994e-01
  2.872307e+01    8.219908e-01
  2.873895e+01    8.291291e-01
  2.875482e+01    8.444122e-01
  2.877070e+01    8.417925e-01
  2.878657e+01    8.265800e-01
  2.880245e+01    8.254973e-01
  2.881832e+01    8.323187e-01
  2.883420e+01    8.372870e-01
  2.885007e+01    8.520295e-01
  2.886595e+01    8.449906e-01
  2.888183e+01    8.078251e-01
  2.889770e+01    8.097382e-01
  2.891358e+01    8.181660e-01
  2.892945e+01    8.372104e-01
  2.894533e+01    8.190398e-01
  2.896120e+01    8.340070e-01
  2.897708e+01    8.346969e-01
  2.899295e+01    8.432329e-01
  2.900883e+01    8.261033e-01
  2.902471e+01    8.094737e-01
  2.904058e+01    8.134724e-01
  2.905646e+01    8.066382e-01
  2.907233e+01    8.259268e-01
  2.908821e+01    8.197803e-01
  2.910408e+01    8.241318e-01
  2.911996e+01    8.292473e-01
  2.913583e+01    8.350109e-01
  2.915171e+01    8.200523e-01
  2.916759e+01    8.090879e-01
  2.918346e+01    8.071706e-01
  2.919934e+01    8.063837e-01
  2.921521e+01    8.272215e-01
  2.923109e+01    8.028537e-01
  2.924696e+01    8.149056e-01
  2.926284e+01    8.266674e-01
  2.927871e+01    8.234699e-01
  2.929459e+01    8.330653e-01
  2.931047e+01    8.204148e-01
  2.932634e+01    8.055127e-01
  2.934222e+01    8.075263e-01
  2.935809e+01    8.125622e-01
  2.937397e+01    8.254368e-01
  2.938984e+01    8.192105e-01
  2.940572e+01    7.882342e-01
  2.942159e+01    7.980279e-01
  2.943747e+01    8.154474e-01
  2.945335e+01    8.116375e-01
  2.946922e+01    7.967402e-01
  2.948510e+01    8.025303e-01
  2.950097e+01    8.028366e-01
  2.951685e+01    8.051267e-01
  2.953272e+01    7.997102e-01
  2.954860e+01    8.054506e-01
  2.956447e+01    7.991086e-01
  2.958035e+01    8.078291e-01
  2.959623e+01    8.113621e-01
  2.961210e+01    7.970380e-01
  2.962798e+01    8.088277e-01
  2.964385e+01    7.936561e-01
  2.965973e+01    7.906362e-01
  2.967560e+01    7.740613e-01
  2.969148e+01    7.741816e-01
  2.970736e+01    7.985021e-01
  2.972323e+01    8.001766e-01
  2.973911e+01    7.939815e-01
  2.975498e+01    7.838879e-01
  2.977086e+01    8.023462e-01
  2.978673e+01    8.090482e-01
  2.980261e+01    8.020095e-01
  2.981848e+01    7.915948e-01
  2.983436e+01    7.832333e-01
  2.985024e+01    7.939627e-01
  2.986611e+01    7.758110e-01
  2.988199e+01    7.904472e-01
  2.989786e+01    8.130026e-01
  2.991374e+01    7.844819e-01
  2.992961e+01    7.944081e-01
  2.994549e+01    7.784772e-01
  2.996136e+01    7.995980e-01
  2.997724e+01    8.086603e-01
  2.999312e+01    8.117247e-01
  3.000899e+01    8.330353e-01
  3.002487e+01    8.226780e-01
  3.004074e+01    8.190987e-01
  3.005662e+01    8.217304e-01
  3.007249e+01    8.198247e-01
  3.008837e+01    7.962902e-01
  3.010424e+01    8.094730e-01
  3.012012e+01    7.991983e-01
  3.013600e+01    8.142383e-01
  3.015187e+01    8.061310e-01
  3.016775e+01    7.966589e-01
  3.018362e+01    7.831153e-01
  3.019950e+01    7.735137e-01
  3.021537e+01    7.747769e-01
  3.023125e+01    7.955353e-01
  3.024712e+01    7.948875e-01
  3.026300e+01    7.920976e-01
  3.027888e+01    7.964914e-01
  3.029475e+01    8.175935e-01
  3.031063e+01    7.940152e-01
  3.032650e+01    7.957985e-01
  3.034238e+01    8.135951e-01
  3.035825e+01    8.018383e-01
  3.037413e+01    7.927840e-01
  3.039000e+01    8.075794e-01
  3.040588e+01    8.006042e-01
  3.042176e+01    7.830096e-01
  3.043763e+01    8.011289e-01
  3.045351e+01    8.130858e-01
  3.046938e+01    7.940221e-01
  3.048526e+01    7.692320e-01
  3.050113e+01    7.848006e-01
  3.051701e+01    7.942916e-01
  3.053288e+01    7.805902e-01
  3.054876e+01    7.868230e-01
  3.056464e+01    7.962192e-01
  3.058051e+01    7.933450e-01
  3.059639e+01    7.887138e-01
  3.061226e+01    8.106505e-01
  3.062814e+01    8.183740e-01
  3.064401e+01    7.903216e-01
  3.065989e+01    7.871660e-01
  3.067577e+01    7.839373e-01
  3.069164e+01    7.753078e-01
  3.070752e+01    7.814370e-01
  3.072339e+01    7.939301e-01
  3.073927e+01    7.910122e-01
  3.075514e+01    7.800909e-01
  3.077102e+01    7.830706e-01
  3.078689e+01    7.831356e-01
  3.080277e+01    7.844718e-01
  3.081865e+01    8.032712e-01
  3.083452e+01    7.656839e-01
  3.085040e+01    7.763786e-01
  3.086627e+01    8.016633e-01
  3.088215e+01    7.836336e-01
  3.089802e+01    7.862648e-01
  3.091390e+01    7.856080e-01
  3.092977e+01    7.851236e-01
  3.094565e+01    7.739711e-01
  3.096153e+01    7.666631e-01
  3.097740e+01    7.710607e-01
  3.099328e+01    7.793314e-01
  3.100915e+01    7.850286e-01
  3.102503e+01    7.994693e-01
  3.104090e+01    8.006242e-01
  3.105678e+01    7.757418e-01
  3.107265e+01    7.710727e-01
  3.108853e+01    7.881525e-01
  3.110441e+01    8.018763e-01
  3.112028e+01    7.990016e-01
  3.113616e+01    7.903444e-01
  3.115203e+01    8.002447e-01
  3.116791e+01    8.029358e-01
  3.118378e+01    8.089234e-01
  3.119966e+01    7.813914e-01
  3.121553e+01    8.163631e-01
  3.123141e+01    7.998236e-01
  3.124729e+01    7.889977e-01
  3.126316e+01    7.791778e-01
  3.127904e+01    7.975038e-01
  3.129491e+01    8.129864e-01
  3.131079e+01    7.910838e-01
  3.132666e+01    7.961543e-01
  3.134254e+01    8.034657e-01
  3.135841e+01    7.941883e-01
  3.137429e+01    7.964243e-01
  3.139017e+01    8.082442e-01
  3.140604e+01    8.215697e-01
  3.142192e+01    7.960450e-01
  3.143779e+01    7.867005e-01
  3.145367e+01    8.222989e-01
  3.146954e+01    8.307084e-01
  3.148542e+01    8.379761e-01
  3.150129e+01    8.355318e-01
  3.151717e+01    8.501748e-01
  3.153305e+01    8.491043e-01
  3.154892e+01    8.359103e-01
  3.156480e+01    8.311042e-01
  3.158067e+01    8.709995e-01
  3.159655e+01    8.729265e-01
  3.161242e+01    8.767468e-01
  3.162830e+01    9.005975e-01
  3.164418e+01    9.425691e-01
  3.166005e+01    9.346242e-01
  3.167593e+01    9.663850e-01
  3.169180e+01    9.942155e-01
  3.170768e+01    1.017035e+00
  3.172355e+01    1.076832e+00
  3.173943e+01    1.123127e+00
  3.175530e+01    1.194040e+00
  3.177118e+01    1.241311e+00
  3.178706e+01    1.345063e+00
  3.180293e+01    1.443175e+00
  3.181881e+01    1.565284e+00
  3.183468e+01    1.718505e+00
  3.185056e+01    1.808473e+00
  3.186643e+01    1.950466e+00
  3.188231e+01    2.029228e+00
  3.189818e+01    2.060429e+00
  3.191406e+01    2.058031e+00
  3.192994e+01    2.010244e+00
  3.194581e+01    1.935278e+00
  3.196169e+01    1.836240e+00
  3.197756e+01    1.682541e+00
  3.199344e+01    1.580629e+00
  3.200931e+01    1.443128e+00
  3.202519e+01    1.311138e+00
  3.204106e+01    1.225314e+00
  3.205694e+01    1.180943e+00
  3.207282e+01    1.121806e+00
  3.208869e+01    1.064737e+00
  3.210457e+01    9.996237e-01
  3.212044e+01    9.655309e-01
  3.213632e+01    9.481111e-01
  3.215219e+01    9.509339e-01
  3.216807e+01    9.215900e-01
  3.218394e+01    8.685700e-01
  3.219982e+01    8.649735e-01
  3.221570e+01    8.677391e-01
  3.223157e+01    8.421262e-01
  3.224745e+01    8.225718e-01
  3.226332e+01    8.273160e-01
  3.227920e+01    8.330688e-01
  3.229507e+01    8.155010e-01
  3.231095e+01    8.342105e-01
  3.232682e+01    7.905699e-01
  3.234270e+01    8.011444e-01
  3.235858e+01    8.217037e-01
  3.237445e+01    8.074774e-01
  3.239033e+01    8.012946e-01
  3.240620e+01    8.038425e-01
  3.242208e+01    7.980491e-01
  3.243795e+01    7.969502e-01
  3.245383e+01    7.846619e-01
  3.246970e+01    7.782384e-01
  3.248558e+01    7.852409e-01
  3.250146e+01    7.831284e-01
  3.251733e+01    7.620486e-01
  3.253321e+01    7.591228e-01
  3.254908e+01    7.599220e-01
