# == pyFAI calibration ==
# Distance Sample to Detector: 0.3999999939076516 m
# PONI: 9.750e-02, 1.135e-01 m
# Rotations: -0.000175 0.000000 -0.000000 rad
# 
# == Fit2d calibration ==
# Distance Sample-beamCenter: 400.000 mm
# Center: x=1514.000, y=1300.000 pix
# Tilt: 0.010 deg  TiltPlanRot: 0.010 deg
# 
# Detector Detector	 Spline= None	 PixelSize= 7.500e-05, 7.500e-05 m
#    Detector has a mask: False 
#    Detector has a dark current: False 
#    detector has a flat field: False 
# 
# Wavelength: 6.888e-11 m
# Mask applied: user provided
# Dark current applied: False
# Flat field applied: False
# Polarization factor: 0.99
# Normalization factor: 1.0
# --> /home/myspot/data/2024_07_Rosario/Ru-CGO-ex/2024-07-27_003_Ru-CGO-ex_Reaction_dwell_000023_data_000135.dat
#       q_nm^-1             I 
  2.003187e-02    2.195781e-01
  3.590745e-02    1.701127e-01
  5.178302e-02    2.133850e-01
  6.765859e-02    1.390478e-01
  8.353417e-02    8.640600e-02
  9.940974e-02    5.683564e-02
  1.152853e-01    2.237655e-02
  1.311609e-01    3.702858e-02
  1.470365e-01    5.090712e-02
  1.629120e-01    1.589162e-02
  1.787876e-01    3.526323e-02
  1.946632e-01    6.470793e-02
  2.105388e-01    4.013780e-02
  2.264143e-01    4.180497e-02
  2.422899e-01    3.631307e-02
  2.581655e-01    3.737375e-02
  2.740411e-01    9.177557e-02
  2.899166e-01    5.611591e-02
  3.057922e-01    3.870137e-02
  3.216678e-01    4.232176e-02
  3.375433e-01    3.361724e-02
  3.534189e-01    3.527413e-02
  3.692945e-01    6.335308e-02
  3.851701e-01    4.225655e-02
  4.010456e-01    1.523804e-02
  4.169212e-01    3.192902e-02
  4.327968e-01    4.864115e-02
  4.486724e-01    4.459292e-02
  4.645479e-01    4.265780e-02
  4.804235e-01    7.562507e-02
  4.962991e-01    6.757155e-02
  5.121747e-01    3.357205e-02
  5.280502e-01    4.902071e-02
  5.439258e-01    6.051943e-02
  5.598014e-01    5.074110e-02
  5.756770e-01    4.480586e-02
  5.915525e-01    4.990542e-02
  6.074281e-01    6.765623e-02
  6.233037e-01    4.785002e-02
  6.391793e-01    1.821383e-02
  6.550548e-01    1.718900e-02
  6.709304e-01    1.239456e-02
  6.868060e-01    3.705161e-02
  7.026815e-01    3.784719e-02
  7.185571e-01    3.080082e-02
  7.344327e-01    2.525615e-02
  7.503083e-01    2.919072e-02
  7.661838e-01    6.355876e-02
  7.820594e-01    1.130099e-01
  7.979350e-01    1.679582e-01
  8.138106e-01    1.794348e-01
  8.296861e-01    2.537784e-01
  8.455617e-01    3.838033e-01
  8.614373e-01    4.264889e-01
  8.773129e-01    5.032146e-01
  8.931884e-01    6.081488e-01
  9.090640e-01    6.533587e-01
  9.249396e-01    7.514750e-01
  9.408152e-01    8.164752e-01
  9.566907e-01    9.678552e-01
  9.725663e-01    1.042658e+00
  9.884419e-01    1.211400e+00
  1.004317e+00    1.277606e+00
  1.020193e+00    1.298348e+00
  1.036069e+00    1.411969e+00
  1.051944e+00    1.401556e+00
  1.067820e+00    1.453491e+00
  1.083695e+00    1.555054e+00
  1.099571e+00    1.607510e+00
  1.115446e+00    1.617260e+00
  1.131322e+00    1.704191e+00
  1.147198e+00    1.674795e+00
  1.163073e+00    1.649018e+00
  1.178949e+00    1.737872e+00
  1.194824e+00    1.887858e+00
  1.210700e+00    1.991126e+00
  1.226575e+00    2.166846e+00
  1.242451e+00    2.351610e+00
  1.258327e+00    2.532440e+00
  1.274202e+00    2.594711e+00
  1.290078e+00    2.613015e+00
  1.305953e+00    2.633594e+00
  1.321829e+00    2.717652e+00
  1.337705e+00    2.709245e+00
  1.353580e+00    2.726205e+00
  1.369456e+00    2.730402e+00
  1.385331e+00    2.759725e+00
  1.401207e+00    2.789586e+00
  1.417082e+00    2.799089e+00
  1.432958e+00    2.972594e+00
  1.448834e+00    3.029351e+00
  1.464709e+00    3.000015e+00
  1.480585e+00    3.178316e+00
  1.496460e+00    2.945685e+00
  1.512336e+00    3.129697e+00
  1.528211e+00    3.264365e+00
  1.544087e+00    3.222666e+00
  1.559963e+00    3.321810e+00
  1.575838e+00    3.245262e+00
  1.591714e+00    3.130125e+00
  1.607589e+00    3.067508e+00
  1.623465e+00    3.178857e+00
  1.639340e+00    3.205410e+00
  1.655216e+00    3.225426e+00
  1.671092e+00    3.270594e+00
  1.686967e+00    3.192891e+00
  1.702843e+00    3.184231e+00
  1.718718e+00    3.123381e+00
  1.734594e+00    3.109556e+00
  1.750469e+00    3.203305e+00
  1.766345e+00    3.191725e+00
  1.782221e+00    3.051532e+00
  1.798096e+00    3.075364e+00
  1.813972e+00    3.136452e+00
  1.829847e+00    3.047188e+00
  1.845723e+00    3.043224e+00
  1.861598e+00    3.039947e+00
  1.877474e+00    2.985487e+00
  1.893350e+00    3.069753e+00
  1.909225e+00    3.100178e+00
  1.925101e+00    3.066515e+00
  1.940976e+00    3.178620e+00
  1.956852e+00    3.198148e+00
  1.972727e+00    3.120777e+00
  1.988603e+00    3.088813e+00
  2.004479e+00    3.056839e+00
  2.020354e+00    3.059953e+00
  2.036230e+00    3.131315e+00
  2.052105e+00    3.032116e+00
  2.067981e+00    3.005374e+00
  2.083856e+00    3.024830e+00
  2.099732e+00    3.064819e+00
  2.115608e+00    3.121892e+00
  2.131483e+00    3.126471e+00
  2.147359e+00    3.239220e+00
  2.163234e+00    3.135772e+00
  2.179110e+00    3.068961e+00
  2.194985e+00    3.142588e+00
  2.210861e+00    3.133215e+00
  2.226737e+00    3.013377e+00
  2.242612e+00    2.931581e+00
  2.258488e+00    3.071937e+00
  2.274363e+00    3.064481e+00
  2.290239e+00    3.074434e+00
  2.306115e+00    3.106437e+00
  2.321990e+00    3.059527e+00
  2.337866e+00    3.137816e+00
  2.353741e+00    3.188014e+00
  2.369617e+00    3.078051e+00
  2.385492e+00    3.246352e+00
  2.401368e+00    3.215674e+00
  2.417244e+00    3.098939e+00
  2.433119e+00    3.098819e+00
  2.448995e+00    3.107518e+00
  2.464870e+00    3.198952e+00
  2.480746e+00    3.229426e+00
  2.496621e+00    3.183455e+00
  2.512497e+00    3.243278e+00
  2.528373e+00    3.239714e+00
  2.544248e+00    3.172077e+00
  2.560124e+00    3.227301e+00
  2.575999e+00    3.297043e+00
  2.591875e+00    3.146224e+00
  2.607750e+00    3.114577e+00
  2.623626e+00    3.236781e+00
  2.639502e+00    3.186318e+00
  2.655377e+00    3.159333e+00
  2.671253e+00    3.301140e+00
  2.687128e+00    3.281262e+00
  2.703004e+00    3.207533e+00
  2.718879e+00    3.310818e+00
  2.734755e+00    3.302092e+00
  2.750631e+00    3.272475e+00
  2.766506e+00    3.392953e+00
  2.782382e+00    3.285480e+00
  2.798257e+00    3.214333e+00
  2.814133e+00    3.305629e+00
  2.830008e+00    3.251604e+00
  2.845884e+00    3.259283e+00
  2.861760e+00    3.334908e+00
  2.877635e+00    3.358051e+00
  2.893511e+00    3.337596e+00
  2.909386e+00    3.359962e+00
  2.925262e+00    3.307552e+00
  2.941137e+00    3.197328e+00
  2.957013e+00    3.318847e+00
  2.972889e+00    3.316747e+00
  2.988764e+00    3.320073e+00
  3.004640e+00    3.355864e+00
  3.020515e+00    3.311167e+00
  3.036391e+00    3.350747e+00
  3.052266e+00    3.367332e+00
  3.068142e+00    3.306178e+00
  3.084018e+00    3.364344e+00
  3.099893e+00    3.422646e+00
  3.115769e+00    3.434904e+00
  3.131644e+00    3.415134e+00
  3.147520e+00    3.329576e+00
  3.163395e+00    3.334319e+00
  3.179271e+00    3.295014e+00
  3.195147e+00    3.341177e+00
  3.211022e+00    3.455042e+00
  3.226898e+00    3.353341e+00
  3.242773e+00    3.253901e+00
  3.258649e+00    3.495394e+00
  3.274525e+00    3.471518e+00
  3.290400e+00    3.532587e+00
  3.306276e+00    3.550099e+00
  3.322151e+00    3.438129e+00
  3.338027e+00    3.485342e+00
  3.353902e+00    3.403786e+00
  3.369778e+00    3.338464e+00
  3.385654e+00    3.348206e+00
  3.401529e+00    3.400971e+00
  3.417405e+00    3.456927e+00
  3.433280e+00    3.458036e+00
  3.449156e+00    3.438657e+00
  3.465031e+00    3.373498e+00
  3.480907e+00    3.409059e+00
  3.496783e+00    3.518878e+00
  3.512658e+00    3.475917e+00
  3.528534e+00    3.399380e+00
  3.544409e+00    3.451782e+00
  3.560285e+00    3.384767e+00
  3.576160e+00    3.406001e+00
  3.592036e+00    3.416777e+00
  3.607912e+00    3.435297e+00
  3.623787e+00    3.551880e+00
  3.639663e+00    3.606167e+00
  3.655538e+00    3.522328e+00
  3.671414e+00    3.438844e+00
  3.687289e+00    3.410469e+00
  3.703165e+00    3.515838e+00
  3.719041e+00    3.519027e+00
  3.734916e+00    3.455987e+00
  3.750792e+00    3.464839e+00
  3.766667e+00    3.498532e+00
  3.782543e+00    3.473001e+00
  3.798418e+00    3.397257e+00
  3.814294e+00    3.456130e+00
  3.830170e+00    3.458857e+00
  3.846045e+00    3.444006e+00
  3.861921e+00    3.451584e+00
  3.877796e+00    3.528447e+00
  3.893672e+00    3.552466e+00
  3.909547e+00    3.437694e+00
  3.925423e+00    3.503332e+00
  3.941299e+00    3.558862e+00
  3.957174e+00    3.524249e+00
  3.973050e+00    3.515343e+00
  3.988925e+00    3.553073e+00
  4.004801e+00    3.575866e+00
  4.020676e+00    3.578139e+00
  4.036552e+00    3.540822e+00
  4.052428e+00    3.509000e+00
  4.068303e+00    3.535789e+00
  4.084179e+00    3.575043e+00
  4.100054e+00    3.639198e+00
  4.115930e+00    3.595186e+00
  4.131806e+00    3.604178e+00
  4.147681e+00    3.664090e+00
  4.163557e+00    3.617601e+00
  4.179432e+00    3.525820e+00
  4.195308e+00    3.628143e+00
  4.211183e+00    3.551243e+00
  4.227059e+00    3.510432e+00
  4.242935e+00    3.593695e+00
  4.258810e+00    3.640897e+00
  4.274686e+00    3.656226e+00
  4.290561e+00    3.588886e+00
  4.306437e+00    3.538968e+00
  4.322312e+00    3.561547e+00
  4.338188e+00    3.574798e+00
  4.354064e+00    3.564261e+00
  4.369939e+00    3.539716e+00
  4.385815e+00    3.528204e+00
  4.401690e+00    3.596328e+00
  4.417566e+00    3.618759e+00
  4.433441e+00    3.693727e+00
  4.449317e+00    3.684927e+00
  4.465193e+00    3.633332e+00
  4.481068e+00    3.578684e+00
  4.496944e+00    3.559206e+00
  4.512819e+00    3.598192e+00
  4.528695e+00    3.548438e+00
  4.544570e+00    3.557589e+00
  4.560446e+00    3.616897e+00
  4.576322e+00    3.730138e+00
  4.592197e+00    3.637896e+00
  4.608073e+00    3.617403e+00
  4.623948e+00    3.653166e+00
  4.639824e+00    3.719638e+00
  4.655699e+00    3.641658e+00
  4.671575e+00    3.680143e+00
  4.687451e+00    3.689265e+00
  4.703326e+00    3.705817e+00
  4.719202e+00    3.613443e+00
  4.735077e+00    3.680948e+00
  4.750953e+00    3.675944e+00
  4.766828e+00    3.677914e+00
  4.782704e+00    3.687235e+00
  4.798580e+00    3.684291e+00
  4.814455e+00    3.697569e+00
  4.830331e+00    3.608851e+00
  4.846206e+00    3.631583e+00
  4.862082e+00    3.674531e+00
  4.877957e+00    3.616323e+00
  4.893833e+00    3.567901e+00
  4.909709e+00    3.658110e+00
  4.925584e+00    3.644599e+00
  4.941460e+00    3.654366e+00
  4.957335e+00    3.709366e+00
  4.973211e+00    3.704948e+00
  4.989086e+00    3.646104e+00
  5.004962e+00    3.605032e+00
  5.020838e+00    3.724599e+00
  5.036713e+00    3.692101e+00
  5.052589e+00    3.668005e+00
  5.068464e+00    3.707845e+00
  5.084340e+00    3.621646e+00
  5.100216e+00    3.640831e+00
  5.116091e+00    3.651700e+00
  5.131967e+00    3.616987e+00
  5.147842e+00    3.589585e+00
  5.163718e+00    3.670828e+00
  5.179593e+00    3.711673e+00
  5.195469e+00    3.585735e+00
  5.211345e+00    3.684781e+00
  5.227220e+00    3.654065e+00
  5.243096e+00    3.645790e+00
  5.258971e+00    3.660709e+00
  5.274847e+00    3.657041e+00
  5.290722e+00    3.759867e+00
  5.306598e+00    3.783918e+00
  5.322474e+00    3.679633e+00
  5.338349e+00    3.732580e+00
  5.354225e+00    3.731793e+00
  5.370100e+00    3.678295e+00
  5.385976e+00    3.628792e+00
  5.401851e+00    3.624773e+00
  5.417727e+00    3.639875e+00
  5.433603e+00    3.584892e+00
  5.449478e+00    3.596244e+00
  5.465354e+00    3.647357e+00
  5.481229e+00    3.643989e+00
  5.497105e+00    3.541893e+00
  5.512980e+00    3.557224e+00
  5.528856e+00    3.595027e+00
  5.544732e+00    3.598338e+00
  5.560607e+00    3.616115e+00
  5.576483e+00    3.590218e+00
  5.592358e+00    3.603427e+00
  5.608234e+00    3.643033e+00
  5.624109e+00    3.663353e+00
  5.639985e+00    3.634161e+00
  5.655861e+00    3.604549e+00
  5.671736e+00    3.548472e+00
  5.687612e+00    3.641450e+00
  5.703487e+00    3.618118e+00
  5.719363e+00    3.605439e+00
  5.735238e+00    3.584145e+00
  5.751114e+00    3.567546e+00
  5.766990e+00    3.545223e+00
  5.782865e+00    3.499581e+00
  5.798741e+00    3.546270e+00
  5.814616e+00    3.519081e+00
  5.830492e+00    3.578466e+00
  5.846367e+00    3.563380e+00
  5.862243e+00    3.531358e+00
  5.878119e+00    3.617786e+00
  5.893994e+00    3.659143e+00
  5.909870e+00    3.531291e+00
  5.925745e+00    3.472951e+00
  5.941621e+00    3.517000e+00
  5.957497e+00    3.545470e+00
  5.973372e+00    3.564070e+00
  5.989248e+00    3.547736e+00
  6.005123e+00    3.563788e+00
  6.020999e+00    3.595544e+00
  6.036874e+00    3.650362e+00
  6.052750e+00    3.602092e+00
  6.068626e+00    3.590789e+00
  6.084501e+00    3.656152e+00
  6.100377e+00    3.662421e+00
  6.116252e+00    3.679925e+00
  6.132128e+00    3.645995e+00
  6.148003e+00    3.563828e+00
  6.163879e+00    3.566032e+00
  6.179755e+00    3.512686e+00
  6.195630e+00    3.581375e+00
  6.211506e+00    3.561323e+00
  6.227381e+00    3.519156e+00
  6.243257e+00    3.593502e+00
  6.259132e+00    3.541209e+00
  6.275008e+00    3.578814e+00
  6.290884e+00    3.611233e+00
  6.306759e+00    3.590389e+00
  6.322635e+00    3.602006e+00
  6.338510e+00    3.585729e+00
  6.354386e+00    3.524774e+00
  6.370261e+00    3.569803e+00
  6.386137e+00    3.546361e+00
  6.402013e+00    3.470708e+00
  6.417888e+00    3.603522e+00
  6.433764e+00    3.594479e+00
  6.449639e+00    3.479255e+00
  6.465515e+00    3.529480e+00
  6.481390e+00    3.586398e+00
  6.497266e+00    3.635828e+00
  6.513142e+00    3.605957e+00
  6.529017e+00    3.562212e+00
  6.544893e+00    3.532242e+00
  6.560768e+00    3.524274e+00
  6.576644e+00    3.470714e+00
  6.592519e+00    3.503123e+00
  6.608395e+00    3.580246e+00
  6.624271e+00    3.615062e+00
  6.640146e+00    3.633863e+00
  6.656022e+00    3.630898e+00
  6.671897e+00    3.585344e+00
  6.687773e+00    3.590091e+00
  6.703648e+00    3.556597e+00
  6.719524e+00    3.501092e+00
  6.735400e+00    3.575621e+00
  6.751275e+00    3.619259e+00
  6.767151e+00    3.539913e+00
  6.783026e+00    3.458869e+00
  6.798902e+00    3.541257e+00
  6.814777e+00    3.561880e+00
  6.830653e+00    3.580302e+00
  6.846529e+00    3.585263e+00
  6.862404e+00    3.573985e+00
  6.878280e+00    3.686159e+00
  6.894155e+00    3.605628e+00
  6.910031e+00    3.567586e+00
  6.925907e+00    3.497060e+00
  6.941782e+00    3.532412e+00
  6.957658e+00    3.562701e+00
  6.973533e+00    3.529848e+00
  6.989409e+00    3.570674e+00
  7.005284e+00    3.565528e+00
  7.021160e+00    3.580386e+00
  7.037036e+00    3.582628e+00
  7.052911e+00    3.624801e+00
  7.068787e+00    3.584907e+00
  7.084662e+00    3.643980e+00
  7.100538e+00    3.483418e+00
  7.116413e+00    3.353460e+00
  7.132289e+00    3.483282e+00
  7.148165e+00    3.597142e+00
  7.164040e+00    3.466017e+00
  7.179916e+00    3.427844e+00
  7.195791e+00    3.465250e+00
  7.211667e+00    3.532416e+00
  7.227542e+00    3.524639e+00
  7.243418e+00    3.501550e+00
  7.259294e+00    3.493735e+00
  7.275169e+00    3.549560e+00
  7.291045e+00    3.558019e+00
  7.306920e+00    3.582471e+00
  7.322796e+00    3.551969e+00
  7.338671e+00    3.503650e+00
  7.354547e+00    3.485512e+00
  7.370423e+00    3.492712e+00
  7.386298e+00    3.488039e+00
  7.402174e+00    3.480729e+00
  7.418049e+00    3.448399e+00
  7.433925e+00    3.469409e+00
  7.449800e+00    3.484855e+00
  7.465676e+00    3.482653e+00
  7.481552e+00    3.482211e+00
  7.497427e+00    3.489767e+00
  7.513303e+00    3.507556e+00
  7.529178e+00    3.502787e+00
  7.545054e+00    3.458941e+00
  7.560929e+00    3.522155e+00
  7.576805e+00    3.455497e+00
  7.592681e+00    3.428303e+00
  7.608556e+00    3.567382e+00
  7.624432e+00    3.472032e+00
  7.640307e+00    3.435985e+00
  7.656183e+00    3.494950e+00
  7.672058e+00    3.473447e+00
  7.687934e+00    3.512340e+00
  7.703810e+00    3.498249e+00
  7.719685e+00    3.525481e+00
  7.735561e+00    3.459692e+00
  7.751436e+00    3.401307e+00
  7.767312e+00    3.413099e+00
  7.783187e+00    3.437190e+00
  7.799063e+00    3.467991e+00
  7.814939e+00    3.451400e+00
  7.830814e+00    3.476205e+00
  7.846690e+00    3.510695e+00
  7.862565e+00    3.441897e+00
  7.878441e+00    3.449835e+00
  7.894317e+00    3.490071e+00
  7.910192e+00    3.407069e+00
  7.926068e+00    3.368433e+00
  7.941943e+00    3.468921e+00
  7.957819e+00    3.441456e+00
  7.973694e+00    3.428472e+00
  7.989570e+00    3.451508e+00
  8.005446e+00    3.483064e+00
  8.021321e+00    3.431664e+00
  8.037197e+00    3.381615e+00
  8.053072e+00    3.433002e+00
  8.068948e+00    3.422796e+00
  8.084823e+00    3.413914e+00
  8.100699e+00    3.453087e+00
  8.116575e+00    3.501194e+00
  8.132450e+00    3.487352e+00
  8.148326e+00    3.435675e+00
  8.164201e+00    3.450208e+00
  8.180077e+00    3.428619e+00
  8.195952e+00    3.427010e+00
  8.211828e+00    3.457392e+00
  8.227704e+00    3.477390e+00
  8.243579e+00    3.517887e+00
  8.259455e+00    3.506711e+00
  8.275330e+00    3.421820e+00
  8.291206e+00    3.422698e+00
  8.307081e+00    3.418426e+00
  8.322957e+00    3.424177e+00
  8.338833e+00    3.427994e+00
  8.354708e+00    3.429590e+00
  8.370584e+00    3.427933e+00
  8.386459e+00    3.423445e+00
  8.402335e+00    3.435569e+00
  8.418210e+00    3.439113e+00
  8.434086e+00    3.394871e+00
  8.449962e+00    3.357990e+00
  8.465837e+00    3.345762e+00
  8.481713e+00    3.372394e+00
  8.497588e+00    3.394041e+00
  8.513464e+00    3.417039e+00
  8.529339e+00    3.335104e+00
  8.545215e+00    3.358208e+00
  8.561091e+00    3.395114e+00
  8.576966e+00    3.399759e+00
  8.592842e+00    3.351485e+00
  8.608717e+00    3.308684e+00
  8.624593e+00    3.347133e+00
  8.640468e+00    3.365316e+00
  8.656344e+00    3.393325e+00
  8.672220e+00    3.399287e+00
  8.688095e+00    3.398124e+00
  8.703971e+00    3.314348e+00
  8.719846e+00    3.343388e+00
  8.735722e+00    3.374643e+00
  8.751598e+00    3.311942e+00
  8.767473e+00    3.360808e+00
  8.783349e+00    3.325213e+00
  8.799224e+00    3.311842e+00
  8.815100e+00    3.357357e+00
  8.830975e+00    3.299806e+00
  8.846851e+00    3.303924e+00
  8.862727e+00    3.306819e+00
  8.878602e+00    3.317031e+00
  8.894478e+00    3.305214e+00
  8.910353e+00    3.240312e+00
  8.926229e+00    3.316780e+00
  8.942104e+00    3.366908e+00
  8.957980e+00    3.399843e+00
  8.973856e+00    3.335465e+00
  8.989731e+00    3.325670e+00
  9.005607e+00    3.289459e+00
  9.021482e+00    3.299879e+00
  9.037358e+00    3.291002e+00
  9.053233e+00    3.298712e+00
  9.069109e+00    3.291007e+00
  9.084985e+00    3.233342e+00
  9.100860e+00    3.289560e+00
  9.116736e+00    3.254770e+00
  9.132611e+00    3.262639e+00
  9.148487e+00    3.223129e+00
  9.164362e+00    3.279938e+00
  9.180238e+00    3.287467e+00
  9.196114e+00    3.296569e+00
  9.211989e+00    3.278879e+00
  9.227865e+00    3.251519e+00
  9.243740e+00    3.225576e+00
  9.259616e+00    3.295785e+00
  9.275491e+00    3.258356e+00
  9.291367e+00    3.211225e+00
  9.307243e+00    3.199795e+00
  9.323118e+00    3.201505e+00
  9.338994e+00    3.223683e+00
  9.354869e+00    3.237123e+00
  9.370745e+00    3.200500e+00
  9.386620e+00    3.235545e+00
  9.402496e+00    3.238601e+00
  9.418372e+00    3.210866e+00
  9.434247e+00    3.224956e+00
  9.450123e+00    3.191528e+00
  9.465998e+00    3.197919e+00
  9.481874e+00    3.210972e+00
  9.497749e+00    3.268371e+00
  9.513625e+00    3.252417e+00
  9.529501e+00    3.232455e+00
  9.545376e+00    3.215961e+00
  9.561252e+00    3.204456e+00
  9.577127e+00    3.245792e+00
  9.593003e+00    3.256421e+00
  9.608878e+00    3.216260e+00
  9.624754e+00    3.239035e+00
  9.640630e+00    3.256078e+00
  9.656505e+00    3.182314e+00
  9.672381e+00    3.209551e+00
  9.688256e+00    3.185251e+00
  9.704132e+00    3.185379e+00
  9.720008e+00    3.203449e+00
  9.735883e+00    3.207727e+00
  9.751759e+00    3.182772e+00
  9.767634e+00    3.128317e+00
  9.783510e+00    3.139150e+00
  9.799385e+00    3.143258e+00
  9.815261e+00    3.152679e+00
  9.831137e+00    3.145267e+00
  9.847012e+00    3.167590e+00
  9.862888e+00    3.182594e+00
  9.878763e+00    3.160567e+00
  9.894639e+00    3.152261e+00
  9.910514e+00    3.156958e+00
  9.926390e+00    3.077164e+00
  9.942266e+00    3.092990e+00
  9.958141e+00    3.114634e+00
  9.974017e+00    3.077321e+00
  9.989892e+00    3.134946e+00
  1.000577e+01    3.137989e+00
  1.002164e+01    3.109271e+00
  1.003752e+01    3.134008e+00
  1.005339e+01    3.085975e+00
  1.006927e+01    3.137331e+00
  1.008515e+01    3.126200e+00
  1.010102e+01    3.037682e+00
  1.011690e+01    3.132906e+00
  1.013277e+01    3.090697e+00
  1.014865e+01    3.083723e+00
  1.016452e+01    3.115518e+00
  1.018040e+01    3.115823e+00
  1.019627e+01    3.104115e+00
  1.021215e+01    3.051713e+00
  1.022803e+01    3.111236e+00
  1.024390e+01    3.099005e+00
  1.025978e+01    3.055208e+00
  1.027565e+01    3.049316e+00
  1.029153e+01    3.074818e+00
  1.030740e+01    3.084029e+00
  1.032328e+01    3.062246e+00
  1.033915e+01    3.070786e+00
  1.035503e+01    3.045207e+00
  1.037091e+01    3.059054e+00
  1.038678e+01    3.090523e+00
  1.040266e+01    3.063806e+00
  1.041853e+01    3.008610e+00
  1.043441e+01    3.003392e+00
  1.045028e+01    2.993837e+00
  1.046616e+01    3.029898e+00
  1.048204e+01    3.076336e+00
  1.049791e+01    3.054663e+00
  1.051379e+01    3.059509e+00
  1.052966e+01    3.015373e+00
  1.054554e+01    3.041820e+00
  1.056141e+01    3.043102e+00
  1.057729e+01    3.002739e+00
  1.059316e+01    2.953765e+00
  1.060904e+01    3.034564e+00
  1.062492e+01    3.036796e+00
  1.064079e+01    3.050720e+00
  1.065667e+01    3.041105e+00
  1.067254e+01    2.978456e+00
  1.068842e+01    2.943010e+00
  1.070429e+01    3.008106e+00
  1.072017e+01    3.049758e+00
  1.073604e+01    2.993958e+00
  1.075192e+01    2.988462e+00
  1.076780e+01    2.976367e+00
  1.078367e+01    2.956615e+00
  1.079955e+01    2.950434e+00
  1.081542e+01    2.985390e+00
  1.083130e+01    2.974897e+00
  1.084717e+01    2.998270e+00
  1.086305e+01    3.004095e+00
  1.087892e+01    2.981241e+00
  1.089480e+01    2.967713e+00
  1.091068e+01    2.963130e+00
  1.092655e+01    2.951189e+00
  1.094243e+01    2.874671e+00
  1.095830e+01    2.886614e+00
  1.097418e+01    2.930440e+00
  1.099005e+01    2.911942e+00
  1.100593e+01    2.972481e+00
  1.102180e+01    2.922271e+00
  1.103768e+01    2.910179e+00
  1.105356e+01    2.974132e+00
  1.106943e+01    2.935660e+00
  1.108531e+01    2.931672e+00
  1.110118e+01    2.923988e+00
  1.111706e+01    2.886199e+00
  1.113293e+01    2.884295e+00
  1.114881e+01    2.906496e+00
  1.116468e+01    2.923545e+00
  1.118056e+01    2.898024e+00
  1.119644e+01    2.901174e+00
  1.121231e+01    2.852999e+00
  1.122819e+01    2.834975e+00
  1.124406e+01    2.826344e+00
  1.125994e+01    2.857397e+00
  1.127581e+01    2.840721e+00
  1.129169e+01    2.841183e+00
  1.130756e+01    2.834116e+00
  1.132344e+01    2.879999e+00
  1.133932e+01    2.874345e+00
  1.135519e+01    2.870237e+00
  1.137107e+01    2.858722e+00
  1.138694e+01    2.819171e+00
  1.140282e+01    2.813505e+00
  1.141869e+01    2.808026e+00
  1.143457e+01    2.797721e+00
  1.145045e+01    2.825378e+00
  1.146632e+01    2.827834e+00
  1.148220e+01    2.817775e+00
  1.149807e+01    2.811540e+00
  1.151395e+01    2.845591e+00
  1.152982e+01    2.850200e+00
  1.154570e+01    2.823922e+00
  1.156157e+01    2.817007e+00
  1.157745e+01    2.816676e+00
  1.159333e+01    2.832394e+00
  1.160920e+01    2.800302e+00
  1.162508e+01    2.799055e+00
  1.164095e+01    2.721264e+00
  1.165683e+01    2.736237e+00
  1.167270e+01    2.748806e+00
  1.168858e+01    2.725725e+00
  1.170445e+01    2.757619e+00
  1.172033e+01    2.793524e+00
  1.173621e+01    2.790552e+00
  1.175208e+01    2.750126e+00
  1.176796e+01    2.751577e+00
  1.178383e+01    2.719174e+00
  1.179971e+01    2.722671e+00
  1.181558e+01    2.727736e+00
  1.183146e+01    2.721155e+00
  1.184733e+01    2.729459e+00
  1.186321e+01    2.734819e+00
  1.187909e+01    2.688264e+00
  1.189496e+01    2.706273e+00
  1.191084e+01    2.727512e+00
  1.192671e+01    2.730654e+00
  1.194259e+01    2.717992e+00
  1.195846e+01    2.720988e+00
  1.197434e+01    2.753114e+00
  1.199021e+01    2.715113e+00
  1.200609e+01    2.727206e+00
  1.202197e+01    2.729824e+00
  1.203784e+01    2.771703e+00
  1.205372e+01    2.768042e+00
  1.206959e+01    2.677505e+00
  1.208547e+01    2.669801e+00
  1.210134e+01    2.715236e+00
  1.211722e+01    2.700355e+00
  1.213309e+01    2.672895e+00
  1.214897e+01    2.718923e+00
  1.216485e+01    2.751421e+00
  1.218072e+01    2.707926e+00
  1.219660e+01    2.737486e+00
  1.221247e+01    2.706807e+00
  1.222835e+01    2.714501e+00
  1.224422e+01    2.724487e+00
  1.226010e+01    2.719238e+00
  1.227597e+01    2.714643e+00
  1.229185e+01    2.690079e+00
  1.230773e+01    2.722795e+00
  1.232360e+01    2.738631e+00
  1.233948e+01    2.685810e+00
  1.235535e+01    2.684122e+00
  1.237123e+01    2.717152e+00
  1.238710e+01    2.750461e+00
  1.240298e+01    2.672940e+00
  1.241886e+01    2.660712e+00
  1.243473e+01    2.678367e+00
  1.245061e+01    2.716221e+00
  1.246648e+01    2.699237e+00
  1.248236e+01    2.656905e+00
  1.249823e+01    2.676054e+00
  1.251411e+01    2.711371e+00
  1.252998e+01    2.717017e+00
  1.254586e+01    2.740571e+00
  1.256174e+01    2.741201e+00
  1.257761e+01    2.716257e+00
  1.259349e+01    2.704591e+00
  1.260936e+01    2.718134e+00
  1.262524e+01    2.777259e+00
  1.264111e+01    2.810102e+00
  1.265699e+01    2.780473e+00
  1.267286e+01    2.828227e+00
  1.268874e+01    2.860693e+00
  1.270462e+01    2.821544e+00
  1.272049e+01    2.865106e+00
  1.273637e+01    2.864648e+00
  1.275224e+01    2.909241e+00
  1.276812e+01    2.916516e+00
  1.278399e+01    2.956237e+00
  1.279987e+01    2.937723e+00
  1.281574e+01    3.007755e+00
  1.283162e+01    3.093793e+00
  1.284750e+01    3.206728e+00
  1.286337e+01    3.276392e+00
  1.287925e+01    3.441818e+00
  1.289512e+01    3.531508e+00
  1.291100e+01    3.690499e+00
  1.292687e+01    3.902058e+00
  1.294275e+01    4.131612e+00
  1.295862e+01    4.403685e+00
  1.297450e+01    4.759737e+00
  1.299038e+01    5.273221e+00
  1.300625e+01    5.922455e+00
  1.302213e+01    6.655523e+00
  1.303800e+01    7.686356e+00
  1.305388e+01    8.868156e+00
  1.306975e+01    1.010081e+01
  1.308563e+01    1.146056e+01
  1.310150e+01    1.270542e+01
  1.311738e+01    1.381466e+01
  1.313326e+01    1.477780e+01
  1.314913e+01    1.570978e+01
  1.316501e+01    1.628195e+01
  1.318088e+01    1.628959e+01
  1.319676e+01    1.572530e+01
  1.321263e+01    1.434041e+01
  1.322851e+01    1.261272e+01
  1.324438e+01    1.073843e+01
  1.326026e+01    9.041656e+00
  1.327614e+01    7.778004e+00
  1.329201e+01    6.807391e+00
  1.330789e+01    5.965300e+00
  1.332376e+01    5.301150e+00
  1.333964e+01    4.850875e+00
  1.335551e+01    4.454325e+00
  1.337139e+01    4.113814e+00
  1.338727e+01    3.857384e+00
  1.340314e+01    3.693100e+00
  1.341902e+01    3.539351e+00
  1.343489e+01    3.379262e+00
  1.345077e+01    3.228785e+00
  1.346664e+01    3.176859e+00
  1.348252e+01    3.048762e+00
  1.349839e+01    2.962444e+00
  1.351427e+01    2.964699e+00
  1.353015e+01    2.932374e+00
  1.354602e+01    2.809794e+00
  1.356190e+01    2.812209e+00
  1.357777e+01    2.792530e+00
  1.359365e+01    2.749833e+00
  1.360952e+01    2.667277e+00
  1.362540e+01    2.642894e+00
  1.364127e+01    2.673075e+00
  1.365715e+01    2.561277e+00
  1.367303e+01    2.571259e+00
  1.368890e+01    2.579143e+00
  1.370478e+01    2.545921e+00
  1.372065e+01    2.549356e+00
  1.373653e+01    2.538982e+00
  1.375240e+01    2.523153e+00
  1.376828e+01    2.483546e+00
  1.378415e+01    2.488389e+00
  1.380003e+01    2.479331e+00
  1.381591e+01    2.491980e+00
  1.383178e+01    2.455714e+00
  1.384766e+01    2.411262e+00
  1.386353e+01    2.443391e+00
  1.387941e+01    2.504801e+00
  1.389528e+01    2.444358e+00
  1.391116e+01    2.420784e+00
  1.392703e+01    2.380894e+00
  1.394291e+01    2.391994e+00
  1.395879e+01    2.409244e+00
  1.397466e+01    2.396772e+00
  1.399054e+01    2.373292e+00
  1.400641e+01    2.380105e+00
  1.402229e+01    2.382835e+00
  1.403816e+01    2.383086e+00
  1.405404e+01    2.354127e+00
  1.406991e+01    2.317495e+00
  1.408579e+01    2.370858e+00
  1.410167e+01    2.346550e+00
  1.411754e+01    2.324111e+00
  1.413342e+01    2.316439e+00
  1.414929e+01    2.321693e+00
  1.416517e+01    2.333574e+00
  1.418104e+01    2.298506e+00
  1.419692e+01    2.278017e+00
  1.421279e+01    2.253551e+00
  1.422867e+01    2.248004e+00
  1.424455e+01    2.300879e+00
  1.426042e+01    2.292547e+00
  1.427630e+01    2.289996e+00
  1.429217e+01    2.283448e+00
  1.430805e+01    2.283534e+00
  1.432392e+01    2.307978e+00
  1.433980e+01    2.288625e+00
  1.435568e+01    2.244455e+00
  1.437155e+01    2.251374e+00
  1.438743e+01    2.265535e+00
  1.440330e+01    2.231242e+00
  1.441918e+01    2.241190e+00
  1.443505e+01    2.247945e+00
  1.445093e+01    2.267305e+00
  1.446680e+01    2.254037e+00
  1.448268e+01    2.239227e+00
  1.449856e+01    2.237166e+00
  1.451443e+01    2.222331e+00
  1.453031e+01    2.206714e+00
  1.454618e+01    2.247800e+00
  1.456206e+01    2.277561e+00
  1.457793e+01    2.246304e+00
  1.459381e+01    2.253241e+00
  1.460968e+01    2.221814e+00
  1.462556e+01    2.175980e+00
  1.464144e+01    2.240602e+00
  1.465731e+01    2.266226e+00
  1.467319e+01    2.208526e+00
  1.468906e+01    2.192993e+00
  1.470494e+01    2.248585e+00
  1.472081e+01    2.239897e+00
  1.473669e+01    2.213286e+00
  1.475256e+01    2.229046e+00
  1.476844e+01    2.224516e+00
  1.478432e+01    2.201241e+00
  1.480019e+01    2.187659e+00
  1.481607e+01    2.186307e+00
  1.483194e+01    2.220421e+00
  1.484782e+01    2.226410e+00
  1.486369e+01    2.228875e+00
  1.487957e+01    2.237182e+00
  1.489544e+01    2.232523e+00
  1.491132e+01    2.272524e+00
  1.492720e+01    2.236757e+00
  1.494307e+01    2.257996e+00
  1.495895e+01    2.278528e+00
  1.497482e+01    2.338070e+00
  1.499070e+01    2.374318e+00
  1.500657e+01    2.450302e+00
  1.502245e+01    2.485675e+00
  1.503832e+01    2.628835e+00
  1.505420e+01    2.701950e+00
  1.507008e+01    2.841752e+00
  1.508595e+01    2.974526e+00
  1.510183e+01    3.171966e+00
  1.511770e+01    3.475744e+00
  1.513358e+01    3.818954e+00
  1.514945e+01    4.136887e+00
  1.516533e+01    4.511382e+00
  1.518120e+01    4.852142e+00
  1.519708e+01    5.164608e+00
  1.521296e+01    5.376935e+00
  1.522883e+01    5.490283e+00
  1.524471e+01    5.659307e+00
  1.526058e+01    5.786685e+00
  1.527646e+01    5.639871e+00
  1.529233e+01    5.440844e+00
  1.530821e+01    5.188039e+00
  1.532409e+01    4.694671e+00
  1.533996e+01    4.192138e+00
  1.535584e+01    3.758452e+00
  1.537171e+01    3.465241e+00
  1.538759e+01    3.213943e+00
  1.540346e+01    2.940603e+00
  1.541934e+01    2.738525e+00
  1.543521e+01    2.647052e+00
  1.545109e+01    2.553053e+00
  1.546697e+01    2.415806e+00
  1.548284e+01    2.359632e+00
  1.549872e+01    2.324881e+00
  1.551459e+01    2.240365e+00
  1.553047e+01    2.209702e+00
  1.554634e+01    2.189569e+00
  1.556222e+01    2.140929e+00
  1.557809e+01    2.122010e+00
  1.559397e+01    2.082557e+00
  1.560985e+01    2.098140e+00
  1.562572e+01    2.103895e+00
  1.564160e+01    2.055549e+00
  1.565747e+01    2.056548e+00
  1.567335e+01    2.055847e+00
  1.568922e+01    1.998233e+00
  1.570510e+01    1.979114e+00
  1.572097e+01    1.966251e+00
  1.573685e+01    1.978686e+00
  1.575273e+01    1.982077e+00
  1.576860e+01    2.001273e+00
  1.578448e+01    1.929822e+00
  1.580035e+01    1.917742e+00
  1.581623e+01    1.945553e+00
  1.583210e+01    1.918334e+00
  1.584798e+01    1.895510e+00
  1.586385e+01    1.883465e+00
  1.587973e+01    1.929227e+00
  1.589561e+01    1.920296e+00
  1.591148e+01    1.884009e+00
  1.592736e+01    1.895081e+00
  1.594323e+01    1.881694e+00
  1.595911e+01    1.863688e+00
  1.597498e+01    1.893660e+00
  1.599086e+01    1.856134e+00
  1.600673e+01    1.879054e+00
  1.602261e+01    1.855119e+00
  1.603849e+01    1.864803e+00
  1.605436e+01    1.859447e+00
  1.607024e+01    1.850333e+00
  1.608611e+01    1.856339e+00
  1.610199e+01    1.871718e+00
  1.611786e+01    1.854656e+00
  1.613374e+01    1.860367e+00
  1.614961e+01    1.825048e+00
  1.616549e+01    1.811799e+00
  1.618137e+01    1.867392e+00
  1.619724e+01    1.848416e+00
  1.621312e+01    1.801857e+00
  1.622899e+01    1.804722e+00
  1.624487e+01    1.823200e+00
  1.626074e+01    1.821053e+00
  1.627662e+01    1.819383e+00
  1.629250e+01    1.836387e+00
  1.630837e+01    1.814968e+00
  1.632425e+01    1.797356e+00
  1.634012e+01    1.793787e+00
  1.635600e+01    1.837778e+00
  1.637187e+01    1.796782e+00
  1.638775e+01    1.785111e+00
  1.640362e+01    1.795067e+00
  1.641950e+01    1.775219e+00
  1.643538e+01    1.764059e+00
  1.645125e+01    1.799793e+00
  1.646713e+01    1.821092e+00
  1.648300e+01    1.771319e+00
  1.649888e+01    1.742771e+00
  1.651475e+01    1.738517e+00
  1.653063e+01    1.737807e+00
  1.654650e+01    1.742554e+00
  1.656238e+01    1.763596e+00
  1.657826e+01    1.756024e+00
  1.659413e+01    1.738586e+00
  1.661001e+01    1.734067e+00
  1.662588e+01    1.700989e+00
  1.664176e+01    1.712800e+00
  1.665763e+01    1.723335e+00
  1.667351e+01    1.733470e+00
  1.668938e+01    1.764680e+00
  1.670526e+01    1.745936e+00
  1.672114e+01    1.721892e+00
  1.673701e+01    1.716392e+00
  1.675289e+01    1.704965e+00
  1.676876e+01    1.701655e+00
  1.678464e+01    1.691568e+00
  1.680051e+01    1.676235e+00
  1.681639e+01    1.682979e+00
  1.683226e+01    1.698773e+00
  1.684814e+01    1.722262e+00
  1.686402e+01    1.700516e+00
  1.687989e+01    1.717296e+00
  1.689577e+01    1.708634e+00
  1.691164e+01    1.687582e+00
  1.692752e+01    1.688480e+00
  1.694339e+01    1.715523e+00
  1.695927e+01    1.672182e+00
  1.697514e+01    1.653561e+00
  1.699102e+01    1.662702e+00
  1.700690e+01    1.680658e+00
  1.702277e+01    1.652167e+00
  1.703865e+01    1.666167e+00
  1.705452e+01    1.705700e+00
  1.707040e+01    1.679817e+00
  1.708627e+01    1.658998e+00
  1.710215e+01    1.643060e+00
  1.711802e+01    1.708832e+00
  1.713390e+01    1.661379e+00
  1.714978e+01    1.653974e+00
  1.716565e+01    1.668842e+00
  1.718153e+01    1.649338e+00
  1.719740e+01    1.671625e+00
  1.721328e+01    1.671144e+00
  1.722915e+01    1.646354e+00
  1.724503e+01    1.615877e+00
  1.726091e+01    1.623008e+00
  1.727678e+01    1.627125e+00
  1.729266e+01    1.597889e+00
  1.730853e+01    1.567752e+00
  1.732441e+01    1.579863e+00
  1.734028e+01    1.599153e+00
  1.735616e+01    1.614549e+00
  1.737203e+01    1.607163e+00
  1.738791e+01    1.611589e+00
  1.740379e+01    1.604765e+00
  1.741966e+01    1.611761e+00
  1.743554e+01    1.621668e+00
  1.745141e+01    1.607613e+00
  1.746729e+01    1.574135e+00
  1.748316e+01    1.570668e+00
  1.749904e+01    1.579197e+00
  1.751491e+01    1.589682e+00
  1.753079e+01    1.599527e+00
  1.754667e+01    1.583307e+00
  1.756254e+01    1.593088e+00
  1.757842e+01    1.591153e+00
  1.759429e+01    1.554607e+00
  1.761017e+01    1.535954e+00
  1.762604e+01    1.568346e+00
  1.764192e+01    1.604040e+00
  1.765779e+01    1.585258e+00
  1.767367e+01    1.550440e+00
  1.768955e+01    1.547682e+00
  1.770542e+01    1.547656e+00
  1.772130e+01    1.545092e+00
  1.773717e+01    1.539001e+00
  1.775305e+01    1.542676e+00
  1.776892e+01    1.547523e+00
  1.778480e+01    1.527346e+00
  1.780067e+01    1.557375e+00
  1.781655e+01    1.555441e+00
  1.783243e+01    1.549851e+00
  1.784830e+01    1.537418e+00
  1.786418e+01    1.547494e+00
  1.788005e+01    1.557189e+00
  1.789593e+01    1.561843e+00
  1.791180e+01    1.554803e+00
  1.792768e+01    1.533766e+00
  1.794355e+01    1.524245e+00
  1.795943e+01    1.507329e+00
  1.797531e+01    1.516962e+00
  1.799118e+01    1.526711e+00
  1.800706e+01    1.512998e+00
  1.802293e+01    1.531686e+00
  1.803881e+01    1.536942e+00
  1.805468e+01    1.526281e+00
  1.807056e+01    1.528262e+00
  1.808643e+01    1.516290e+00
  1.810231e+01    1.510014e+00
  1.811819e+01    1.488121e+00
  1.813406e+01    1.499012e+00
  1.814994e+01    1.500643e+00
  1.816581e+01    1.505708e+00
  1.818169e+01    1.470903e+00
  1.819756e+01    1.488030e+00
  1.821344e+01    1.535827e+00
  1.822932e+01    1.495804e+00
  1.824519e+01    1.461932e+00
  1.826107e+01    1.470420e+00
  1.827694e+01    1.455656e+00
  1.829282e+01    1.470813e+00
  1.830869e+01    1.488035e+00
  1.832457e+01    1.474969e+00
  1.834044e+01    1.467553e+00
  1.835632e+01    1.493647e+00
  1.837220e+01    1.472596e+00
  1.838807e+01    1.439139e+00
  1.840395e+01    1.473701e+00
  1.841982e+01    1.462856e+00
  1.843570e+01    1.482457e+00
  1.845157e+01    1.473273e+00
  1.846745e+01    1.457507e+00
  1.848332e+01    1.461350e+00
  1.849920e+01    1.437885e+00
  1.851508e+01    1.464483e+00
  1.853095e+01    1.454356e+00
  1.854683e+01    1.455567e+00
  1.856270e+01    1.436910e+00
  1.857858e+01    1.419947e+00
  1.859445e+01    1.454786e+00
  1.861033e+01    1.441220e+00
  1.862620e+01    1.431455e+00
  1.864208e+01    1.425322e+00
  1.865796e+01    1.428124e+00
  1.867383e+01    1.422787e+00
  1.868971e+01    1.415949e+00
  1.870558e+01    1.406783e+00
  1.872146e+01    1.410536e+00
  1.873733e+01    1.421569e+00
  1.875321e+01    1.412144e+00
  1.876908e+01    1.407677e+00
  1.878496e+01    1.431902e+00
  1.880084e+01    1.433192e+00
  1.881671e+01    1.398880e+00
  1.883259e+01    1.412276e+00
  1.884846e+01    1.411223e+00
  1.886434e+01    1.409378e+00
  1.888021e+01    1.422941e+00
  1.889609e+01    1.407526e+00
  1.891196e+01    1.384339e+00
  1.892784e+01    1.378279e+00
  1.894372e+01    1.362386e+00
  1.895959e+01    1.348490e+00
  1.897547e+01    1.389226e+00
  1.899134e+01    1.380176e+00
  1.900722e+01    1.396976e+00
  1.902309e+01    1.384732e+00
  1.903897e+01    1.402184e+00
  1.905484e+01    1.395417e+00
  1.907072e+01    1.378548e+00
  1.908660e+01    1.387015e+00
  1.910247e+01    1.363298e+00
  1.911835e+01    1.370798e+00
  1.913422e+01    1.351152e+00
  1.915010e+01    1.360231e+00
  1.916597e+01    1.379713e+00
  1.918185e+01    1.392161e+00
  1.919773e+01    1.374815e+00
  1.921360e+01    1.327752e+00
  1.922948e+01    1.339661e+00
  1.924535e+01    1.326036e+00
  1.926123e+01    1.314257e+00
  1.927710e+01    1.327700e+00
  1.929298e+01    1.361859e+00
  1.930885e+01    1.358287e+00
  1.932473e+01    1.341913e+00
  1.934061e+01    1.344999e+00
  1.935648e+01    1.372149e+00
  1.937236e+01    1.354190e+00
  1.938823e+01    1.343374e+00
  1.940411e+01    1.325786e+00
  1.941998e+01    1.328819e+00
  1.943586e+01    1.350573e+00
  1.945173e+01    1.339611e+00
  1.946761e+01    1.331028e+00
  1.948349e+01    1.332678e+00
  1.949936e+01    1.340194e+00
  1.951524e+01    1.357290e+00
  1.953111e+01    1.358843e+00
  1.954699e+01    1.345120e+00
  1.956286e+01    1.328940e+00
  1.957874e+01    1.336096e+00
  1.959461e+01    1.342898e+00
  1.961049e+01    1.345272e+00
  1.962637e+01    1.323912e+00
  1.964224e+01    1.330793e+00
  1.965812e+01    1.344911e+00
  1.967399e+01    1.337716e+00
  1.968987e+01    1.323624e+00
  1.970574e+01    1.346316e+00
  1.972162e+01    1.316051e+00
  1.973749e+01    1.322673e+00
  1.975337e+01    1.319842e+00
  1.976925e+01    1.329289e+00
  1.978512e+01    1.316466e+00
  1.980100e+01    1.282501e+00
  1.981687e+01    1.315975e+00
  1.983275e+01    1.314381e+00
  1.984862e+01    1.324224e+00
  1.986450e+01    1.314938e+00
  1.988037e+01    1.295339e+00
  1.989625e+01    1.294063e+00
  1.991213e+01    1.286786e+00
  1.992800e+01    1.304222e+00
  1.994388e+01    1.265494e+00
  1.995975e+01    1.291538e+00
  1.997563e+01    1.299423e+00
  1.999150e+01    1.284524e+00
  2.000738e+01    1.285629e+00
  2.002325e+01    1.284247e+00
  2.003913e+01    1.270011e+00
  2.005501e+01    1.276427e+00
  2.007088e+01    1.281716e+00
  2.008676e+01    1.277148e+00
  2.010263e+01    1.285607e+00
  2.011851e+01    1.281174e+00
  2.013438e+01    1.275436e+00
  2.015026e+01    1.276715e+00
  2.016614e+01    1.278270e+00
  2.018201e+01    1.266858e+00
  2.019789e+01    1.287972e+00
  2.021376e+01    1.301332e+00
  2.022964e+01    1.280730e+00
  2.024551e+01    1.263255e+00
  2.026139e+01    1.259237e+00
  2.027726e+01    1.291532e+00
  2.029314e+01    1.282405e+00
  2.030902e+01    1.247420e+00
  2.032489e+01    1.260963e+00
  2.034077e+01    1.280434e+00
  2.035664e+01    1.268494e+00
  2.037252e+01    1.241892e+00
  2.038839e+01    1.244001e+00
  2.040427e+01    1.253573e+00
  2.042014e+01    1.242052e+00
  2.043602e+01    1.227127e+00
  2.045190e+01    1.233043e+00
  2.046777e+01    1.243389e+00
  2.048365e+01    1.239892e+00
  2.049952e+01    1.234671e+00
  2.051540e+01    1.235827e+00
  2.053127e+01    1.222541e+00
  2.054715e+01    1.245349e+00
  2.056302e+01    1.233350e+00
  2.057890e+01    1.246556e+00
  2.059478e+01    1.248409e+00
  2.061065e+01    1.223122e+00
  2.062653e+01    1.245820e+00
  2.064240e+01    1.245488e+00
  2.065828e+01    1.237046e+00
  2.067415e+01    1.255093e+00
  2.069003e+01    1.239394e+00
  2.070590e+01    1.251256e+00
  2.072178e+01    1.238798e+00
  2.073766e+01    1.223333e+00
  2.075353e+01    1.233351e+00
  2.076941e+01    1.243048e+00
  2.078528e+01    1.219842e+00
  2.080116e+01    1.216113e+00
  2.081703e+01    1.205102e+00
  2.083291e+01    1.226691e+00
  2.084878e+01    1.246134e+00
  2.086466e+01    1.223258e+00
  2.088054e+01    1.234232e+00
  2.089641e+01    1.231375e+00
  2.091229e+01    1.222627e+00
  2.092816e+01    1.220595e+00
  2.094404e+01    1.240006e+00
  2.095991e+01    1.240097e+00
  2.097579e+01    1.241052e+00
  2.099166e+01    1.231724e+00
  2.100754e+01    1.223724e+00
  2.102342e+01    1.228858e+00
  2.103929e+01    1.223559e+00
  2.105517e+01    1.196484e+00
  2.107104e+01    1.238146e+00
  2.108692e+01    1.229079e+00
  2.110279e+01    1.216318e+00
  2.111867e+01    1.241590e+00
  2.113455e+01    1.233622e+00
  2.115042e+01    1.244576e+00
  2.116630e+01    1.239205e+00
  2.118217e+01    1.219311e+00
  2.119805e+01    1.228789e+00
  2.121392e+01    1.227166e+00
  2.122980e+01    1.214752e+00
  2.124567e+01    1.238590e+00
  2.126155e+01    1.246813e+00
  2.127743e+01    1.261238e+00
  2.129330e+01    1.242113e+00
  2.130918e+01    1.265951e+00
  2.132505e+01    1.267284e+00
  2.134093e+01    1.281712e+00
  2.135680e+01    1.274177e+00
  2.137268e+01    1.274774e+00
  2.138855e+01    1.294759e+00
  2.140443e+01    1.331541e+00
  2.142031e+01    1.336875e+00
  2.143618e+01    1.341220e+00
  2.145206e+01    1.375866e+00
  2.146793e+01    1.382275e+00
  2.148381e+01    1.383272e+00
  2.149968e+01    1.415325e+00
  2.151556e+01    1.447033e+00
  2.153143e+01    1.495984e+00
  2.154731e+01    1.521920e+00
  2.156319e+01    1.546749e+00
  2.157906e+01    1.611960e+00
  2.159494e+01    1.673837e+00
  2.161081e+01    1.755289e+00
  2.162669e+01    1.829519e+00
  2.164256e+01    1.977234e+00
  2.165844e+01    2.127184e+00
  2.167431e+01    2.278386e+00
  2.169019e+01    2.486352e+00
  2.170607e+01    2.777550e+00
  2.172194e+01    3.116680e+00
  2.173782e+01    3.540989e+00
  2.175369e+01    4.010300e+00
  2.176957e+01    4.536276e+00
  2.178544e+01    5.117837e+00
  2.180132e+01    5.766497e+00
  2.181719e+01    6.499564e+00
  2.183307e+01    7.170310e+00
  2.184895e+01    7.731117e+00
  2.186482e+01    8.278769e+00
  2.188070e+01    8.771010e+00
  2.189657e+01    8.901148e+00
  2.191245e+01    8.750627e+00
  2.192832e+01    8.235369e+00
  2.194420e+01    7.449290e+00
  2.196007e+01    6.618806e+00
  2.197595e+01    5.755034e+00
  2.199183e+01    4.918973e+00
  2.200770e+01    4.192201e+00
  2.202358e+01    3.654932e+00
  2.203945e+01    3.231590e+00
  2.205533e+01    2.843257e+00
  2.207120e+01    2.545329e+00
  2.208708e+01    2.323321e+00
  2.210296e+01    2.140682e+00
  2.211883e+01    1.984797e+00
  2.213471e+01    1.867774e+00
  2.215058e+01    1.761959e+00
  2.216646e+01    1.693753e+00
  2.218233e+01    1.598197e+00
  2.219821e+01    1.537275e+00
  2.221408e+01    1.494717e+00
  2.222996e+01    1.441354e+00
  2.224584e+01    1.408173e+00
  2.226171e+01    1.377507e+00
  2.227759e+01    1.380060e+00
  2.229346e+01    1.348314e+00
  2.230934e+01    1.327271e+00
  2.232521e+01    1.297558e+00
  2.234109e+01    1.259563e+00
  2.235696e+01    1.236278e+00
  2.237284e+01    1.227832e+00
  2.238872e+01    1.238185e+00
  2.240459e+01    1.223235e+00
  2.242047e+01    1.218194e+00
  2.243634e+01    1.222706e+00
  2.245222e+01    1.188324e+00
  2.246809e+01    1.134754e+00
  2.248397e+01    1.154128e+00
  2.249984e+01    1.142705e+00
  2.251572e+01    1.149314e+00
  2.253160e+01    1.159831e+00
  2.254747e+01    1.142678e+00
  2.256335e+01    1.128679e+00
  2.257922e+01    1.121683e+00
  2.259510e+01    1.119134e+00
  2.261097e+01    1.094492e+00
  2.262685e+01    1.092675e+00
  2.264272e+01    1.071157e+00
  2.265860e+01    1.078308e+00
  2.267448e+01    1.090526e+00
  2.269035e+01    1.087453e+00
  2.270623e+01    1.079798e+00
  2.272210e+01    1.072221e+00
  2.273798e+01    1.062135e+00
  2.275385e+01    1.046388e+00
  2.276973e+01    1.057813e+00
  2.278560e+01    1.052310e+00
  2.280148e+01    1.063480e+00
  2.281736e+01    1.059831e+00
  2.283323e+01    1.046834e+00
  2.284911e+01    1.043291e+00
  2.286498e+01    1.043908e+00
  2.288086e+01    1.062966e+00
  2.289673e+01    1.035780e+00
  2.291261e+01    1.018180e+00
  2.292848e+01    1.030823e+00
  2.294436e+01    1.027360e+00
  2.296024e+01    1.016441e+00
  2.297611e+01    1.016506e+00
  2.299199e+01    9.990875e-01
  2.300786e+01    1.021051e+00
  2.302374e+01    1.049091e+00
  2.303961e+01    1.023132e+00
  2.305549e+01    1.033700e+00
  2.307137e+01    1.033701e+00
  2.308724e+01    1.021897e+00
  2.310312e+01    9.881272e-01
  2.311899e+01    1.006991e+00
  2.313487e+01    1.007271e+00
  2.315074e+01    1.011763e+00
  2.316662e+01    1.008377e+00
  2.318249e+01    9.941978e-01
  2.319837e+01    9.778388e-01
  2.321425e+01    9.862275e-01
  2.323012e+01    1.012316e+00
  2.324600e+01    9.913039e-01
  2.326187e+01    9.811857e-01
  2.327775e+01    9.971125e-01
  2.329362e+01    9.899700e-01
  2.330950e+01    9.864891e-01
  2.332537e+01    9.814320e-01
  2.334125e+01    9.792368e-01
  2.335713e+01    9.727039e-01
  2.337300e+01    9.892854e-01
  2.338888e+01    9.862660e-01
  2.340475e+01    9.785800e-01
  2.342063e+01    9.789838e-01
  2.343650e+01    9.698280e-01
  2.345238e+01    9.642540e-01
  2.346825e+01    9.716505e-01
  2.348413e+01    9.766185e-01
  2.350001e+01    9.570060e-01
  2.351588e+01    9.612855e-01
  2.353176e+01    9.780576e-01
  2.354763e+01    9.689417e-01
  2.356351e+01    9.743462e-01
  2.357938e+01    9.829637e-01
  2.359526e+01    9.788522e-01
  2.361113e+01    9.539119e-01
  2.362701e+01    9.625212e-01
  2.364289e+01    9.377112e-01
  2.365876e+01    9.391471e-01
  2.367464e+01    9.476558e-01
  2.369051e+01    9.401749e-01
  2.370639e+01    9.182538e-01
  2.372226e+01    9.559388e-01
  2.373814e+01    9.514083e-01
  2.375401e+01    9.237948e-01
  2.376989e+01    9.269742e-01
  2.378577e+01    9.259418e-01
  2.380164e+01    9.418793e-01
  2.381752e+01    9.393085e-01
  2.383339e+01    9.259870e-01
  2.384927e+01    9.191706e-01
  2.386514e+01    9.216229e-01
  2.388102e+01    8.963875e-01
  2.389689e+01    9.054343e-01
  2.391277e+01    9.323241e-01
  2.392865e+01    9.169442e-01
  2.394452e+01    9.148828e-01
  2.396040e+01    9.095623e-01
  2.397627e+01    9.123205e-01
  2.399215e+01    8.913479e-01
  2.400802e+01    8.909956e-01
  2.402390e+01    9.095341e-01
  2.403978e+01    8.926659e-01
  2.405565e+01    8.834787e-01
  2.407153e+01    8.912795e-01
  2.408740e+01    8.988498e-01
  2.410328e+01    8.689716e-01
  2.411915e+01    8.929811e-01
  2.413503e+01    8.875662e-01
  2.415090e+01    9.001359e-01
  2.416678e+01    8.766955e-01
  2.418266e+01    8.833790e-01
  2.419853e+01    8.701861e-01
  2.421441e+01    8.763074e-01
  2.423028e+01    8.745607e-01
  2.424616e+01    8.716662e-01
  2.426203e+01    8.758437e-01
  2.427791e+01    8.906200e-01
  2.429378e+01    8.974307e-01
  2.430966e+01    8.811435e-01
  2.432554e+01    8.942776e-01
  2.434141e+01    9.139515e-01
  2.435729e+01    9.166272e-01
  2.437316e+01    8.901061e-01
  2.438904e+01    9.114736e-01
  2.440491e+01    9.121471e-01
  2.442079e+01    8.776351e-01
  2.443666e+01    8.702778e-01
  2.445254e+01    9.020562e-01
  2.446842e+01    9.079809e-01
  2.448429e+01    8.872331e-01
  2.450017e+01    9.031237e-01
  2.451604e+01    8.676957e-01
  2.453192e+01    8.753130e-01
  2.454779e+01    8.967713e-01
  2.456367e+01    9.014244e-01
  2.457954e+01    9.026295e-01
  2.459542e+01    9.117304e-01
  2.461130e+01    9.063878e-01
  2.462717e+01    8.892601e-01
  2.464305e+01    8.820982e-01
  2.465892e+01    8.869945e-01
  2.467480e+01    8.904854e-01
  2.469067e+01    8.840607e-01
  2.470655e+01    8.814486e-01
  2.472242e+01    8.931735e-01
  2.473830e+01    8.864670e-01
  2.475418e+01    9.016026e-01
  2.477005e+01    9.147674e-01
  2.478593e+01    9.175412e-01
  2.480180e+01    8.984578e-01
  2.481768e+01    8.985487e-01
  2.483355e+01    8.848273e-01
  2.484943e+01    8.799390e-01
  2.486530e+01    8.966105e-01
  2.488118e+01    9.010468e-01
  2.489706e+01    8.837234e-01
  2.491293e+01    8.638501e-01
  2.492881e+01    8.656927e-01
  2.494468e+01    8.862751e-01
  2.496056e+01    8.717866e-01
  2.497643e+01    8.890303e-01
  2.499231e+01    9.107708e-01
  2.500819e+01    8.838431e-01
  2.502406e+01    9.208604e-01
  2.503994e+01    9.166298e-01
  2.505581e+01    9.047802e-01
  2.507169e+01    9.079520e-01
  2.508756e+01    9.115791e-01
  2.510344e+01    9.156890e-01
  2.511931e+01    9.025073e-01
  2.513519e+01    9.157740e-01
  2.515107e+01    9.260270e-01
  2.516694e+01    9.115880e-01
  2.518282e+01    9.372436e-01
  2.519869e+01    9.227092e-01
  2.521457e+01    9.199548e-01
  2.523044e+01    9.159761e-01
  2.524632e+01    9.209612e-01
  2.526219e+01    9.472398e-01
  2.527807e+01    9.532952e-01
  2.529395e+01    9.683651e-01
  2.530982e+01    9.578826e-01
  2.532570e+01    9.554548e-01
  2.534157e+01    9.544285e-01
  2.535745e+01    9.822964e-01
  2.537332e+01    9.752305e-01
  2.538920e+01    9.698191e-01
  2.540507e+01    1.001388e+00
  2.542095e+01    9.872253e-01
  2.543683e+01    1.008924e+00
  2.545270e+01    1.015394e+00
  2.546858e+01    1.033447e+00
  2.548445e+01    1.026818e+00
  2.550033e+01    1.070671e+00
  2.551620e+01    1.091385e+00
  2.553208e+01    1.101779e+00
  2.554795e+01    1.106177e+00
  2.556383e+01    1.149057e+00
  2.557971e+01    1.144323e+00
  2.559558e+01    1.172552e+00
  2.561146e+01    1.216319e+00
  2.562733e+01    1.237816e+00
  2.564321e+01    1.286953e+00
  2.565908e+01    1.346276e+00
  2.567496e+01    1.440485e+00
  2.569083e+01    1.512472e+00
  2.570671e+01    1.598610e+00
  2.572259e+01    1.713161e+00
  2.573846e+01    1.845340e+00
  2.575434e+01    2.022283e+00
  2.577021e+01    2.226084e+00
  2.578609e+01    2.518121e+00
  2.580196e+01    2.832439e+00
  2.581784e+01    3.154657e+00
  2.583371e+01    3.573054e+00
  2.584959e+01    4.074204e+00
  2.586547e+01    4.635416e+00
  2.588134e+01    5.195125e+00
  2.589722e+01    5.789719e+00
  2.591309e+01    6.302714e+00
  2.592897e+01    6.771279e+00
  2.594484e+01    7.046107e+00
  2.596072e+01    7.175893e+00
  2.597660e+01    6.912941e+00
  2.599247e+01    6.559286e+00
  2.600835e+01    6.012790e+00
  2.602422e+01    5.291275e+00
  2.604010e+01    4.597847e+00
  2.605597e+01    4.013255e+00
  2.607185e+01    3.460578e+00
  2.608772e+01    3.029376e+00
  2.610360e+01    2.677346e+00
  2.611948e+01    2.391201e+00
  2.613535e+01    2.149249e+00
  2.615123e+01    1.944173e+00
  2.616710e+01    1.828548e+00
  2.618298e+01    1.691019e+00
  2.619885e+01    1.576797e+00
  2.621473e+01    1.470406e+00
  2.623060e+01    1.417678e+00
  2.624648e+01    1.336743e+00
  2.626236e+01    1.278737e+00
  2.627823e+01    1.232289e+00
  2.629411e+01    1.195916e+00
  2.630998e+01    1.159792e+00
  2.632586e+01    1.145470e+00
  2.634173e+01    1.119767e+00
  2.635761e+01    1.103704e+00
  2.637348e+01    1.075993e+00
  2.638936e+01    1.066657e+00
  2.640524e+01    1.059862e+00
  2.642111e+01    1.036193e+00
  2.643699e+01    1.043814e+00
  2.645286e+01    1.058411e+00
  2.646874e+01    1.027563e+00
  2.648461e+01    1.008739e+00
  2.650049e+01    1.019417e+00
  2.651636e+01    1.017388e+00
  2.653224e+01    9.942600e-01
  2.654812e+01    9.906389e-01
  2.656399e+01    9.916365e-01
  2.657987e+01    9.883149e-01
  2.659574e+01    9.864842e-01
  2.661162e+01    9.805843e-01
  2.662749e+01    9.829017e-01
  2.664337e+01    9.398839e-01
  2.665924e+01    9.710342e-01
  2.667512e+01    9.921144e-01
  2.669100e+01    9.880744e-01
  2.670687e+01    9.834542e-01
  2.672275e+01    9.696770e-01
  2.673862e+01    9.748312e-01
  2.675450e+01    9.839147e-01
  2.677037e+01    9.877686e-01
  2.678625e+01    9.845134e-01
  2.680212e+01    9.865092e-01
  2.681800e+01    9.879931e-01
  2.683388e+01    9.876146e-01
  2.684975e+01    1.007747e+00
  2.686563e+01    9.678276e-01
  2.688150e+01    9.827755e-01
  2.689738e+01    9.861200e-01
  2.691325e+01    1.019115e+00
  2.692913e+01    1.033242e+00
  2.694501e+01    1.020504e+00
  2.696088e+01    1.038909e+00
  2.697676e+01    1.060055e+00
  2.699263e+01    1.087522e+00
  2.700851e+01    1.106795e+00
  2.702438e+01    1.140440e+00
  2.704026e+01    1.184150e+00
  2.705613e+01    1.233561e+00
  2.707201e+01    1.297468e+00
  2.708789e+01    1.351435e+00
  2.710376e+01    1.492301e+00
  2.711964e+01    1.627633e+00
  2.713551e+01    1.738746e+00
  2.715139e+01    1.852866e+00
  2.716726e+01    1.948580e+00
  2.718314e+01    2.078265e+00
  2.719901e+01    2.175102e+00
  2.721489e+01    2.170498e+00
  2.723077e+01    2.157556e+00
  2.724664e+01    2.091107e+00
  2.726252e+01    1.969272e+00
  2.727839e+01    1.851364e+00
  2.729427e+01    1.719324e+00
  2.731014e+01    1.578618e+00
  2.732602e+01    1.473682e+00
  2.734189e+01    1.396995e+00
  2.735777e+01    1.258341e+00
  2.737365e+01    1.204164e+00
  2.738952e+01    1.171854e+00
  2.740540e+01    1.118199e+00
  2.742127e+01    1.094570e+00
  2.743715e+01    1.070960e+00
  2.745302e+01    1.034911e+00
  2.746890e+01    1.024180e+00
  2.748477e+01    9.951673e-01
  2.750065e+01    9.726496e-01
  2.751653e+01    9.659730e-01
  2.753240e+01    9.449562e-01
  2.754828e+01    9.414139e-01
  2.756415e+01    9.364992e-01
  2.758003e+01    9.311090e-01
  2.759590e+01    9.303623e-01
  2.761178e+01    9.339248e-01
  2.762765e+01    9.238526e-01
  2.764353e+01    9.158427e-01
  2.765941e+01    9.081038e-01
  2.767528e+01    9.194841e-01
  2.769116e+01    9.151973e-01
  2.770703e+01    9.135398e-01
  2.772291e+01    9.009210e-01
  2.773878e+01    9.174243e-01
  2.775466e+01    9.006035e-01
  2.777054e+01    8.882414e-01
  2.778641e+01    8.969848e-01
  2.780229e+01    9.066562e-01
  2.781816e+01    8.997026e-01
  2.783404e+01    8.859745e-01
  2.784991e+01    8.899727e-01
  2.786579e+01    8.975803e-01
  2.788166e+01    8.831885e-01
  2.789754e+01    8.722013e-01
  2.791342e+01    8.908890e-01
  2.792929e+01    8.925500e-01
  2.794517e+01    8.828445e-01
  2.796104e+01    8.744493e-01
  2.797692e+01    8.641272e-01
  2.799279e+01    8.638507e-01
  2.800867e+01    8.551064e-01
  2.802454e+01    8.714804e-01
  2.804042e+01    8.744617e-01
  2.805630e+01    8.498210e-01
  2.807217e+01    8.528255e-01
  2.808805e+01    8.819216e-01
  2.810392e+01    8.502194e-01
  2.811980e+01    8.457639e-01
  2.813567e+01    8.364635e-01
  2.815155e+01    8.484505e-01
  2.816742e+01    8.591511e-01
  2.818330e+01    8.463509e-01
  2.819918e+01    8.529522e-01
  2.821505e+01    8.613729e-01
  2.823093e+01    8.638610e-01
  2.824680e+01    8.522247e-01
  2.826268e+01    8.413587e-01
  2.827855e+01    8.538632e-01
  2.829443e+01    8.499713e-01
  2.831030e+01    8.418695e-01
  2.832618e+01    8.503963e-01
  2.834206e+01    8.570968e-01
  2.835793e+01    8.529233e-01
  2.837381e+01    8.356739e-01
  2.838968e+01    8.281609e-01
  2.840556e+01    8.357622e-01
  2.842143e+01    8.313537e-01
  2.843731e+01    8.488104e-01
  2.845318e+01    8.245875e-01
  2.846906e+01    8.588489e-01
  2.848494e+01    8.581482e-01
  2.850081e+01    8.529136e-01
  2.851669e+01    8.258176e-01
  2.853256e+01    8.328114e-01
  2.854844e+01    8.263796e-01
  2.856431e+01    8.292831e-01
  2.858019e+01    8.531113e-01
  2.859606e+01    8.130182e-01
  2.861194e+01    8.356522e-01
  2.862782e+01    8.645568e-01
  2.864369e+01    8.361257e-01
  2.865957e+01    8.116429e-01
  2.867544e+01    8.133362e-01
  2.869132e+01    8.250041e-01
  2.870719e+01    8.317184e-01
  2.872307e+01    8.390126e-01
  2.873895e+01    7.983612e-01
  2.875482e+01    8.046989e-01
  2.877070e+01    8.504590e-01
  2.878657e+01    8.512753e-01
  2.880245e+01    8.196591e-01
  2.881832e+01    8.146105e-01
  2.883420e+01    8.188211e-01
  2.885007e+01    8.350363e-01
  2.886595e+01    8.315740e-01
  2.888183e+01    8.094997e-01
  2.889770e+01    8.199031e-01
  2.891358e+01    8.204989e-01
  2.892945e+01    8.236516e-01
  2.894533e+01    8.073235e-01
  2.896120e+01    8.175777e-01
  2.897708e+01    8.408569e-01
  2.899295e+01    8.349580e-01
  2.900883e+01    8.039742e-01
  2.902471e+01    8.147771e-01
  2.904058e+01    8.204547e-01
  2.905646e+01    8.153483e-01
  2.907233e+01    8.109613e-01
  2.908821e+01    8.162623e-01
  2.910408e+01    8.221277e-01
  2.911996e+01    8.225324e-01
  2.913583e+01    8.116192e-01
  2.915171e+01    8.367756e-01
  2.916759e+01    8.332447e-01
  2.918346e+01    8.078962e-01
  2.919934e+01    8.065441e-01
  2.921521e+01    8.243160e-01
  2.923109e+01    8.209446e-01
  2.924696e+01    8.168087e-01
  2.926284e+01    7.997535e-01
  2.927871e+01    8.040730e-01
  2.929459e+01    8.045392e-01
  2.931047e+01    8.218715e-01
  2.932634e+01    8.112174e-01
  2.934222e+01    7.968790e-01
  2.935809e+01    8.130670e-01
  2.937397e+01    8.210433e-01
  2.938984e+01    8.108261e-01
  2.940572e+01    8.136914e-01
  2.942159e+01    8.042051e-01
  2.943747e+01    8.006320e-01
  2.945335e+01    8.221988e-01
  2.946922e+01    8.252229e-01
  2.948510e+01    8.102409e-01
  2.950097e+01    8.345543e-01
  2.951685e+01    8.167486e-01
  2.953272e+01    8.020586e-01
  2.954860e+01    8.025442e-01
  2.956447e+01    8.043460e-01
  2.958035e+01    8.136415e-01
  2.959623e+01    8.159630e-01
  2.961210e+01    8.044459e-01
  2.962798e+01    8.060190e-01
  2.964385e+01    8.204519e-01
  2.965973e+01    7.913221e-01
  2.967560e+01    8.269734e-01
  2.969148e+01    7.973599e-01
  2.970736e+01    8.114341e-01
  2.972323e+01    8.220199e-01
  2.973911e+01    8.054073e-01
  2.975498e+01    7.910810e-01
  2.977086e+01    7.953686e-01
  2.978673e+01    8.186458e-01
  2.980261e+01    8.021628e-01
  2.981848e+01    8.254105e-01
  2.983436e+01    8.074613e-01
  2.985024e+01    8.034333e-01
  2.986611e+01    8.093944e-01
  2.988199e+01    7.819979e-01
  2.989786e+01    7.926963e-01
  2.991374e+01    8.068436e-01
  2.992961e+01    7.915384e-01
  2.994549e+01    7.879046e-01
  2.996136e+01    8.079563e-01
  2.997724e+01    8.028663e-01
  2.999312e+01    8.141514e-01
  3.000899e+01    8.252217e-01
  3.002487e+01    8.318548e-01
  3.004074e+01    8.249738e-01
  3.005662e+01    8.218561e-01
  3.007249e+01    8.168052e-01
  3.008837e+01    8.101101e-01
  3.010424e+01    8.001550e-01
  3.012012e+01    7.865288e-01
  3.013600e+01    7.831991e-01
  3.015187e+01    7.890902e-01
  3.016775e+01    7.890200e-01
  3.018362e+01    7.963226e-01
  3.019950e+01    8.019520e-01
  3.021537e+01    7.893161e-01
  3.023125e+01    8.010017e-01
  3.024712e+01    7.998461e-01
  3.026300e+01    7.686612e-01
  3.027888e+01    7.972288e-01
  3.029475e+01    8.018937e-01
  3.031063e+01    7.915852e-01
  3.032650e+01    7.913650e-01
  3.034238e+01    8.053281e-01
  3.035825e+01    7.945753e-01
  3.037413e+01    7.666594e-01
  3.039000e+01    7.778010e-01
  3.040588e+01    7.956316e-01
  3.042176e+01    8.011866e-01
  3.043763e+01    8.098711e-01
  3.045351e+01    7.828709e-01
  3.046938e+01    7.944335e-01
  3.048526e+01    7.838515e-01
  3.050113e+01    7.920221e-01
  3.051701e+01    7.980555e-01
  3.053288e+01    8.103660e-01
  3.054876e+01    8.125042e-01
  3.056464e+01    7.810097e-01
  3.058051e+01    7.835944e-01
  3.059639e+01    7.824653e-01
  3.061226e+01    7.819583e-01
  3.062814e+01    7.735259e-01
  3.064401e+01    7.940467e-01
  3.065989e+01    7.682614e-01
  3.067577e+01    7.949859e-01
  3.069164e+01    7.982531e-01
  3.070752e+01    8.126165e-01
  3.072339e+01    8.016850e-01
  3.073927e+01    7.958851e-01
  3.075514e+01    7.987427e-01
  3.077102e+01    7.843473e-01
  3.078689e+01    7.823409e-01
  3.080277e+01    7.704876e-01
  3.081865e+01    7.694925e-01
  3.083452e+01    7.860896e-01
  3.085040e+01    7.843294e-01
  3.086627e+01    7.665154e-01
  3.088215e+01    7.718480e-01
  3.089802e+01    7.697504e-01
  3.091390e+01    7.690405e-01
  3.092977e+01    7.709006e-01
  3.094565e+01    7.706696e-01
  3.096153e+01    7.901343e-01
  3.097740e+01    7.797884e-01
  3.099328e+01    7.849320e-01
  3.100915e+01    7.914211e-01
  3.102503e+01    7.881067e-01
  3.104090e+01    7.731658e-01
  3.105678e+01    7.770243e-01
  3.107265e+01    7.933983e-01
  3.108853e+01    8.010729e-01
  3.110441e+01    7.641048e-01
  3.112028e+01    7.721913e-01
  3.113616e+01    7.667506e-01
  3.115203e+01    8.115724e-01
  3.116791e+01    8.121185e-01
  3.118378e+01    7.890718e-01
  3.119966e+01    8.012820e-01
  3.121553e+01    7.781006e-01
  3.123141e+01    7.818866e-01
  3.124729e+01    7.867061e-01
  3.126316e+01    7.875007e-01
  3.127904e+01    7.820126e-01
  3.129491e+01    8.040983e-01
  3.131079e+01    8.042222e-01
  3.132666e+01    7.961997e-01
  3.134254e+01    8.094284e-01
  3.135841e+01    8.215610e-01
  3.137429e+01    7.898262e-01
  3.139017e+01    8.028216e-01
  3.140604e+01    7.886478e-01
  3.142192e+01    8.047132e-01
  3.143779e+01    8.119061e-01
  3.145367e+01    8.195996e-01
  3.146954e+01    8.227887e-01
  3.148542e+01    8.267702e-01
  3.150129e+01    8.373173e-01
  3.151717e+01    8.364031e-01
  3.153305e+01    8.552135e-01
  3.154892e+01    8.349883e-01
  3.156480e+01    8.480004e-01
  3.158067e+01    8.487737e-01
  3.159655e+01    8.915986e-01
  3.161242e+01    8.976868e-01
  3.162830e+01    9.044516e-01
  3.164418e+01    9.186528e-01
  3.166005e+01    9.325049e-01
  3.167593e+01    9.274997e-01
  3.169180e+01    1.003084e+00
  3.170768e+01    1.050699e+00
  3.172355e+01    1.042156e+00
  3.173943e+01    1.105822e+00
  3.175530e+01    1.164451e+00
  3.177118e+01    1.254938e+00
  3.178706e+01    1.317340e+00
  3.180293e+01    1.421213e+00
  3.181881e+01    1.581521e+00
  3.183468e+01    1.691230e+00
  3.185056e+01    1.833020e+00
  3.186643e+01    1.980618e+00
  3.188231e+01    2.057132e+00
  3.189818e+01    2.088258e+00
  3.191406e+01    2.092003e+00
  3.192994e+01    2.082263e+00
  3.194581e+01    1.961107e+00
  3.196169e+01    1.809493e+00
  3.197756e+01    1.733441e+00
  3.199344e+01    1.586061e+00
  3.200931e+01    1.434780e+00
  3.202519e+01    1.342272e+00
  3.204106e+01    1.259586e+00
  3.205694e+01    1.173397e+00
  3.207282e+01    1.120185e+00
  3.208869e+01    1.046047e+00
  3.210457e+01    1.000978e+00
  3.212044e+01    9.910457e-01
  3.213632e+01    9.540936e-01
  3.215219e+01    9.069183e-01
  3.216807e+01    9.175837e-01
  3.218394e+01    8.867868e-01
  3.219982e+01    8.831018e-01
  3.221570e+01    8.692907e-01
  3.223157e+01    8.713816e-01
  3.224745e+01    8.311182e-01
  3.226332e+01    8.407794e-01
  3.227920e+01    8.217402e-01
  3.229507e+01    7.886895e-01
  3.231095e+01    8.051328e-01
  3.232682e+01    8.272088e-01
  3.234270e+01    8.048539e-01
  3.235858e+01    7.995539e-01
  3.237445e+01    8.000426e-01
  3.239033e+01    8.003111e-01
  3.240620e+01    7.806756e-01
  3.242208e+01    8.012862e-01
  3.243795e+01    8.044769e-01
  3.245383e+01    8.046777e-01
  3.246970e+01    7.789701e-01
  3.248558e+01    7.868456e-01
  3.250146e+01    7.792985e-01
  3.251733e+01    7.808800e-01
  3.253321e+01    7.769138e-01
  3.254908e+01    7.939975e-01
