# == pyFAI calibration ==
# Distance Sample to Detector: 0.3999999939076516 m
# PONI: 9.750e-02, 1.135e-01 m
# Rotations: -0.000175 0.000000 -0.000000 rad
# 
# == Fit2d calibration ==
# Distance Sample-beamCenter: 400.000 mm
# Center: x=1514.000, y=1300.000 pix
# Tilt: 0.010 deg  TiltPlanRot: 0.010 deg
# 
# Detector Detector	 Spline= None	 PixelSize= 7.500e-05, 7.500e-05 m
#    Detector has a mask: False 
#    Detector has a dark current: False 
#    detector has a flat field: False 
# 
# Wavelength: 6.888e-11 m
# Mask applied: user provided
# Dark current applied: False
# Flat field applied: False
# Polarization factor: 0.99
# Normalization factor: 1.0
# --> /home/myspot/data/2024_07_Rosario/Ru-CGO-ex/2024-07-27_003_Ru-CGO-ex_Reaction_dwell_000023_data_000122.dat
#       q_nm^-1             I 
  2.003187e-02    3.412363e-01
  3.590745e-02    3.122031e-01
  5.178302e-02    3.822055e-02
  6.765859e-02    0.000000e+00
  8.353417e-02    4.263481e-02
  9.940974e-02    1.980205e-02
  1.152853e-01    2.774768e-02
  1.311609e-01    1.852852e-02
  1.470365e-01    7.785992e-04
  1.629120e-01    2.810438e-02
  1.787876e-01    3.018425e-02
  1.946632e-01    1.593289e-02
  2.105388e-01    3.871210e-02
  2.264143e-01    9.915694e-02
  2.422899e-01    3.952050e-02
  2.581655e-01    2.010727e-02
  2.740411e-01    5.021735e-02
  2.899166e-01    7.367607e-02
  3.057922e-01    6.237812e-02
  3.216678e-01    4.617909e-02
  3.375433e-01    3.337280e-02
  3.534189e-01    4.036318e-02
  3.692945e-01    5.126067e-02
  3.851701e-01    8.186982e-02
  4.010456e-01    7.422373e-02
  4.169212e-01    3.545523e-02
  4.327968e-01    1.967468e-02
  4.486724e-01    3.179947e-02
  4.645479e-01    2.635274e-02
  4.804235e-01    1.807316e-02
  4.962991e-01    2.246552e-02
  5.121747e-01    3.779284e-02
  5.280502e-01    2.196717e-02
  5.439258e-01    2.055234e-02
  5.598014e-01    2.961190e-02
  5.756770e-01    8.033187e-02
  5.915525e-01    4.509046e-02
  6.074281e-01    5.469158e-02
  6.233037e-01    4.997434e-02
  6.391793e-01    4.804843e-02
  6.550548e-01    4.290667e-02
  6.709304e-01    6.206390e-02
  6.868060e-01    4.494018e-02
  7.026815e-01    3.970833e-02
  7.185571e-01    4.524622e-02
  7.344327e-01    4.577782e-02
  7.503083e-01    5.950041e-02
  7.661838e-01    9.093244e-02
  7.820594e-01    1.343714e-01
  7.979350e-01    1.546071e-01
  8.138106e-01    2.246378e-01
  8.296861e-01    3.248668e-01
  8.455617e-01    3.849542e-01
  8.614373e-01    4.362702e-01
  8.773129e-01    4.942074e-01
  8.931884e-01    4.887124e-01
  9.090640e-01    5.912964e-01
  9.249396e-01    6.923758e-01
  9.408152e-01    8.282910e-01
  9.566907e-01    9.294325e-01
  9.725663e-01    9.374138e-01
  9.884419e-01    9.602851e-01
  1.004317e+00    1.076252e+00
  1.020193e+00    1.291482e+00
  1.036069e+00    1.355982e+00
  1.051944e+00    1.452734e+00
  1.067820e+00    1.530277e+00
  1.083695e+00    1.499591e+00
  1.099571e+00    1.548605e+00
  1.115446e+00    1.605885e+00
  1.131322e+00    1.592852e+00
  1.147198e+00    1.694607e+00
  1.163073e+00    1.678295e+00
  1.178949e+00    1.661191e+00
  1.194824e+00    1.748143e+00
  1.210700e+00    2.048727e+00
  1.226575e+00    2.250708e+00
  1.242451e+00    2.472974e+00
  1.258327e+00    2.470526e+00
  1.274202e+00    2.466804e+00
  1.290078e+00    2.557487e+00
  1.305953e+00    2.668621e+00
  1.321829e+00    2.620017e+00
  1.337705e+00    2.681603e+00
  1.353580e+00    2.646944e+00
  1.369456e+00    2.745162e+00
  1.385331e+00    2.940510e+00
  1.401207e+00    2.741380e+00
  1.417082e+00    2.858510e+00
  1.432958e+00    2.990510e+00
  1.448834e+00    3.026102e+00
  1.464709e+00    3.050719e+00
  1.480585e+00    3.058380e+00
  1.496460e+00    2.926969e+00
  1.512336e+00    3.025858e+00
  1.528211e+00    3.305779e+00
  1.544087e+00    3.252333e+00
  1.559963e+00    3.101650e+00
  1.575838e+00    3.193891e+00
  1.591714e+00    3.212740e+00
  1.607589e+00    3.202359e+00
  1.623465e+00    3.136364e+00
  1.639340e+00    3.159657e+00
  1.655216e+00    3.093801e+00
  1.671092e+00    3.075322e+00
  1.686967e+00    3.147858e+00
  1.702843e+00    3.120736e+00
  1.718718e+00    3.127481e+00
  1.734594e+00    3.046319e+00
  1.750469e+00    3.044405e+00
  1.766345e+00    3.017958e+00
  1.782221e+00    2.946669e+00
  1.798096e+00    3.029825e+00
  1.813972e+00    3.055398e+00
  1.829847e+00    3.042471e+00
  1.845723e+00    2.997185e+00
  1.861598e+00    3.039675e+00
  1.877474e+00    3.067246e+00
  1.893350e+00    3.028745e+00
  1.909225e+00    3.125103e+00
  1.925101e+00    3.100598e+00
  1.940976e+00    3.121412e+00
  1.956852e+00    3.018332e+00
  1.972727e+00    3.002087e+00
  1.988603e+00    3.088475e+00
  2.004479e+00    3.067276e+00
  2.020354e+00    3.184612e+00
  2.036230e+00    3.132881e+00
  2.052105e+00    3.107973e+00
  2.067981e+00    3.127063e+00
  2.083856e+00    3.181970e+00
  2.099732e+00    3.086996e+00
  2.115608e+00    3.111144e+00
  2.131483e+00    3.071758e+00
  2.147359e+00    3.057764e+00
  2.163234e+00    3.071251e+00
  2.179110e+00    3.169597e+00
  2.194985e+00    3.151336e+00
  2.210861e+00    3.058714e+00
  2.226737e+00    3.099001e+00
  2.242612e+00    3.105247e+00
  2.258488e+00    3.090871e+00
  2.274363e+00    3.171611e+00
  2.290239e+00    3.261466e+00
  2.306115e+00    3.223237e+00
  2.321990e+00    3.168193e+00
  2.337866e+00    3.125753e+00
  2.353741e+00    3.176054e+00
  2.369617e+00    3.154804e+00
  2.385492e+00    3.104240e+00
  2.401368e+00    3.182853e+00
  2.417244e+00    3.061006e+00
  2.433119e+00    3.140563e+00
  2.448995e+00    3.101889e+00
  2.464870e+00    3.188289e+00
  2.480746e+00    3.205137e+00
  2.496621e+00    3.186325e+00
  2.512497e+00    3.224573e+00
  2.528373e+00    3.234838e+00
  2.544248e+00    3.208392e+00
  2.560124e+00    3.203917e+00
  2.575999e+00    3.214343e+00
  2.591875e+00    3.188578e+00
  2.607750e+00    3.169144e+00
  2.623626e+00    3.216566e+00
  2.639502e+00    3.172998e+00
  2.655377e+00    3.221162e+00
  2.671253e+00    3.177336e+00
  2.687128e+00    3.187489e+00
  2.703004e+00    3.241352e+00
  2.718879e+00    3.302738e+00
  2.734755e+00    3.234449e+00
  2.750631e+00    3.126401e+00
  2.766506e+00    3.281274e+00
  2.782382e+00    3.247149e+00
  2.798257e+00    3.262818e+00
  2.814133e+00    3.254642e+00
  2.830008e+00    3.292712e+00
  2.845884e+00    3.186862e+00
  2.861760e+00    3.187856e+00
  2.877635e+00    3.309221e+00
  2.893511e+00    3.270150e+00
  2.909386e+00    3.277208e+00
  2.925262e+00    3.301522e+00
  2.941137e+00    3.308038e+00
  2.957013e+00    3.331597e+00
  2.972889e+00    3.378109e+00
  2.988764e+00    3.484354e+00
  3.004640e+00    3.381339e+00
  3.020515e+00    3.421183e+00
  3.036391e+00    3.305439e+00
  3.052266e+00    3.350259e+00
  3.068142e+00    3.421257e+00
  3.084018e+00    3.327777e+00
  3.099893e+00    3.296174e+00
  3.115769e+00    3.336666e+00
  3.131644e+00    3.393921e+00
  3.147520e+00    3.439892e+00
  3.163395e+00    3.426740e+00
  3.179271e+00    3.387186e+00
  3.195147e+00    3.413520e+00
  3.211022e+00    3.415484e+00
  3.226898e+00    3.393282e+00
  3.242773e+00    3.372515e+00
  3.258649e+00    3.395752e+00
  3.274525e+00    3.413591e+00
  3.290400e+00    3.328230e+00
  3.306276e+00    3.356838e+00
  3.322151e+00    3.431370e+00
  3.338027e+00    3.439166e+00
  3.353902e+00    3.512063e+00
  3.369778e+00    3.409089e+00
  3.385654e+00    3.394681e+00
  3.401529e+00    3.402547e+00
  3.417405e+00    3.491753e+00
  3.433280e+00    3.422563e+00
  3.449156e+00    3.429156e+00
  3.465031e+00    3.479693e+00
  3.480907e+00    3.425942e+00
  3.496783e+00    3.403708e+00
  3.512658e+00    3.465877e+00
  3.528534e+00    3.483764e+00
  3.544409e+00    3.524302e+00
  3.560285e+00    3.452348e+00
  3.576160e+00    3.460551e+00
  3.592036e+00    3.427804e+00
  3.607912e+00    3.446406e+00
  3.623787e+00    3.526022e+00
  3.639663e+00    3.478081e+00
  3.655538e+00    3.449275e+00
  3.671414e+00    3.490446e+00
  3.687289e+00    3.551267e+00
  3.703165e+00    3.487888e+00
  3.719041e+00    3.461733e+00
  3.734916e+00    3.363019e+00
  3.750792e+00    3.371736e+00
  3.766667e+00    3.450971e+00
  3.782543e+00    3.359277e+00
  3.798418e+00    3.378815e+00
  3.814294e+00    3.504089e+00
  3.830170e+00    3.529839e+00
  3.846045e+00    3.504983e+00
  3.861921e+00    3.488798e+00
  3.877796e+00    3.499238e+00
  3.893672e+00    3.495970e+00
  3.909547e+00    3.485816e+00
  3.925423e+00    3.437195e+00
  3.941299e+00    3.441174e+00
  3.957174e+00    3.483581e+00
  3.973050e+00    3.525240e+00
  3.988925e+00    3.554328e+00
  4.004801e+00    3.487691e+00
  4.020676e+00    3.506927e+00
  4.036552e+00    3.437749e+00
  4.052428e+00    3.508171e+00
  4.068303e+00    3.465881e+00
  4.084179e+00    3.506362e+00
  4.100054e+00    3.587155e+00
  4.115930e+00    3.613246e+00
  4.131806e+00    3.498221e+00
  4.147681e+00    3.426961e+00
  4.163557e+00    3.444998e+00
  4.179432e+00    3.527248e+00
  4.195308e+00    3.473236e+00
  4.211183e+00    3.508060e+00
  4.227059e+00    3.653702e+00
  4.242935e+00    3.615817e+00
  4.258810e+00    3.578323e+00
  4.274686e+00    3.613330e+00
  4.290561e+00    3.591245e+00
  4.306437e+00    3.553474e+00
  4.322312e+00    3.643481e+00
  4.338188e+00    3.534667e+00
  4.354064e+00    3.551275e+00
  4.369939e+00    3.598301e+00
  4.385815e+00    3.607294e+00
  4.401690e+00    3.559403e+00
  4.417566e+00    3.510471e+00
  4.433441e+00    3.657358e+00
  4.449317e+00    3.654150e+00
  4.465193e+00    3.637316e+00
  4.481068e+00    3.581584e+00
  4.496944e+00    3.624499e+00
  4.512819e+00    3.677817e+00
  4.528695e+00    3.709159e+00
  4.544570e+00    3.579395e+00
  4.560446e+00    3.542853e+00
  4.576322e+00    3.600030e+00
  4.592197e+00    3.600422e+00
  4.608073e+00    3.567244e+00
  4.623948e+00    3.575257e+00
  4.639824e+00    3.602102e+00
  4.655699e+00    3.597571e+00
  4.671575e+00    3.617873e+00
  4.687451e+00    3.685590e+00
  4.703326e+00    3.638501e+00
  4.719202e+00    3.601270e+00
  4.735077e+00    3.652623e+00
  4.750953e+00    3.582951e+00
  4.766828e+00    3.628420e+00
  4.782704e+00    3.566832e+00
  4.798580e+00    3.527967e+00
  4.814455e+00    3.633121e+00
  4.830331e+00    3.708135e+00
  4.846206e+00    3.669335e+00
  4.862082e+00    3.581603e+00
  4.877957e+00    3.587638e+00
  4.893833e+00    3.676966e+00
  4.909709e+00    3.661794e+00
  4.925584e+00    3.610064e+00
  4.941460e+00    3.679527e+00
  4.957335e+00    3.630825e+00
  4.973211e+00    3.612281e+00
  4.989086e+00    3.584199e+00
  5.004962e+00    3.617989e+00
  5.020838e+00    3.687141e+00
  5.036713e+00    3.591563e+00
  5.052589e+00    3.574262e+00
  5.068464e+00    3.652534e+00
  5.084340e+00    3.604578e+00
  5.100216e+00    3.684036e+00
  5.116091e+00    3.601076e+00
  5.131967e+00    3.663079e+00
  5.147842e+00    3.650288e+00
  5.163718e+00    3.663831e+00
  5.179593e+00    3.592070e+00
  5.195469e+00    3.568146e+00
  5.211345e+00    3.670768e+00
  5.227220e+00    3.718058e+00
  5.243096e+00    3.663460e+00
  5.258971e+00    3.656335e+00
  5.274847e+00    3.579372e+00
  5.290722e+00    3.567119e+00
  5.306598e+00    3.636997e+00
  5.322474e+00    3.649468e+00
  5.338349e+00    3.741411e+00
  5.354225e+00    3.700318e+00
  5.370100e+00    3.620682e+00
  5.385976e+00    3.619241e+00
  5.401851e+00    3.662652e+00
  5.417727e+00    3.685558e+00
  5.433603e+00    3.651888e+00
  5.449478e+00    3.555665e+00
  5.465354e+00    3.527123e+00
  5.481229e+00    3.557344e+00
  5.497105e+00    3.526439e+00
  5.512980e+00    3.520287e+00
  5.528856e+00    3.623263e+00
  5.544732e+00    3.635054e+00
  5.560607e+00    3.563705e+00
  5.576483e+00    3.511628e+00
  5.592358e+00    3.545814e+00
  5.608234e+00    3.544742e+00
  5.624109e+00    3.482777e+00
  5.639985e+00    3.556651e+00
  5.655861e+00    3.609225e+00
  5.671736e+00    3.639342e+00
  5.687612e+00    3.649170e+00
  5.703487e+00    3.653943e+00
  5.719363e+00    3.622269e+00
  5.735238e+00    3.518769e+00
  5.751114e+00    3.481853e+00
  5.766990e+00    3.580436e+00
  5.782865e+00    3.583322e+00
  5.798741e+00    3.469179e+00
  5.814616e+00    3.468289e+00
  5.830492e+00    3.550212e+00
  5.846367e+00    3.556288e+00
  5.862243e+00    3.541257e+00
  5.878119e+00    3.561714e+00
  5.893994e+00    3.613861e+00
  5.909870e+00    3.625102e+00
  5.925745e+00    3.559108e+00
  5.941621e+00    3.532557e+00
  5.957497e+00    3.530701e+00
  5.973372e+00    3.459233e+00
  5.989248e+00    3.454218e+00
  6.005123e+00    3.488441e+00
  6.020999e+00    3.511336e+00
  6.036874e+00    3.497305e+00
  6.052750e+00    3.505685e+00
  6.068626e+00    3.548032e+00
  6.084501e+00    3.646354e+00
  6.100377e+00    3.648882e+00
  6.116252e+00    3.560759e+00
  6.132128e+00    3.606606e+00
  6.148003e+00    3.618022e+00
  6.163879e+00    3.570359e+00
  6.179755e+00    3.565394e+00
  6.195630e+00    3.615213e+00
  6.211506e+00    3.577495e+00
  6.227381e+00    3.522885e+00
  6.243257e+00    3.490119e+00
  6.259132e+00    3.578524e+00
  6.275008e+00    3.591122e+00
  6.290884e+00    3.528083e+00
  6.306759e+00    3.583676e+00
  6.322635e+00    3.574976e+00
  6.338510e+00    3.541732e+00
  6.354386e+00    3.455772e+00
  6.370261e+00    3.515717e+00
  6.386137e+00    3.574353e+00
  6.402013e+00    3.552159e+00
  6.417888e+00    3.540073e+00
  6.433764e+00    3.581980e+00
  6.449639e+00    3.520662e+00
  6.465515e+00    3.616687e+00
  6.481390e+00    3.599890e+00
  6.497266e+00    3.523610e+00
  6.513142e+00    3.520804e+00
  6.529017e+00    3.612786e+00
  6.544893e+00    3.579899e+00
  6.560768e+00    3.492300e+00
  6.576644e+00    3.578634e+00
  6.592519e+00    3.574389e+00
  6.608395e+00    3.578573e+00
  6.624271e+00    3.570083e+00
  6.640146e+00    3.526599e+00
  6.656022e+00    3.562787e+00
  6.671897e+00    3.583240e+00
  6.687773e+00    3.551398e+00
  6.703648e+00    3.520264e+00
  6.719524e+00    3.530240e+00
  6.735400e+00    3.555754e+00
  6.751275e+00    3.528641e+00
  6.767151e+00    3.526611e+00
  6.783026e+00    3.585315e+00
  6.798902e+00    3.571264e+00
  6.814777e+00    3.526509e+00
  6.830653e+00    3.586774e+00
  6.846529e+00    3.511343e+00
  6.862404e+00    3.463618e+00
  6.878280e+00    3.517867e+00
  6.894155e+00    3.508630e+00
  6.910031e+00    3.555426e+00
  6.925907e+00    3.579428e+00
  6.941782e+00    3.559048e+00
  6.957658e+00    3.633844e+00
  6.973533e+00    3.570938e+00
  6.989409e+00    3.543904e+00
  7.005284e+00    3.590029e+00
  7.021160e+00    3.553228e+00
  7.037036e+00    3.505716e+00
  7.052911e+00    3.557949e+00
  7.068787e+00    3.569952e+00
  7.084662e+00    3.540645e+00
  7.100538e+00    3.535515e+00
  7.116413e+00    3.549835e+00
  7.132289e+00    3.510234e+00
  7.148165e+00    3.614943e+00
  7.164040e+00    3.571770e+00
  7.179916e+00    3.486902e+00
  7.195791e+00    3.474383e+00
  7.211667e+00    3.510581e+00
  7.227542e+00    3.514413e+00
  7.243418e+00    3.497184e+00
  7.259294e+00    3.507639e+00
  7.275169e+00    3.518794e+00
  7.291045e+00    3.536690e+00
  7.306920e+00    3.495766e+00
  7.322796e+00    3.501955e+00
  7.338671e+00    3.470026e+00
  7.354547e+00    3.474225e+00
  7.370423e+00    3.496960e+00
  7.386298e+00    3.437294e+00
  7.402174e+00    3.465290e+00
  7.418049e+00    3.542062e+00
  7.433925e+00    3.458109e+00
  7.449800e+00    3.436746e+00
  7.465676e+00    3.494106e+00
  7.481552e+00    3.543707e+00
  7.497427e+00    3.489515e+00
  7.513303e+00    3.525630e+00
  7.529178e+00    3.486333e+00
  7.545054e+00    3.436347e+00
  7.560929e+00    3.463084e+00
  7.576805e+00    3.442715e+00
  7.592681e+00    3.373286e+00
  7.608556e+00    3.448245e+00
  7.624432e+00    3.529757e+00
  7.640307e+00    3.510582e+00
  7.656183e+00    3.449523e+00
  7.672058e+00    3.476462e+00
  7.687934e+00    3.457654e+00
  7.703810e+00    3.430703e+00
  7.719685e+00    3.418041e+00
  7.735561e+00    3.415962e+00
  7.751436e+00    3.397102e+00
  7.767312e+00    3.474881e+00
  7.783187e+00    3.482117e+00
  7.799063e+00    3.421943e+00
  7.814939e+00    3.454110e+00
  7.830814e+00    3.428335e+00
  7.846690e+00    3.426066e+00
  7.862565e+00    3.498666e+00
  7.878441e+00    3.452752e+00
  7.894317e+00    3.380200e+00
  7.910192e+00    3.430334e+00
  7.926068e+00    3.406897e+00
  7.941943e+00    3.430117e+00
  7.957819e+00    3.393669e+00
  7.973694e+00    3.359277e+00
  7.989570e+00    3.373500e+00
  8.005446e+00    3.352976e+00
  8.021321e+00    3.387039e+00
  8.037197e+00    3.422035e+00
  8.053072e+00    3.413493e+00
  8.068948e+00    3.398478e+00
  8.084823e+00    3.413800e+00
  8.100699e+00    3.373115e+00
  8.116575e+00    3.420365e+00
  8.132450e+00    3.424732e+00
  8.148326e+00    3.466547e+00
  8.164201e+00    3.486433e+00
  8.180077e+00    3.499365e+00
  8.195952e+00    3.375574e+00
  8.211828e+00    3.392745e+00
  8.227704e+00    3.426889e+00
  8.243579e+00    3.498549e+00
  8.259455e+00    3.424679e+00
  8.275330e+00    3.431266e+00
  8.291206e+00    3.470467e+00
  8.307081e+00    3.479379e+00
  8.322957e+00    3.435721e+00
  8.338833e+00    3.339790e+00
  8.354708e+00    3.360788e+00
  8.370584e+00    3.441058e+00
  8.386459e+00    3.478898e+00
  8.402335e+00    3.394682e+00
  8.418210e+00    3.375195e+00
  8.434086e+00    3.351539e+00
  8.449962e+00    3.404510e+00
  8.465837e+00    3.405053e+00
  8.481713e+00    3.398172e+00
  8.497588e+00    3.407243e+00
  8.513464e+00    3.301541e+00
  8.529339e+00    3.278262e+00
  8.545215e+00    3.326612e+00
  8.561091e+00    3.355066e+00
  8.576966e+00    3.426269e+00
  8.592842e+00    3.400559e+00
  8.608717e+00    3.402054e+00
  8.624593e+00    3.354301e+00
  8.640468e+00    3.284726e+00
  8.656344e+00    3.358841e+00
  8.672220e+00    3.359636e+00
  8.688095e+00    3.362423e+00
  8.703971e+00    3.366232e+00
  8.719846e+00    3.380436e+00
  8.735722e+00    3.394944e+00
  8.751598e+00    3.340257e+00
  8.767473e+00    3.292023e+00
  8.783349e+00    3.281212e+00
  8.799224e+00    3.328495e+00
  8.815100e+00    3.343056e+00
  8.830975e+00    3.381466e+00
  8.846851e+00    3.341620e+00
  8.862727e+00    3.264121e+00
  8.878602e+00    3.350737e+00
  8.894478e+00    3.350543e+00
  8.910353e+00    3.326868e+00
  8.926229e+00    3.304947e+00
  8.942104e+00    3.337635e+00
  8.957980e+00    3.317367e+00
  8.973856e+00    3.285011e+00
  8.989731e+00    3.287803e+00
  9.005607e+00    3.263426e+00
  9.021482e+00    3.297088e+00
  9.037358e+00    3.278862e+00
  9.053233e+00    3.254893e+00
  9.069109e+00    3.256569e+00
  9.084985e+00    3.288748e+00
  9.100860e+00    3.337043e+00
  9.116736e+00    3.300710e+00
  9.132611e+00    3.269052e+00
  9.148487e+00    3.253698e+00
  9.164362e+00    3.256999e+00
  9.180238e+00    3.281070e+00
  9.196114e+00    3.244056e+00
  9.211989e+00    3.269949e+00
  9.227865e+00    3.313770e+00
  9.243740e+00    3.255555e+00
  9.259616e+00    3.248538e+00
  9.275491e+00    3.210971e+00
  9.291367e+00    3.258645e+00
  9.307243e+00    3.259100e+00
  9.323118e+00    3.267784e+00
  9.338994e+00    3.220670e+00
  9.354869e+00    3.250142e+00
  9.370745e+00    3.263321e+00
  9.386620e+00    3.189838e+00
  9.402496e+00    3.178092e+00
  9.418372e+00    3.213566e+00
  9.434247e+00    3.202616e+00
  9.450123e+00    3.170382e+00
  9.465998e+00    3.247912e+00
  9.481874e+00    3.249053e+00
  9.497749e+00    3.239092e+00
  9.513625e+00    3.250830e+00
  9.529501e+00    3.261237e+00
  9.545376e+00    3.185036e+00
  9.561252e+00    3.160924e+00
  9.577127e+00    3.196133e+00
  9.593003e+00    3.218604e+00
  9.608878e+00    3.236688e+00
  9.624754e+00    3.243081e+00
  9.640630e+00    3.218300e+00
  9.656505e+00    3.230321e+00
  9.672381e+00    3.140968e+00
  9.688256e+00    3.158229e+00
  9.704132e+00    3.182727e+00
  9.720008e+00    3.216178e+00
  9.735883e+00    3.250933e+00
  9.751759e+00    3.214868e+00
  9.767634e+00    3.166912e+00
  9.783510e+00    3.145084e+00
  9.799385e+00    3.186380e+00
  9.815261e+00    3.144833e+00
  9.831137e+00    3.092294e+00
  9.847012e+00    3.156444e+00
  9.862888e+00    3.141417e+00
  9.878763e+00    3.158824e+00
  9.894639e+00    3.178750e+00
  9.910514e+00    3.189885e+00
  9.926390e+00    3.123720e+00
  9.942266e+00    3.180308e+00
  9.958141e+00    3.175864e+00
  9.974017e+00    3.165209e+00
  9.989892e+00    3.139141e+00
  1.000577e+01    3.100802e+00
  1.002164e+01    3.069873e+00
  1.003752e+01    3.073068e+00
  1.005339e+01    3.132445e+00
  1.006927e+01    3.144456e+00
  1.008515e+01    3.102721e+00
  1.010102e+01    3.068696e+00
  1.011690e+01    3.072345e+00
  1.013277e+01    3.046845e+00
  1.014865e+01    3.040978e+00
  1.016452e+01    3.059168e+00
  1.018040e+01    3.057329e+00
  1.019627e+01    3.071817e+00
  1.021215e+01    3.084349e+00
  1.022803e+01    3.103140e+00
  1.024390e+01    3.101705e+00
  1.025978e+01    3.131426e+00
  1.027565e+01    3.134497e+00
  1.029153e+01    3.060380e+00
  1.030740e+01    3.074342e+00
  1.032328e+01    3.098417e+00
  1.033915e+01    3.057023e+00
  1.035503e+01    3.038148e+00
  1.037091e+01    3.033777e+00
  1.038678e+01    3.046802e+00
  1.040266e+01    3.024917e+00
  1.041853e+01    3.012299e+00
  1.043441e+01    3.019073e+00
  1.045028e+01    3.053488e+00
  1.046616e+01    3.060028e+00
  1.048204e+01    3.026817e+00
  1.049791e+01    2.982584e+00
  1.051379e+01    2.985234e+00
  1.052966e+01    3.029198e+00
  1.054554e+01    3.025329e+00
  1.056141e+01    3.004927e+00
  1.057729e+01    2.974647e+00
  1.059316e+01    2.976986e+00
  1.060904e+01    2.959532e+00
  1.062492e+01    2.971890e+00
  1.064079e+01    2.938545e+00
  1.065667e+01    3.028154e+00
  1.067254e+01    3.002278e+00
  1.068842e+01    2.975642e+00
  1.070429e+01    2.953058e+00
  1.072017e+01    2.993306e+00
  1.073604e+01    2.930337e+00
  1.075192e+01    2.946980e+00
  1.076780e+01    2.972579e+00
  1.078367e+01    2.973994e+00
  1.079955e+01    2.919409e+00
  1.081542e+01    2.922949e+00
  1.083130e+01    2.919362e+00
  1.084717e+01    2.927617e+00
  1.086305e+01    2.928961e+00
  1.087892e+01    2.979192e+00
  1.089480e+01    2.933848e+00
  1.091068e+01    2.938059e+00
  1.092655e+01    2.895025e+00
  1.094243e+01    2.930933e+00
  1.095830e+01    2.901369e+00
  1.097418e+01    2.905550e+00
  1.099005e+01    2.848372e+00
  1.100593e+01    2.891359e+00
  1.102180e+01    2.917411e+00
  1.103768e+01    2.924634e+00
  1.105356e+01    2.901537e+00
  1.106943e+01    2.909023e+00
  1.108531e+01    2.898095e+00
  1.110118e+01    2.911546e+00
  1.111706e+01    2.919007e+00
  1.113293e+01    2.883657e+00
  1.114881e+01    2.859898e+00
  1.116468e+01    2.868876e+00
  1.118056e+01    2.901399e+00
  1.119644e+01    2.823192e+00
  1.121231e+01    2.800574e+00
  1.122819e+01    2.827996e+00
  1.124406e+01    2.790588e+00
  1.125994e+01    2.814007e+00
  1.127581e+01    2.834512e+00
  1.129169e+01    2.829709e+00
  1.130756e+01    2.819023e+00
  1.132344e+01    2.849429e+00
  1.133932e+01    2.858960e+00
  1.135519e+01    2.792746e+00
  1.137107e+01    2.781245e+00
  1.138694e+01    2.795751e+00
  1.140282e+01    2.850566e+00
  1.141869e+01    2.836882e+00
  1.143457e+01    2.826355e+00
  1.145045e+01    2.785625e+00
  1.146632e+01    2.783850e+00
  1.148220e+01    2.784853e+00
  1.149807e+01    2.830421e+00
  1.151395e+01    2.780431e+00
  1.152982e+01    2.801778e+00
  1.154570e+01    2.833988e+00
  1.156157e+01    2.782956e+00
  1.157745e+01    2.750147e+00
  1.159333e+01    2.747353e+00
  1.160920e+01    2.746462e+00
  1.162508e+01    2.799116e+00
  1.164095e+01    2.784032e+00
  1.165683e+01    2.782164e+00
  1.167270e+01    2.710544e+00
  1.168858e+01    2.703300e+00
  1.170445e+01    2.760260e+00
  1.172033e+01    2.747334e+00
  1.173621e+01    2.717192e+00
  1.175208e+01    2.799269e+00
  1.176796e+01    2.771853e+00
  1.178383e+01    2.734472e+00
  1.179971e+01    2.731481e+00
  1.181558e+01    2.652538e+00
  1.183146e+01    2.729524e+00
  1.184733e+01    2.732910e+00
  1.186321e+01    2.720879e+00
  1.187909e+01    2.773762e+00
  1.189496e+01    2.699682e+00
  1.191084e+01    2.681676e+00
  1.192671e+01    2.713854e+00
  1.194259e+01    2.733823e+00
  1.195846e+01    2.719886e+00
  1.197434e+01    2.731569e+00
  1.199021e+01    2.678716e+00
  1.200609e+01    2.719157e+00
  1.202197e+01    2.683878e+00
  1.203784e+01    2.711011e+00
  1.205372e+01    2.685563e+00
  1.206959e+01    2.668642e+00
  1.208547e+01    2.650654e+00
  1.210134e+01    2.688013e+00
  1.211722e+01    2.698925e+00
  1.213309e+01    2.755420e+00
  1.214897e+01    2.725538e+00
  1.216485e+01    2.727297e+00
  1.218072e+01    2.687670e+00
  1.219660e+01    2.687082e+00
  1.221247e+01    2.699749e+00
  1.222835e+01    2.716316e+00
  1.224422e+01    2.701372e+00
  1.226010e+01    2.680404e+00
  1.227597e+01    2.733517e+00
  1.229185e+01    2.717581e+00
  1.230773e+01    2.704063e+00
  1.232360e+01    2.680584e+00
  1.233948e+01    2.714115e+00
  1.235535e+01    2.698936e+00
  1.237123e+01    2.715871e+00
  1.238710e+01    2.699763e+00
  1.240298e+01    2.721169e+00
  1.241886e+01    2.666821e+00
  1.243473e+01    2.648661e+00
  1.245061e+01    2.628810e+00
  1.246648e+01    2.712651e+00
  1.248236e+01    2.674010e+00
  1.249823e+01    2.721148e+00
  1.251411e+01    2.735352e+00
  1.252998e+01    2.755647e+00
  1.254586e+01    2.734159e+00
  1.256174e+01    2.702633e+00
  1.257761e+01    2.722845e+00
  1.259349e+01    2.789891e+00
  1.260936e+01    2.810386e+00
  1.262524e+01    2.772074e+00
  1.264111e+01    2.793958e+00
  1.265699e+01    2.769599e+00
  1.267286e+01    2.756463e+00
  1.268874e+01    2.810232e+00
  1.270462e+01    2.871647e+00
  1.272049e+01    2.881512e+00
  1.273637e+01    2.880569e+00
  1.275224e+01    2.913223e+00
  1.276812e+01    2.919776e+00
  1.278399e+01    2.964426e+00
  1.279987e+01    3.006053e+00
  1.281574e+01    3.071140e+00
  1.283162e+01    3.083740e+00
  1.284750e+01    3.175574e+00
  1.286337e+01    3.243143e+00
  1.287925e+01    3.308391e+00
  1.289512e+01    3.486629e+00
  1.291100e+01    3.706041e+00
  1.292687e+01    3.870945e+00
  1.294275e+01    4.112677e+00
  1.295862e+01    4.401455e+00
  1.297450e+01    4.824337e+00
  1.299038e+01    5.327592e+00
  1.300625e+01    5.939695e+00
  1.302213e+01    6.734233e+00
  1.303800e+01    7.669547e+00
  1.305388e+01    8.856917e+00
  1.306975e+01    1.017088e+01
  1.308563e+01    1.145234e+01
  1.310150e+01    1.260418e+01
  1.311738e+01    1.377980e+01
  1.313326e+01    1.482816e+01
  1.314913e+01    1.578151e+01
  1.316501e+01    1.624095e+01
  1.318088e+01    1.627637e+01
  1.319676e+01    1.565748e+01
  1.321263e+01    1.433031e+01
  1.322851e+01    1.251868e+01
  1.324438e+01    1.068918e+01
  1.326026e+01    9.152920e+00
  1.327614e+01    7.838836e+00
  1.329201e+01    6.768964e+00
  1.330789e+01    5.934504e+00
  1.332376e+01    5.322588e+00
  1.333964e+01    4.813612e+00
  1.335551e+01    4.456545e+00
  1.337139e+01    4.161139e+00
  1.338727e+01    3.891310e+00
  1.340314e+01    3.720876e+00
  1.341902e+01    3.550513e+00
  1.343489e+01    3.391211e+00
  1.345077e+01    3.245279e+00
  1.346664e+01    3.138290e+00
  1.348252e+01    3.040100e+00
  1.349839e+01    2.958433e+00
  1.351427e+01    2.930092e+00
  1.353015e+01    2.854487e+00
  1.354602e+01    2.815748e+00
  1.356190e+01    2.761329e+00
  1.357777e+01    2.738132e+00
  1.359365e+01    2.697705e+00
  1.360952e+01    2.650397e+00
  1.362540e+01    2.652796e+00
  1.364127e+01    2.631040e+00
  1.365715e+01    2.614059e+00
  1.367303e+01    2.589321e+00
  1.368890e+01    2.558505e+00
  1.370478e+01    2.528441e+00
  1.372065e+01    2.524758e+00
  1.373653e+01    2.528194e+00
  1.375240e+01    2.496845e+00
  1.376828e+01    2.493828e+00
  1.378415e+01    2.497281e+00
  1.380003e+01    2.449981e+00
  1.381591e+01    2.457781e+00
  1.383178e+01    2.485410e+00
  1.384766e+01    2.442659e+00
  1.386353e+01    2.459856e+00
  1.387941e+01    2.446379e+00
  1.389528e+01    2.385451e+00
  1.391116e+01    2.374658e+00
  1.392703e+01    2.346963e+00
  1.394291e+01    2.357618e+00
  1.395879e+01    2.373517e+00
  1.397466e+01    2.341944e+00
  1.399054e+01    2.370173e+00
  1.400641e+01    2.380998e+00
  1.402229e+01    2.360130e+00
  1.403816e+01    2.320060e+00
  1.405404e+01    2.338927e+00
  1.406991e+01    2.325881e+00
  1.408579e+01    2.329186e+00
  1.410167e+01    2.326615e+00
  1.411754e+01    2.356558e+00
  1.413342e+01    2.296439e+00
  1.414929e+01    2.291307e+00
  1.416517e+01    2.289024e+00
  1.418104e+01    2.301890e+00
  1.419692e+01    2.331222e+00
  1.421279e+01    2.323726e+00
  1.422867e+01    2.331524e+00
  1.424455e+01    2.250256e+00
  1.426042e+01    2.254923e+00
  1.427630e+01    2.270913e+00
  1.429217e+01    2.253111e+00
  1.430805e+01    2.289197e+00
  1.432392e+01    2.292803e+00
  1.433980e+01    2.261804e+00
  1.435568e+01    2.273512e+00
  1.437155e+01    2.248661e+00
  1.438743e+01    2.228400e+00
  1.440330e+01    2.251405e+00
  1.441918e+01    2.267082e+00
  1.443505e+01    2.238936e+00
  1.445093e+01    2.215186e+00
  1.446680e+01    2.237391e+00
  1.448268e+01    2.241156e+00
  1.449856e+01    2.234314e+00
  1.451443e+01    2.206575e+00
  1.453031e+01    2.189570e+00
  1.454618e+01    2.226567e+00
  1.456206e+01    2.244415e+00
  1.457793e+01    2.220976e+00
  1.459381e+01    2.235922e+00
  1.460968e+01    2.213910e+00
  1.462556e+01    2.169733e+00
  1.464144e+01    2.219558e+00
  1.465731e+01    2.196176e+00
  1.467319e+01    2.254906e+00
  1.468906e+01    2.230810e+00
  1.470494e+01    2.193387e+00
  1.472081e+01    2.201349e+00
  1.473669e+01    2.208419e+00
  1.475256e+01    2.206711e+00
  1.476844e+01    2.202535e+00
  1.478432e+01    2.206548e+00
  1.480019e+01    2.211679e+00
  1.481607e+01    2.214365e+00
  1.483194e+01    2.189824e+00
  1.484782e+01    2.239497e+00
  1.486369e+01    2.217457e+00
  1.487957e+01    2.224714e+00
  1.489544e+01    2.232101e+00
  1.491132e+01    2.230054e+00
  1.492720e+01    2.226201e+00
  1.494307e+01    2.290578e+00
  1.495895e+01    2.325224e+00
  1.497482e+01    2.378880e+00
  1.499070e+01    2.379501e+00
  1.500657e+01    2.413585e+00
  1.502245e+01    2.496762e+00
  1.503832e+01    2.597177e+00
  1.505420e+01    2.672773e+00
  1.507008e+01    2.802985e+00
  1.508595e+01    2.958261e+00
  1.510183e+01    3.243939e+00
  1.511770e+01    3.521694e+00
  1.513358e+01    3.841550e+00
  1.514945e+01    4.148153e+00
  1.516533e+01    4.511756e+00
  1.518120e+01    4.873669e+00
  1.519708e+01    5.170091e+00
  1.521296e+01    5.395721e+00
  1.522883e+01    5.571940e+00
  1.524471e+01    5.715178e+00
  1.526058e+01    5.794268e+00
  1.527646e+01    5.764178e+00
  1.529233e+01    5.475062e+00
  1.530821e+01    5.170366e+00
  1.532409e+01    4.639873e+00
  1.533996e+01    4.142357e+00
  1.535584e+01    3.760834e+00
  1.537171e+01    3.391182e+00
  1.538759e+01    3.167683e+00
  1.540346e+01    2.976153e+00
  1.541934e+01    2.784095e+00
  1.543521e+01    2.612114e+00
  1.545109e+01    2.502020e+00
  1.546697e+01    2.422194e+00
  1.548284e+01    2.349360e+00
  1.549872e+01    2.315651e+00
  1.551459e+01    2.285281e+00
  1.553047e+01    2.202248e+00
  1.554634e+01    2.167530e+00
  1.556222e+01    2.192557e+00
  1.557809e+01    2.135807e+00
  1.559397e+01    2.069592e+00
  1.560985e+01    2.069087e+00
  1.562572e+01    2.083857e+00
  1.564160e+01    2.049874e+00
  1.565747e+01    2.042988e+00
  1.567335e+01    2.038294e+00
  1.568922e+01    2.051545e+00
  1.570510e+01    1.999191e+00
  1.572097e+01    1.984849e+00
  1.573685e+01    1.976452e+00
  1.575273e+01    1.974036e+00
  1.576860e+01    1.988451e+00
  1.578448e+01    1.982520e+00
  1.580035e+01    1.948351e+00
  1.581623e+01    1.936487e+00
  1.583210e+01    1.942112e+00
  1.584798e+01    1.906579e+00
  1.586385e+01    1.908049e+00
  1.587973e+01    1.922594e+00
  1.589561e+01    1.942026e+00
  1.591148e+01    1.915837e+00
  1.592736e+01    1.919498e+00
  1.594323e+01    1.915403e+00
  1.595911e+01    1.896828e+00
  1.597498e+01    1.904106e+00
  1.599086e+01    1.871189e+00
  1.600673e+01    1.909722e+00
  1.602261e+01    1.916029e+00
  1.603849e+01    1.894469e+00
  1.605436e+01    1.875485e+00
  1.607024e+01    1.855844e+00
  1.608611e+01    1.875234e+00
  1.610199e+01    1.859565e+00
  1.611786e+01    1.836450e+00
  1.613374e+01    1.839949e+00
  1.614961e+01    1.814419e+00
  1.616549e+01    1.870737e+00
  1.618137e+01    1.831657e+00
  1.619724e+01    1.804442e+00
  1.621312e+01    1.835855e+00
  1.622899e+01    1.806599e+00
  1.624487e+01    1.797604e+00
  1.626074e+01    1.817905e+00
  1.627662e+01    1.810934e+00
  1.629250e+01    1.818910e+00
  1.630837e+01    1.805866e+00
  1.632425e+01    1.782388e+00
  1.634012e+01    1.789981e+00
  1.635600e+01    1.765333e+00
  1.637187e+01    1.741131e+00
  1.638775e+01    1.793687e+00
  1.640362e+01    1.780628e+00
  1.641950e+01    1.789328e+00
  1.643538e+01    1.793060e+00
  1.645125e+01    1.775808e+00
  1.646713e+01    1.784817e+00
  1.648300e+01    1.771960e+00
  1.649888e+01    1.745647e+00
  1.651475e+01    1.731326e+00
  1.653063e+01    1.735500e+00
  1.654650e+01    1.757719e+00
  1.656238e+01    1.747728e+00
  1.657826e+01    1.757473e+00
  1.659413e+01    1.738781e+00
  1.661001e+01    1.743254e+00
  1.662588e+01    1.732281e+00
  1.664176e+01    1.714738e+00
  1.665763e+01    1.754053e+00
  1.667351e+01    1.745324e+00
  1.668938e+01    1.735165e+00
  1.670526e+01    1.734368e+00
  1.672114e+01    1.738590e+00
  1.673701e+01    1.730737e+00
  1.675289e+01    1.692838e+00
  1.676876e+01    1.688572e+00
  1.678464e+01    1.689837e+00
  1.680051e+01    1.724381e+00
  1.681639e+01    1.695943e+00
  1.683226e+01    1.705518e+00
  1.684814e+01    1.682739e+00
  1.686402e+01    1.723954e+00
  1.687989e+01    1.719712e+00
  1.689577e+01    1.691744e+00
  1.691164e+01    1.717782e+00
  1.692752e+01    1.728674e+00
  1.694339e+01    1.674461e+00
  1.695927e+01    1.650476e+00
  1.697514e+01    1.674579e+00
  1.699102e+01    1.682670e+00
  1.700690e+01    1.692900e+00
  1.702277e+01    1.696025e+00
  1.703865e+01    1.663918e+00
  1.705452e+01    1.660456e+00
  1.707040e+01    1.675035e+00
  1.708627e+01    1.684949e+00
  1.710215e+01    1.658276e+00
  1.711802e+01    1.659837e+00
  1.713390e+01    1.652055e+00
  1.714978e+01    1.659871e+00
  1.716565e+01    1.621369e+00
  1.718153e+01    1.652854e+00
  1.719740e+01    1.635805e+00
  1.721328e+01    1.626566e+00
  1.722915e+01    1.620347e+00
  1.724503e+01    1.628211e+00
  1.726091e+01    1.618178e+00
  1.727678e+01    1.615975e+00
  1.729266e+01    1.609842e+00
  1.730853e+01    1.624323e+00
  1.732441e+01    1.619732e+00
  1.734028e+01    1.632576e+00
  1.735616e+01    1.625708e+00
  1.737203e+01    1.565797e+00
  1.738791e+01    1.595042e+00
  1.740379e+01    1.588599e+00
  1.741966e+01    1.564909e+00
  1.743554e+01    1.590148e+00
  1.745141e+01    1.610445e+00
  1.746729e+01    1.604588e+00
  1.748316e+01    1.577899e+00
  1.749904e+01    1.600500e+00
  1.751491e+01    1.584040e+00
  1.753079e+01    1.587383e+00
  1.754667e+01    1.583762e+00
  1.756254e+01    1.582730e+00
  1.757842e+01    1.613924e+00
  1.759429e+01    1.604758e+00
  1.761017e+01    1.581678e+00
  1.762604e+01    1.562336e+00
  1.764192e+01    1.561143e+00
  1.765779e+01    1.559868e+00
  1.767367e+01    1.543599e+00
  1.768955e+01    1.515971e+00
  1.770542e+01    1.552661e+00
  1.772130e+01    1.568181e+00
  1.773717e+01    1.558143e+00
  1.775305e+01    1.554801e+00
  1.776892e+01    1.549633e+00
  1.778480e+01    1.508466e+00
  1.780067e+01    1.541766e+00
  1.781655e+01    1.534207e+00
  1.783243e+01    1.520628e+00
  1.784830e+01    1.522494e+00
  1.786418e+01    1.538855e+00
  1.788005e+01    1.524703e+00
  1.789593e+01    1.528107e+00
  1.791180e+01    1.550525e+00
  1.792768e+01    1.532080e+00
  1.794355e+01    1.504770e+00
  1.795943e+01    1.512260e+00
  1.797531e+01    1.509122e+00
  1.799118e+01    1.510300e+00
  1.800706e+01    1.523181e+00
  1.802293e+01    1.514889e+00
  1.803881e+01    1.487063e+00
  1.805468e+01    1.504765e+00
  1.807056e+01    1.541412e+00
  1.808643e+01    1.502713e+00
  1.810231e+01    1.474445e+00
  1.811819e+01    1.497494e+00
  1.813406e+01    1.526927e+00
  1.814994e+01    1.506196e+00
  1.816581e+01    1.493375e+00
  1.818169e+01    1.492269e+00
  1.819756e+01    1.468413e+00
  1.821344e+01    1.520534e+00
  1.822932e+01    1.494448e+00
  1.824519e+01    1.464811e+00
  1.826107e+01    1.495449e+00
  1.827694e+01    1.494450e+00
  1.829282e+01    1.441734e+00
  1.830869e+01    1.417866e+00
  1.832457e+01    1.443654e+00
  1.834044e+01    1.441672e+00
  1.835632e+01    1.414055e+00
  1.837220e+01    1.454385e+00
  1.838807e+01    1.488420e+00
  1.840395e+01    1.471909e+00
  1.841982e+01    1.448648e+00
  1.843570e+01    1.445889e+00
  1.845157e+01    1.458506e+00
  1.846745e+01    1.437909e+00
  1.848332e+01    1.428546e+00
  1.849920e+01    1.424273e+00
  1.851508e+01    1.428117e+00
  1.853095e+01    1.400258e+00
  1.854683e+01    1.422534e+00
  1.856270e+01    1.447797e+00
  1.857858e+01    1.462913e+00
  1.859445e+01    1.441068e+00
  1.861033e+01    1.410743e+00
  1.862620e+01    1.415950e+00
  1.864208e+01    1.436133e+00
  1.865796e+01    1.427880e+00
  1.867383e+01    1.416413e+00
  1.868971e+01    1.461565e+00
  1.870558e+01    1.435337e+00
  1.872146e+01    1.450289e+00
  1.873733e+01    1.421667e+00
  1.875321e+01    1.394267e+00
  1.876908e+01    1.401018e+00
  1.878496e+01    1.431090e+00
  1.880084e+01    1.433527e+00
  1.881671e+01    1.409226e+00
  1.883259e+01    1.414365e+00
  1.884846e+01    1.420800e+00
  1.886434e+01    1.422159e+00
  1.888021e+01    1.418641e+00
  1.889609e+01    1.400617e+00
  1.891196e+01    1.379404e+00
  1.892784e+01    1.383163e+00
  1.894372e+01    1.399030e+00
  1.895959e+01    1.398985e+00
  1.897547e+01    1.371036e+00
  1.899134e+01    1.398430e+00
  1.900722e+01    1.424299e+00
  1.902309e+01    1.406296e+00
  1.903897e+01    1.393192e+00
  1.905484e+01    1.375980e+00
  1.907072e+01    1.358366e+00
  1.908660e+01    1.365635e+00
  1.910247e+01    1.380944e+00
  1.911835e+01    1.405412e+00
  1.913422e+01    1.402213e+00
  1.915010e+01    1.345383e+00
  1.916597e+01    1.354583e+00
  1.918185e+01    1.364922e+00
  1.919773e+01    1.338599e+00
  1.921360e+01    1.344911e+00
  1.922948e+01    1.380161e+00
  1.924535e+01    1.378739e+00
  1.926123e+01    1.346421e+00
  1.927710e+01    1.350626e+00
  1.929298e+01    1.339381e+00
  1.930885e+01    1.360175e+00
  1.932473e+01    1.367722e+00
  1.934061e+01    1.356406e+00
  1.935648e+01    1.334255e+00
  1.937236e+01    1.358694e+00
  1.938823e+01    1.348663e+00
  1.940411e+01    1.334056e+00
  1.941998e+01    1.327887e+00
  1.943586e+01    1.342158e+00
  1.945173e+01    1.344147e+00
  1.946761e+01    1.336862e+00
  1.948349e+01    1.339179e+00
  1.949936e+01    1.337462e+00
  1.951524e+01    1.341787e+00
  1.953111e+01    1.364522e+00
  1.954699e+01    1.325506e+00
  1.956286e+01    1.340687e+00
  1.957874e+01    1.319831e+00
  1.959461e+01    1.308219e+00
  1.961049e+01    1.296868e+00
  1.962637e+01    1.310704e+00
  1.964224e+01    1.323014e+00
  1.965812e+01    1.323366e+00
  1.967399e+01    1.330092e+00
  1.968987e+01    1.307453e+00
  1.970574e+01    1.290849e+00
  1.972162e+01    1.297710e+00
  1.973749e+01    1.300909e+00
  1.975337e+01    1.318792e+00
  1.976925e+01    1.323344e+00
  1.978512e+01    1.333964e+00
  1.980100e+01    1.333321e+00
  1.981687e+01    1.316678e+00
  1.983275e+01    1.307152e+00
  1.984862e+01    1.343441e+00
  1.986450e+01    1.279768e+00
  1.988037e+01    1.289452e+00
  1.989625e+01    1.295973e+00
  1.991213e+01    1.301797e+00
  1.992800e+01    1.325593e+00
  1.994388e+01    1.280185e+00
  1.995975e+01    1.274284e+00
  1.997563e+01    1.272388e+00
  1.999150e+01    1.254893e+00
  2.000738e+01    1.271671e+00
  2.002325e+01    1.292690e+00
  2.003913e+01    1.306883e+00
  2.005501e+01    1.270350e+00
  2.007088e+01    1.264354e+00
  2.008676e+01    1.270335e+00
  2.010263e+01    1.260854e+00
  2.011851e+01    1.278401e+00
  2.013438e+01    1.286117e+00
  2.015026e+01    1.286775e+00
  2.016614e+01    1.262919e+00
  2.018201e+01    1.275239e+00
  2.019789e+01    1.268644e+00
  2.021376e+01    1.288927e+00
  2.022964e+01    1.245622e+00
  2.024551e+01    1.240590e+00
  2.026139e+01    1.250834e+00
  2.027726e+01    1.245456e+00
  2.029314e+01    1.235114e+00
  2.030902e+01    1.261308e+00
  2.032489e+01    1.237621e+00
  2.034077e+01    1.253716e+00
  2.035664e+01    1.249373e+00
  2.037252e+01    1.242389e+00
  2.038839e+01    1.256359e+00
  2.040427e+01    1.272425e+00
  2.042014e+01    1.276863e+00
  2.043602e+01    1.233327e+00
  2.045190e+01    1.219206e+00
  2.046777e+01    1.229086e+00
  2.048365e+01    1.219046e+00
  2.049952e+01    1.235695e+00
  2.051540e+01    1.260447e+00
  2.053127e+01    1.209693e+00
  2.054715e+01    1.228044e+00
  2.056302e+01    1.235975e+00
  2.057890e+01    1.226674e+00
  2.059478e+01    1.244081e+00
  2.061065e+01    1.242848e+00
  2.062653e+01    1.220612e+00
  2.064240e+01    1.226645e+00
  2.065828e+01    1.228674e+00
  2.067415e+01    1.240093e+00
  2.069003e+01    1.227235e+00
  2.070590e+01    1.230781e+00
  2.072178e+01    1.232540e+00
  2.073766e+01    1.231010e+00
  2.075353e+01    1.231469e+00
  2.076941e+01    1.213806e+00
  2.078528e+01    1.240578e+00
  2.080116e+01    1.244048e+00
  2.081703e+01    1.221171e+00
  2.083291e+01    1.208793e+00
  2.084878e+01    1.212444e+00
  2.086466e+01    1.213887e+00
  2.088054e+01    1.243247e+00
  2.089641e+01    1.263009e+00
  2.091229e+01    1.230177e+00
  2.092816e+01    1.237510e+00
  2.094404e+01    1.209697e+00
  2.095991e+01    1.233709e+00
  2.097579e+01    1.201356e+00
  2.099166e+01    1.207555e+00
  2.100754e+01    1.214535e+00
  2.102342e+01    1.235295e+00
  2.103929e+01    1.228407e+00
  2.105517e+01    1.205984e+00
  2.107104e+01    1.200198e+00
  2.108692e+01    1.228282e+00
  2.110279e+01    1.230045e+00
  2.111867e+01    1.236871e+00
  2.113455e+01    1.242267e+00
  2.115042e+01    1.242395e+00
  2.116630e+01    1.224221e+00
  2.118217e+01    1.218672e+00
  2.119805e+01    1.218782e+00
  2.121392e+01    1.251567e+00
  2.122980e+01    1.256049e+00
  2.124567e+01    1.240646e+00
  2.126155e+01    1.255188e+00
  2.127743e+01    1.265188e+00
  2.129330e+01    1.273872e+00
  2.130918e+01    1.268684e+00
  2.132505e+01    1.276291e+00
  2.134093e+01    1.279647e+00
  2.135680e+01    1.277469e+00
  2.137268e+01    1.263935e+00
  2.138855e+01    1.302353e+00
  2.140443e+01    1.327559e+00
  2.142031e+01    1.332565e+00
  2.143618e+01    1.344870e+00
  2.145206e+01    1.331838e+00
  2.146793e+01    1.366610e+00
  2.148381e+01    1.413945e+00
  2.149968e+01    1.407830e+00
  2.151556e+01    1.459969e+00
  2.153143e+01    1.475432e+00
  2.154731e+01    1.501129e+00
  2.156319e+01    1.582616e+00
  2.157906e+01    1.631883e+00
  2.159494e+01    1.681792e+00
  2.161081e+01    1.746008e+00
  2.162669e+01    1.815490e+00
  2.164256e+01    1.961170e+00
  2.165844e+01    2.116750e+00
  2.167431e+01    2.264645e+00
  2.169019e+01    2.476126e+00
  2.170607e+01    2.789057e+00
  2.172194e+01    3.152795e+00
  2.173782e+01    3.604260e+00
  2.175369e+01    4.084386e+00
  2.176957e+01    4.619061e+00
  2.178544e+01    5.216509e+00
  2.180132e+01    5.865515e+00
  2.181719e+01    6.541543e+00
  2.183307e+01    7.147814e+00
  2.184895e+01    7.818865e+00
  2.186482e+01    8.327196e+00
  2.188070e+01    8.778695e+00
  2.189657e+01    8.972543e+00
  2.191245e+01    8.779174e+00
  2.192832e+01    8.282419e+00
  2.194420e+01    7.568669e+00
  2.196007e+01    6.682324e+00
  2.197595e+01    5.738338e+00
  2.199183e+01    4.934240e+00
  2.200770e+01    4.258325e+00
  2.202358e+01    3.634346e+00
  2.203945e+01    3.189787e+00
  2.205533e+01    2.843624e+00
  2.207120e+01    2.592621e+00
  2.208708e+01    2.359765e+00
  2.210296e+01    2.158515e+00
  2.211883e+01    1.991362e+00
  2.213471e+01    1.885139e+00
  2.215058e+01    1.760023e+00
  2.216646e+01    1.694611e+00
  2.218233e+01    1.605620e+00
  2.219821e+01    1.530836e+00
  2.221408e+01    1.485888e+00
  2.222996e+01    1.434741e+00
  2.224584e+01    1.399585e+00
  2.226171e+01    1.360743e+00
  2.227759e+01    1.339630e+00
  2.229346e+01    1.334921e+00
  2.230934e+01    1.285669e+00
  2.232521e+01    1.245216e+00
  2.234109e+01    1.284521e+00
  2.235696e+01    1.265916e+00
  2.237284e+01    1.208162e+00
  2.238872e+01    1.193491e+00
  2.240459e+01    1.191326e+00
  2.242047e+01    1.159427e+00
  2.243634e+01    1.162488e+00
  2.245222e+01    1.153612e+00
  2.246809e+01    1.135435e+00
  2.248397e+01    1.138580e+00
  2.249984e+01    1.146085e+00
  2.251572e+01    1.131544e+00
  2.253160e+01    1.127850e+00
  2.254747e+01    1.118776e+00
  2.256335e+01    1.092121e+00
  2.257922e+01    1.105026e+00
  2.259510e+01    1.118453e+00
  2.261097e+01    1.101775e+00
  2.262685e+01    1.099896e+00
  2.264272e+01    1.098653e+00
  2.265860e+01    1.106166e+00
  2.267448e+01    1.076899e+00
  2.269035e+01    1.059716e+00
  2.270623e+01    1.058534e+00
  2.272210e+01    1.062932e+00
  2.273798e+01    1.075600e+00
  2.275385e+01    1.074840e+00
  2.276973e+01    1.083217e+00
  2.278560e+01    1.054142e+00
  2.280148e+01    1.040989e+00
  2.281736e+01    1.063920e+00
  2.283323e+01    1.049611e+00
  2.284911e+01    1.057027e+00
  2.286498e+01    1.042205e+00
  2.288086e+01    1.030434e+00
  2.289673e+01    1.040819e+00
  2.291261e+01    1.028209e+00
  2.292848e+01    9.916328e-01
  2.294436e+01    1.002833e+00
  2.296024e+01    1.026939e+00
  2.297611e+01    1.042678e+00
  2.299199e+01    1.027853e+00
  2.300786e+01    1.019143e+00
  2.302374e+01    1.022371e+00
  2.303961e+01    1.008454e+00
  2.305549e+01    1.005515e+00
  2.307137e+01    1.019794e+00
  2.308724e+01    1.015840e+00
  2.310312e+01    1.022711e+00
  2.311899e+01    1.008826e+00
  2.313487e+01    1.002277e+00
  2.315074e+01    9.871179e-01
  2.316662e+01    9.940835e-01
  2.318249e+01    9.806555e-01
  2.319837e+01    9.984766e-01
  2.321425e+01    9.895700e-01
  2.323012e+01    9.835839e-01
  2.324600e+01    9.618251e-01
  2.326187e+01    9.925933e-01
  2.327775e+01    9.868025e-01
  2.329362e+01    1.006271e+00
  2.330950e+01    9.889088e-01
  2.332537e+01    9.774868e-01
  2.334125e+01    9.867010e-01
  2.335713e+01    9.676192e-01
  2.337300e+01    9.770181e-01
  2.338888e+01    9.802396e-01
  2.340475e+01    9.784587e-01
  2.342063e+01    9.803510e-01
  2.343650e+01    9.869459e-01
  2.345238e+01    9.576593e-01
  2.346825e+01    9.752623e-01
  2.348413e+01    9.662278e-01
  2.350001e+01    9.589000e-01
  2.351588e+01    9.772675e-01
  2.353176e+01    9.771255e-01
  2.354763e+01    9.582381e-01
  2.356351e+01    9.622335e-01
  2.357938e+01    9.544222e-01
  2.359526e+01    9.532750e-01
  2.361113e+01    9.560127e-01
  2.362701e+01    9.526903e-01
  2.364289e+01    9.472210e-01
  2.365876e+01    9.316871e-01
  2.367464e+01    9.332310e-01
  2.369051e+01    9.596538e-01
  2.370639e+01    9.501084e-01
  2.372226e+01    9.402434e-01
  2.373814e+01    9.323496e-01
  2.375401e+01    9.370714e-01
  2.376989e+01    9.333619e-01
  2.378577e+01    9.542592e-01
  2.380164e+01    9.142487e-01
  2.381752e+01    9.115573e-01
  2.383339e+01    9.144694e-01
  2.384927e+01    9.275122e-01
  2.386514e+01    9.029080e-01
  2.388102e+01    8.938004e-01
  2.389689e+01    9.103677e-01
  2.391277e+01    9.173605e-01
  2.392865e+01    9.016451e-01
  2.394452e+01    8.715042e-01
  2.396040e+01    9.007828e-01
  2.397627e+01    9.062765e-01
  2.399215e+01    9.149665e-01
  2.400802e+01    9.161163e-01
  2.402390e+01    9.055513e-01
  2.403978e+01    9.027376e-01
  2.405565e+01    9.045625e-01
  2.407153e+01    9.020082e-01
  2.408740e+01    8.805408e-01
  2.410328e+01    8.943892e-01
  2.411915e+01    8.656613e-01
  2.413503e+01    8.782247e-01
  2.415090e+01    8.774242e-01
  2.416678e+01    8.907061e-01
  2.418266e+01    8.880613e-01
  2.419853e+01    8.822319e-01
  2.421441e+01    8.661457e-01
  2.423028e+01    8.925068e-01
  2.424616e+01    9.079627e-01
  2.426203e+01    8.990084e-01
  2.427791e+01    8.891876e-01
  2.429378e+01    8.882939e-01
  2.430966e+01    8.777880e-01
  2.432554e+01    8.864086e-01
  2.434141e+01    9.088755e-01
  2.435729e+01    9.055068e-01
  2.437316e+01    9.032632e-01
  2.438904e+01    8.918897e-01
  2.440491e+01    9.023100e-01
  2.442079e+01    9.003467e-01
  2.443666e+01    8.801842e-01
  2.445254e+01    8.841090e-01
  2.446842e+01    9.023362e-01
  2.448429e+01    8.927520e-01
  2.450017e+01    8.760565e-01
  2.451604e+01    8.796116e-01
  2.453192e+01    8.893095e-01
  2.454779e+01    8.914000e-01
  2.456367e+01    9.099683e-01
  2.457954e+01    8.905886e-01
  2.459542e+01    8.650104e-01
  2.461130e+01    8.677713e-01
  2.462717e+01    8.896967e-01
  2.464305e+01    8.994011e-01
  2.465892e+01    9.105768e-01
  2.467480e+01    8.949228e-01
  2.469067e+01    8.844836e-01
  2.470655e+01    8.965815e-01
  2.472242e+01    8.959099e-01
  2.473830e+01    8.801359e-01
  2.475418e+01    8.999206e-01
  2.477005e+01    9.100437e-01
  2.478593e+01    8.924723e-01
  2.480180e+01    8.663485e-01
  2.481768e+01    8.775792e-01
  2.483355e+01    8.952335e-01
  2.484943e+01    8.889919e-01
  2.486530e+01    9.023037e-01
  2.488118e+01    8.948643e-01
  2.489706e+01    8.761309e-01
  2.491293e+01    8.818120e-01
  2.492881e+01    8.964863e-01
  2.494468e+01    8.894392e-01
  2.496056e+01    9.017118e-01
  2.497643e+01    8.846499e-01
  2.499231e+01    8.987837e-01
  2.500819e+01    9.001257e-01
  2.502406e+01    9.189802e-01
  2.503994e+01    9.219615e-01
  2.505581e+01    9.134569e-01
  2.507169e+01    9.157152e-01
  2.508756e+01    9.123880e-01
  2.510344e+01    9.173957e-01
  2.511931e+01    9.007944e-01
  2.513519e+01    9.080150e-01
  2.515107e+01    9.173988e-01
  2.516694e+01    9.294407e-01
  2.518282e+01    8.977663e-01
  2.519869e+01    9.046584e-01
  2.521457e+01    9.168983e-01
  2.523044e+01    9.439066e-01
  2.524632e+01    9.479424e-01
  2.526219e+01    9.337081e-01
  2.527807e+01    9.400551e-01
  2.529395e+01    9.423424e-01
  2.530982e+01    9.641672e-01
  2.532570e+01    9.660906e-01
  2.534157e+01    9.594547e-01
  2.535745e+01    9.797038e-01
  2.537332e+01    9.622854e-01
  2.538920e+01    9.882065e-01
  2.540507e+01    1.004550e+00
  2.542095e+01    9.889326e-01
  2.543683e+01    9.832421e-01
  2.545270e+01    9.991932e-01
  2.546858e+01    1.029996e+00
  2.548445e+01    1.018148e+00
  2.550033e+01    1.039053e+00
  2.551620e+01    1.056614e+00
  2.553208e+01    1.092022e+00
  2.554795e+01    1.088941e+00
  2.556383e+01    1.114431e+00
  2.557971e+01    1.148575e+00
  2.559558e+01    1.195287e+00
  2.561146e+01    1.228420e+00
  2.562733e+01    1.238131e+00
  2.564321e+01    1.297955e+00
  2.565908e+01    1.348386e+00
  2.567496e+01    1.425524e+00
  2.569083e+01    1.473393e+00
  2.570671e+01    1.574555e+00
  2.572259e+01    1.699628e+00
  2.573846e+01    1.832303e+00
  2.575434e+01    1.994372e+00
  2.577021e+01    2.223739e+00
  2.578609e+01    2.504932e+00
  2.580196e+01    2.801660e+00
  2.581784e+01    3.122207e+00
  2.583371e+01    3.593838e+00
  2.584959e+01    4.107499e+00
  2.586547e+01    4.656547e+00
  2.588134e+01    5.175449e+00
  2.589722e+01    5.783558e+00
  2.591309e+01    6.320589e+00
  2.592897e+01    6.757170e+00
  2.594484e+01    7.047035e+00
  2.596072e+01    7.123633e+00
  2.597660e+01    6.984154e+00
  2.599247e+01    6.575804e+00
  2.600835e+01    6.039723e+00
  2.602422e+01    5.340945e+00
  2.604010e+01    4.629617e+00
  2.605597e+01    3.962070e+00
  2.607185e+01    3.421138e+00
  2.608772e+01    2.977749e+00
  2.610360e+01    2.630465e+00
  2.611948e+01    2.380698e+00
  2.613535e+01    2.148291e+00
  2.615123e+01    1.968352e+00
  2.616710e+01    1.805951e+00
  2.618298e+01    1.658707e+00
  2.619885e+01    1.545509e+00
  2.621473e+01    1.475154e+00
  2.623060e+01    1.404074e+00
  2.624648e+01    1.344464e+00
  2.626236e+01    1.303323e+00
  2.627823e+01    1.257988e+00
  2.629411e+01    1.212423e+00
  2.630998e+01    1.170585e+00
  2.632586e+01    1.157144e+00
  2.634173e+01    1.148314e+00
  2.635761e+01    1.084242e+00
  2.637348e+01    1.091087e+00
  2.638936e+01    1.076929e+00
  2.640524e+01    1.051372e+00
  2.642111e+01    1.024004e+00
  2.643699e+01    1.022686e+00
  2.645286e+01    1.023228e+00
  2.646874e+01    1.019173e+00
  2.648461e+01    1.005588e+00
  2.650049e+01    1.014091e+00
  2.651636e+01    1.011905e+00
  2.653224e+01    1.011667e+00
  2.654812e+01    9.889119e-01
  2.656399e+01    9.846012e-01
  2.657987e+01    9.632648e-01
  2.659574e+01    9.745411e-01
  2.661162e+01    9.906044e-01
  2.662749e+01    9.840315e-01
  2.664337e+01    9.856405e-01
  2.665924e+01    9.905347e-01
  2.667512e+01    9.699494e-01
  2.669100e+01    9.792912e-01
  2.670687e+01    9.745111e-01
  2.672275e+01    9.759144e-01
  2.673862e+01    9.877502e-01
  2.675450e+01    9.809067e-01
  2.677037e+01    9.740955e-01
  2.678625e+01    9.937625e-01
  2.680212e+01    9.513582e-01
  2.681800e+01    9.559591e-01
  2.683388e+01    9.853790e-01
  2.684975e+01    9.801832e-01
  2.686563e+01    9.789478e-01
  2.688150e+01    9.892540e-01
  2.689738e+01    9.898226e-01
  2.691325e+01    1.007007e+00
  2.692913e+01    1.008400e+00
  2.694501e+01    1.025400e+00
  2.696088e+01    1.051456e+00
  2.697676e+01    1.071632e+00
  2.699263e+01    1.092924e+00
  2.700851e+01    1.097838e+00
  2.702438e+01    1.137900e+00
  2.704026e+01    1.224676e+00
  2.705613e+01    1.257890e+00
  2.707201e+01    1.295498e+00
  2.708789e+01    1.397146e+00
  2.710376e+01    1.503694e+00
  2.711964e+01    1.586886e+00
  2.713551e+01    1.712660e+00
  2.715139e+01    1.820975e+00
  2.716726e+01    1.937722e+00
  2.718314e+01    2.046350e+00
  2.719901e+01    2.121212e+00
  2.721489e+01    2.167473e+00
  2.723077e+01    2.192926e+00
  2.724664e+01    2.125192e+00
  2.726252e+01    1.978994e+00
  2.727839e+01    1.842914e+00
  2.729427e+01    1.728097e+00
  2.731014e+01    1.566178e+00
  2.732602e+01    1.434735e+00
  2.734189e+01    1.360534e+00
  2.735777e+01    1.294957e+00
  2.737365e+01    1.215963e+00
  2.738952e+01    1.166746e+00
  2.740540e+01    1.126182e+00
  2.742127e+01    1.110285e+00
  2.743715e+01    1.081716e+00
  2.745302e+01    1.068306e+00
  2.746890e+01    1.022636e+00
  2.748477e+01    1.008575e+00
  2.750065e+01    9.692605e-01
  2.751653e+01    9.749586e-01
  2.753240e+01    9.777800e-01
  2.754828e+01    9.640447e-01
  2.756415e+01    9.172752e-01
  2.758003e+01    8.889753e-01
  2.759590e+01    9.298039e-01
  2.761178e+01    9.193037e-01
  2.762765e+01    9.320114e-01
  2.764353e+01    9.327014e-01
  2.765941e+01    9.183103e-01
  2.767528e+01    9.132585e-01
  2.769116e+01    9.234796e-01
  2.770703e+01    9.153867e-01
  2.772291e+01    9.067894e-01
  2.773878e+01    8.869537e-01
  2.775466e+01    8.991603e-01
  2.777054e+01    9.014875e-01
  2.778641e+01    9.094557e-01
  2.780229e+01    8.843238e-01
  2.781816e+01    8.795409e-01
  2.783404e+01    8.674101e-01
  2.784991e+01    8.704356e-01
  2.786579e+01    9.018989e-01
  2.788166e+01    9.016084e-01
  2.789754e+01    8.897713e-01
  2.791342e+01    8.739872e-01
  2.792929e+01    8.784487e-01
  2.794517e+01    8.866056e-01
  2.796104e+01    8.754523e-01
  2.797692e+01    8.656775e-01
  2.799279e+01    8.484566e-01
  2.800867e+01    8.620828e-01
  2.802454e+01    8.762082e-01
  2.804042e+01    8.689443e-01
  2.805630e+01    8.790304e-01
  2.807217e+01    8.461989e-01
  2.808805e+01    8.471859e-01
  2.810392e+01    8.355486e-01
  2.811980e+01    8.431304e-01
  2.813567e+01    8.576329e-01
  2.815155e+01    8.772016e-01
  2.816742e+01    8.556740e-01
  2.818330e+01    8.542368e-01
  2.819918e+01    8.507591e-01
  2.821505e+01    8.544005e-01
  2.823093e+01    8.564735e-01
  2.824680e+01    8.724242e-01
  2.826268e+01    8.803709e-01
  2.827855e+01    8.783978e-01
  2.829443e+01    8.542374e-01
  2.831030e+01    8.319075e-01
  2.832618e+01    8.410220e-01
  2.834206e+01    8.464557e-01
  2.835793e+01    8.469393e-01
  2.837381e+01    8.362640e-01
  2.838968e+01    8.351594e-01
  2.840556e+01    8.366476e-01
  2.842143e+01    8.503562e-01
  2.843731e+01    8.453523e-01
  2.845318e+01    8.278592e-01
  2.846906e+01    8.508082e-01
  2.848494e+01    8.354589e-01
  2.850081e+01    8.365896e-01
  2.851669e+01    8.406275e-01
  2.853256e+01    8.471863e-01
  2.854844e+01    8.377957e-01
  2.856431e+01    8.466790e-01
  2.858019e+01    8.599148e-01
  2.859606e+01    8.638754e-01
  2.861194e+01    8.472183e-01
  2.862782e+01    8.365989e-01
  2.864369e+01    8.437788e-01
  2.865957e+01    8.298802e-01
  2.867544e+01    8.325987e-01
  2.869132e+01    8.352081e-01
  2.870719e+01    8.384818e-01
  2.872307e+01    8.342022e-01
  2.873895e+01    8.306322e-01
  2.875482e+01    8.161154e-01
  2.877070e+01    8.479523e-01
  2.878657e+01    8.458620e-01
  2.880245e+01    8.616723e-01
  2.881832e+01    8.450438e-01
  2.883420e+01    8.322118e-01
  2.885007e+01    8.250118e-01
  2.886595e+01    8.343622e-01
  2.888183e+01    8.504772e-01
  2.889770e+01    8.325641e-01
  2.891358e+01    8.109868e-01
  2.892945e+01    8.220552e-01
  2.894533e+01    8.194006e-01
  2.896120e+01    8.226408e-01
  2.897708e+01    7.961466e-01
  2.899295e+01    8.162759e-01
  2.900883e+01    8.252733e-01
  2.902471e+01    8.262333e-01
  2.904058e+01    8.440027e-01
  2.905646e+01    8.083869e-01
  2.907233e+01    8.145308e-01
  2.908821e+01    8.346012e-01
  2.910408e+01    8.148778e-01
  2.911996e+01    8.110824e-01
  2.913583e+01    8.167452e-01
  2.915171e+01    8.204318e-01
  2.916759e+01    8.260009e-01
  2.918346e+01    8.273172e-01
  2.919934e+01    8.059444e-01
  2.921521e+01    8.268654e-01
  2.923109e+01    8.018897e-01
  2.924696e+01    7.956427e-01
  2.926284e+01    7.959118e-01
  2.927871e+01    7.823851e-01
  2.929459e+01    8.088651e-01
  2.931047e+01    8.203253e-01
  2.932634e+01    8.252155e-01
  2.934222e+01    8.288872e-01
  2.935809e+01    8.192252e-01
  2.937397e+01    8.061318e-01
  2.938984e+01    7.804301e-01
  2.940572e+01    8.172446e-01
  2.942159e+01    7.966818e-01
  2.943747e+01    7.930776e-01
  2.945335e+01    8.000291e-01
  2.946922e+01    8.006475e-01
  2.948510e+01    8.004650e-01
  2.950097e+01    7.919511e-01
  2.951685e+01    8.051959e-01
  2.953272e+01    8.246760e-01
  2.954860e+01    8.034949e-01
  2.956447e+01    7.869641e-01
  2.958035e+01    7.900770e-01
  2.959623e+01    7.856748e-01
  2.961210e+01    7.941987e-01
  2.962798e+01    8.163335e-01
  2.964385e+01    8.123119e-01
  2.965973e+01    8.133241e-01
  2.967560e+01    8.058357e-01
  2.969148e+01    8.089033e-01
  2.970736e+01    8.033442e-01
  2.972323e+01    7.918334e-01
  2.973911e+01    7.891633e-01
  2.975498e+01    7.871071e-01
  2.977086e+01    7.910224e-01
  2.978673e+01    7.796071e-01
  2.980261e+01    7.825084e-01
  2.981848e+01    7.875135e-01
  2.983436e+01    7.922286e-01
  2.985024e+01    7.950118e-01
  2.986611e+01    7.993282e-01
  2.988199e+01    8.083730e-01
  2.989786e+01    7.996070e-01
  2.991374e+01    7.921470e-01
  2.992961e+01    8.038378e-01
  2.994549e+01    7.902626e-01
  2.996136e+01    8.027384e-01
  2.997724e+01    8.088920e-01
  2.999312e+01    8.096457e-01
  3.000899e+01    8.183547e-01
  3.002487e+01    8.068880e-01
  3.004074e+01    8.023570e-01
  3.005662e+01    8.016361e-01
  3.007249e+01    8.045867e-01
  3.008837e+01    8.105806e-01
  3.010424e+01    8.120674e-01
  3.012012e+01    8.093811e-01
  3.013600e+01    8.150454e-01
  3.015187e+01    7.978489e-01
  3.016775e+01    7.952766e-01
  3.018362e+01    8.054332e-01
  3.019950e+01    8.004569e-01
  3.021537e+01    7.937005e-01
  3.023125e+01    7.982193e-01
  3.024712e+01    7.884673e-01
  3.026300e+01    8.009685e-01
  3.027888e+01    8.065141e-01
  3.029475e+01    7.960477e-01
  3.031063e+01    7.911693e-01
  3.032650e+01    7.773097e-01
  3.034238e+01    8.053124e-01
  3.035825e+01    8.008465e-01
  3.037413e+01    7.748354e-01
  3.039000e+01    7.854727e-01
  3.040588e+01    7.856305e-01
  3.042176e+01    7.934074e-01
  3.043763e+01    7.688550e-01
  3.045351e+01    7.771441e-01
  3.046938e+01    7.959713e-01
  3.048526e+01    7.893831e-01
  3.050113e+01    8.048930e-01
  3.051701e+01    7.968469e-01
  3.053288e+01    7.815394e-01
  3.054876e+01    7.999065e-01
  3.056464e+01    7.874621e-01
  3.058051e+01    7.785642e-01
  3.059639e+01    7.961437e-01
  3.061226e+01    7.941421e-01
  3.062814e+01    7.861590e-01
  3.064401e+01    7.954058e-01
  3.065989e+01    7.968653e-01
  3.067577e+01    7.996142e-01
  3.069164e+01    7.871739e-01
  3.070752e+01    7.696844e-01
  3.072339e+01    7.715300e-01
  3.073927e+01    7.884372e-01
  3.075514e+01    7.971263e-01
  3.077102e+01    7.811840e-01
  3.078689e+01    7.845705e-01
  3.080277e+01    7.907314e-01
  3.081865e+01    7.742802e-01
  3.083452e+01    7.653552e-01
  3.085040e+01    7.841981e-01
  3.086627e+01    7.996385e-01
  3.088215e+01    7.804905e-01
  3.089802e+01    7.783524e-01
  3.091390e+01    7.821968e-01
  3.092977e+01    7.931046e-01
  3.094565e+01    7.754915e-01
  3.096153e+01    7.699329e-01
  3.097740e+01    7.750826e-01
  3.099328e+01    7.833542e-01
  3.100915e+01    7.892238e-01
  3.102503e+01    7.802591e-01
  3.104090e+01    7.904716e-01
  3.105678e+01    7.830647e-01
  3.107265e+01    7.817118e-01
  3.108853e+01    7.929500e-01
  3.110441e+01    7.756538e-01
  3.112028e+01    7.888750e-01
  3.113616e+01    7.889338e-01
  3.115203e+01    7.788206e-01
  3.116791e+01    7.727493e-01
  3.118378e+01    7.937945e-01
  3.119966e+01    8.085908e-01
  3.121553e+01    7.835882e-01
  3.123141e+01    7.996512e-01
  3.124729e+01    7.968167e-01
  3.126316e+01    7.950120e-01
  3.127904e+01    7.970762e-01
  3.129491e+01    7.958384e-01
  3.131079e+01    7.949048e-01
  3.132666e+01    7.993233e-01
  3.134254e+01    7.995173e-01
  3.135841e+01    7.981370e-01
  3.137429e+01    8.072615e-01
  3.139017e+01    8.035590e-01
  3.140604e+01    8.139721e-01
  3.142192e+01    8.158588e-01
  3.143779e+01    8.299143e-01
  3.145367e+01    8.447709e-01
  3.146954e+01    8.343384e-01
  3.148542e+01    8.364860e-01
  3.150129e+01    8.306803e-01
  3.151717e+01    8.430493e-01
  3.153305e+01    8.372531e-01
  3.154892e+01    8.520635e-01
  3.156480e+01    8.541445e-01
  3.158067e+01    8.652992e-01
  3.159655e+01    8.722101e-01
  3.161242e+01    8.608021e-01
  3.162830e+01    8.901842e-01
  3.164418e+01    9.329530e-01
  3.166005e+01    9.459493e-01
  3.167593e+01    9.516236e-01
  3.169180e+01    9.659746e-01
  3.170768e+01    9.965281e-01
  3.172355e+01    1.074988e+00
  3.173943e+01    1.118129e+00
  3.175530e+01    1.198964e+00
  3.177118e+01    1.273576e+00
  3.178706e+01    1.351341e+00
  3.180293e+01    1.431074e+00
  3.181881e+01    1.559055e+00
  3.183468e+01    1.709314e+00
  3.185056e+01    1.823591e+00
  3.186643e+01    1.947986e+00
  3.188231e+01    2.027955e+00
  3.189818e+01    2.085440e+00
  3.191406e+01    2.113180e+00
  3.192994e+01    2.041842e+00
  3.194581e+01    1.945188e+00
  3.196169e+01    1.821808e+00
  3.197756e+01    1.659173e+00
  3.199344e+01    1.530533e+00
  3.200931e+01    1.411064e+00
  3.202519e+01    1.333232e+00
  3.204106e+01    1.258242e+00
  3.205694e+01    1.180987e+00
  3.207282e+01    1.105527e+00
  3.208869e+01    1.047371e+00
  3.210457e+01    1.026687e+00
  3.212044e+01    9.592959e-01
  3.213632e+01    9.315716e-01
  3.215219e+01    9.180114e-01
  3.216807e+01    9.125465e-01
  3.218394e+01    8.728471e-01
  3.219982e+01    8.632022e-01
  3.221570e+01    8.624172e-01
  3.223157e+01    8.429935e-01
  3.224745e+01    8.338486e-01
  3.226332e+01    8.223220e-01
  3.227920e+01    8.191957e-01
  3.229507e+01    8.263825e-01
  3.231095e+01    8.063982e-01
  3.232682e+01    8.139537e-01
  3.234270e+01    8.072451e-01
  3.235858e+01    7.818064e-01
  3.237445e+01    8.054608e-01
  3.239033e+01    7.734754e-01
  3.240620e+01    7.532684e-01
  3.242208e+01    7.875494e-01
  3.243795e+01    7.830415e-01
  3.245383e+01    7.836085e-01
  3.246970e+01    7.663521e-01
  3.248558e+01    8.170246e-01
  3.250146e+01    7.827461e-01
  3.251733e+01    7.610739e-01
  3.253321e+01    7.754771e-01
  3.254908e+01    7.917293e-01
