# == pyFAI calibration ==
# Distance Sample to Detector: 0.3999999939076516 m
# PONI: 9.750e-02, 1.135e-01 m
# Rotations: -0.000175 0.000000 -0.000000 rad
# 
# == Fit2d calibration ==
# Distance Sample-beamCenter: 400.000 mm
# Center: x=1514.000, y=1300.000 pix
# Tilt: 0.010 deg  TiltPlanRot: 0.010 deg
# 
# Detector Detector	 Spline= None	 PixelSize= 7.500e-05, 7.500e-05 m
#    Detector has a mask: False 
#    Detector has a dark current: False 
#    detector has a flat field: False 
# 
# Wavelength: 6.888e-11 m
# Mask applied: user provided
# Dark current applied: False
# Flat field applied: False
# Polarization factor: 0.99
# Normalization factor: 1.0
# --> /home/myspot/data/2024_07_Rosario/Ru-CGO-ex/2024-07-27_003_Ru-CGO-ex_Reaction_dwell_000023_data_000119.dat
#       q_nm^-1             I 
  2.003187e-02    1.542422e-01
  3.590745e-02    2.000414e-01
  5.178302e-02    1.982046e-01
  6.765859e-02    4.048174e-01
  8.353417e-02    1.766687e-01
  9.940974e-02    6.785826e-02
  1.152853e-01    4.593313e-02
  1.311609e-01    9.647235e-02
  1.470365e-01    3.153719e-02
  1.629120e-01    3.557881e-02
  1.787876e-01    5.027913e-02
  1.946632e-01    2.406519e-02
  2.105388e-01    2.517807e-02
  2.264143e-01    2.790078e-02
  2.422899e-01    6.416380e-02
  2.581655e-01    4.769517e-02
  2.740411e-01    6.544951e-02
  2.899166e-01    5.616498e-02
  3.057922e-01    5.367139e-02
  3.216678e-01    3.198634e-02
  3.375433e-01    4.680463e-02
  3.534189e-01    3.582152e-02
  3.692945e-01    7.431662e-02
  3.851701e-01    2.974868e-02
  4.010456e-01    2.535720e-02
  4.169212e-01    2.349911e-02
  4.327968e-01    2.614252e-02
  4.486724e-01    5.137832e-02
  4.645479e-01    4.573776e-02
  4.804235e-01    3.263236e-02
  4.962991e-01    3.544450e-02
  5.121747e-01    3.834014e-02
  5.280502e-01    1.282009e-02
  5.439258e-01    4.207758e-02
  5.598014e-01    5.098982e-02
  5.756770e-01    4.543555e-02
  5.915525e-01    5.771510e-02
  6.074281e-01    5.089495e-02
  6.233037e-01    5.036095e-02
  6.391793e-01    2.859660e-02
  6.550548e-01    3.839267e-02
  6.709304e-01    3.386052e-02
  6.868060e-01    3.006322e-02
  7.026815e-01    5.337019e-02
  7.185571e-01    6.370935e-02
  7.344327e-01    6.111483e-02
  7.503083e-01    5.637161e-02
  7.661838e-01    5.274529e-02
  7.820594e-01    9.055490e-02
  7.979350e-01    1.446285e-01
  8.138106e-01    2.311448e-01
  8.296861e-01    2.841442e-01
  8.455617e-01    3.618626e-01
  8.614373e-01    4.402859e-01
  8.773129e-01    5.218129e-01
  8.931884e-01    5.586710e-01
  9.090640e-01    6.863545e-01
  9.249396e-01    7.971812e-01
  9.408152e-01    8.078303e-01
  9.566907e-01    9.474910e-01
  9.725663e-01    1.010692e+00
  9.884419e-01    1.153962e+00
  1.004317e+00    1.187888e+00
  1.020193e+00    1.287462e+00
  1.036069e+00    1.331421e+00
  1.051944e+00    1.480062e+00
  1.067820e+00    1.430852e+00
  1.083695e+00    1.452489e+00
  1.099571e+00    1.577688e+00
  1.115446e+00    1.602340e+00
  1.131322e+00    1.539162e+00
  1.147198e+00    1.621409e+00
  1.163073e+00    1.695389e+00
  1.178949e+00    1.764696e+00
  1.194824e+00    1.796035e+00
  1.210700e+00    1.981117e+00
  1.226575e+00    2.277675e+00
  1.242451e+00    2.276790e+00
  1.258327e+00    2.407392e+00
  1.274202e+00    2.668303e+00
  1.290078e+00    2.727522e+00
  1.305953e+00    2.691359e+00
  1.321829e+00    2.769170e+00
  1.337705e+00    2.697055e+00
  1.353580e+00    2.636184e+00
  1.369456e+00    2.770403e+00
  1.385331e+00    2.795057e+00
  1.401207e+00    2.980700e+00
  1.417082e+00    2.936065e+00
  1.432958e+00    2.860035e+00
  1.448834e+00    2.959739e+00
  1.464709e+00    2.980665e+00
  1.480585e+00    3.133136e+00
  1.496460e+00    3.194016e+00
  1.512336e+00    3.345924e+00
  1.528211e+00    3.388435e+00
  1.544087e+00    3.175134e+00
  1.559963e+00    3.215180e+00
  1.575838e+00    3.195005e+00
  1.591714e+00    3.218813e+00
  1.607589e+00    3.152773e+00
  1.623465e+00    3.203380e+00
  1.639340e+00    3.115006e+00
  1.655216e+00    3.114969e+00
  1.671092e+00    3.077501e+00
  1.686967e+00    3.034823e+00
  1.702843e+00    3.059531e+00
  1.718718e+00    3.074049e+00
  1.734594e+00    3.003595e+00
  1.750469e+00    3.106015e+00
  1.766345e+00    3.023856e+00
  1.782221e+00    3.065209e+00
  1.798096e+00    3.069205e+00
  1.813972e+00    3.152881e+00
  1.829847e+00    3.150115e+00
  1.845723e+00    3.109608e+00
  1.861598e+00    3.032274e+00
  1.877474e+00    3.005090e+00
  1.893350e+00    3.041827e+00
  1.909225e+00    2.941760e+00
  1.925101e+00    3.072773e+00
  1.940976e+00    3.086923e+00
  1.956852e+00    2.993943e+00
  1.972727e+00    3.035465e+00
  1.988603e+00    3.016675e+00
  2.004479e+00    3.017322e+00
  2.020354e+00    3.019164e+00
  2.036230e+00    3.105894e+00
  2.052105e+00    3.048577e+00
  2.067981e+00    3.107589e+00
  2.083856e+00    3.049109e+00
  2.099732e+00    3.054441e+00
  2.115608e+00    3.176141e+00
  2.131483e+00    3.143014e+00
  2.147359e+00    3.171958e+00
  2.163234e+00    3.125773e+00
  2.179110e+00    3.187323e+00
  2.194985e+00    3.199752e+00
  2.210861e+00    3.097321e+00
  2.226737e+00    3.042753e+00
  2.242612e+00    3.145804e+00
  2.258488e+00    3.158040e+00
  2.274363e+00    3.044389e+00
  2.290239e+00    3.054340e+00
  2.306115e+00    3.220378e+00
  2.321990e+00    3.085979e+00
  2.337866e+00    3.122450e+00
  2.353741e+00    3.118644e+00
  2.369617e+00    3.229523e+00
  2.385492e+00    3.290715e+00
  2.401368e+00    3.226123e+00
  2.417244e+00    3.131554e+00
  2.433119e+00    3.142019e+00
  2.448995e+00    3.192133e+00
  2.464870e+00    3.216115e+00
  2.480746e+00    3.205584e+00
  2.496621e+00    3.252735e+00
  2.512497e+00    3.189601e+00
  2.528373e+00    3.153738e+00
  2.544248e+00    3.182506e+00
  2.560124e+00    3.254288e+00
  2.575999e+00    3.263074e+00
  2.591875e+00    3.294166e+00
  2.607750e+00    3.203473e+00
  2.623626e+00    3.139534e+00
  2.639502e+00    3.199620e+00
  2.655377e+00    3.196018e+00
  2.671253e+00    3.316830e+00
  2.687128e+00    3.378558e+00
  2.703004e+00    3.370374e+00
  2.718879e+00    3.286664e+00
  2.734755e+00    3.226610e+00
  2.750631e+00    3.289112e+00
  2.766506e+00    3.193196e+00
  2.782382e+00    3.095691e+00
  2.798257e+00    3.232756e+00
  2.814133e+00    3.287487e+00
  2.830008e+00    3.216429e+00
  2.845884e+00    3.288122e+00
  2.861760e+00    3.425110e+00
  2.877635e+00    3.387979e+00
  2.893511e+00    3.407235e+00
  2.909386e+00    3.445147e+00
  2.925262e+00    3.387517e+00
  2.941137e+00    3.284726e+00
  2.957013e+00    3.277481e+00
  2.972889e+00    3.358031e+00
  2.988764e+00    3.380031e+00
  3.004640e+00    3.293114e+00
  3.020515e+00    3.385981e+00
  3.036391e+00    3.374900e+00
  3.052266e+00    3.359232e+00
  3.068142e+00    3.376652e+00
  3.084018e+00    3.453535e+00
  3.099893e+00    3.494395e+00
  3.115769e+00    3.456001e+00
  3.131644e+00    3.315003e+00
  3.147520e+00    3.292345e+00
  3.163395e+00    3.302929e+00
  3.179271e+00    3.434532e+00
  3.195147e+00    3.469470e+00
  3.211022e+00    3.480156e+00
  3.226898e+00    3.411620e+00
  3.242773e+00    3.397666e+00
  3.258649e+00    3.268285e+00
  3.274525e+00    3.385859e+00
  3.290400e+00    3.349478e+00
  3.306276e+00    3.312338e+00
  3.322151e+00    3.351351e+00
  3.338027e+00    3.403498e+00
  3.353902e+00    3.402484e+00
  3.369778e+00    3.370844e+00
  3.385654e+00    3.333501e+00
  3.401529e+00    3.303136e+00
  3.417405e+00    3.413001e+00
  3.433280e+00    3.445110e+00
  3.449156e+00    3.355700e+00
  3.465031e+00    3.516793e+00
  3.480907e+00    3.447293e+00
  3.496783e+00    3.513688e+00
  3.512658e+00    3.501022e+00
  3.528534e+00    3.486636e+00
  3.544409e+00    3.517009e+00
  3.560285e+00    3.549565e+00
  3.576160e+00    3.446793e+00
  3.592036e+00    3.491369e+00
  3.607912e+00    3.509533e+00
  3.623787e+00    3.528363e+00
  3.639663e+00    3.512638e+00
  3.655538e+00    3.421424e+00
  3.671414e+00    3.455611e+00
  3.687289e+00    3.534389e+00
  3.703165e+00    3.562126e+00
  3.719041e+00    3.509796e+00
  3.734916e+00    3.551050e+00
  3.750792e+00    3.522021e+00
  3.766667e+00    3.477087e+00
  3.782543e+00    3.464315e+00
  3.798418e+00    3.498017e+00
  3.814294e+00    3.440742e+00
  3.830170e+00    3.456732e+00
  3.846045e+00    3.513750e+00
  3.861921e+00    3.461585e+00
  3.877796e+00    3.438052e+00
  3.893672e+00    3.460011e+00
  3.909547e+00    3.606432e+00
  3.925423e+00    3.600186e+00
  3.941299e+00    3.499505e+00
  3.957174e+00    3.511970e+00
  3.973050e+00    3.498602e+00
  3.988925e+00    3.495570e+00
  4.004801e+00    3.432427e+00
  4.020676e+00    3.428721e+00
  4.036552e+00    3.428610e+00
  4.052428e+00    3.479246e+00
  4.068303e+00    3.524597e+00
  4.084179e+00    3.599576e+00
  4.100054e+00    3.639663e+00
  4.115930e+00    3.592383e+00
  4.131806e+00    3.475991e+00
  4.147681e+00    3.417412e+00
  4.163557e+00    3.529978e+00
  4.179432e+00    3.611729e+00
  4.195308e+00    3.627108e+00
  4.211183e+00    3.509931e+00
  4.227059e+00    3.467476e+00
  4.242935e+00    3.602870e+00
  4.258810e+00    3.673927e+00
  4.274686e+00    3.663662e+00
  4.290561e+00    3.630019e+00
  4.306437e+00    3.551705e+00
  4.322312e+00    3.536780e+00
  4.338188e+00    3.560994e+00
  4.354064e+00    3.661619e+00
  4.369939e+00    3.620298e+00
  4.385815e+00    3.483428e+00
  4.401690e+00    3.563766e+00
  4.417566e+00    3.627265e+00
  4.433441e+00    3.569242e+00
  4.449317e+00    3.611498e+00
  4.465193e+00    3.609602e+00
  4.481068e+00    3.582729e+00
  4.496944e+00    3.563625e+00
  4.512819e+00    3.538249e+00
  4.528695e+00    3.577463e+00
  4.544570e+00    3.590311e+00
  4.560446e+00    3.622204e+00
  4.576322e+00    3.677443e+00
  4.592197e+00    3.680639e+00
  4.608073e+00    3.669061e+00
  4.623948e+00    3.694650e+00
  4.639824e+00    3.710330e+00
  4.655699e+00    3.639462e+00
  4.671575e+00    3.638262e+00
  4.687451e+00    3.611059e+00
  4.703326e+00    3.602729e+00
  4.719202e+00    3.628743e+00
  4.735077e+00    3.715140e+00
  4.750953e+00    3.799061e+00
  4.766828e+00    3.659029e+00
  4.782704e+00    3.549340e+00
  4.798580e+00    3.554786e+00
  4.814455e+00    3.616827e+00
  4.830331e+00    3.751289e+00
  4.846206e+00    3.694212e+00
  4.862082e+00    3.686755e+00
  4.877957e+00    3.673735e+00
  4.893833e+00    3.623740e+00
  4.909709e+00    3.675043e+00
  4.925584e+00    3.596865e+00
  4.941460e+00    3.660101e+00
  4.957335e+00    3.724597e+00
  4.973211e+00    3.736831e+00
  4.989086e+00    3.653508e+00
  5.004962e+00    3.589385e+00
  5.020838e+00    3.686366e+00
  5.036713e+00    3.676627e+00
  5.052589e+00    3.638118e+00
  5.068464e+00    3.639907e+00
  5.084340e+00    3.661563e+00
  5.100216e+00    3.642555e+00
  5.116091e+00    3.614161e+00
  5.131967e+00    3.613890e+00
  5.147842e+00    3.710447e+00
  5.163718e+00    3.640683e+00
  5.179593e+00    3.603981e+00
  5.195469e+00    3.596147e+00
  5.211345e+00    3.619049e+00
  5.227220e+00    3.599125e+00
  5.243096e+00    3.575934e+00
  5.258971e+00    3.633605e+00
  5.274847e+00    3.638947e+00
  5.290722e+00    3.593800e+00
  5.306598e+00    3.725913e+00
  5.322474e+00    3.685451e+00
  5.338349e+00    3.687064e+00
  5.354225e+00    3.645191e+00
  5.370100e+00    3.590320e+00
  5.385976e+00    3.672975e+00
  5.401851e+00    3.678699e+00
  5.417727e+00    3.702036e+00
  5.433603e+00    3.674031e+00
  5.449478e+00    3.604464e+00
  5.465354e+00    3.616979e+00
  5.481229e+00    3.705624e+00
  5.497105e+00    3.595646e+00
  5.512980e+00    3.626715e+00
  5.528856e+00    3.583996e+00
  5.544732e+00    3.571122e+00
  5.560607e+00    3.511131e+00
  5.576483e+00    3.474652e+00
  5.592358e+00    3.517323e+00
  5.608234e+00    3.574558e+00
  5.624109e+00    3.651429e+00
  5.639985e+00    3.624056e+00
  5.655861e+00    3.503793e+00
  5.671736e+00    3.566461e+00
  5.687612e+00    3.593293e+00
  5.703487e+00    3.568169e+00
  5.719363e+00    3.536032e+00
  5.735238e+00    3.579889e+00
  5.751114e+00    3.551586e+00
  5.766990e+00    3.487036e+00
  5.782865e+00    3.538972e+00
  5.798741e+00    3.570190e+00
  5.814616e+00    3.549539e+00
  5.830492e+00    3.561799e+00
  5.846367e+00    3.559564e+00
  5.862243e+00    3.586140e+00
  5.878119e+00    3.526606e+00
  5.893994e+00    3.609915e+00
  5.909870e+00    3.615379e+00
  5.925745e+00    3.559408e+00
  5.941621e+00    3.493576e+00
  5.957497e+00    3.530316e+00
  5.973372e+00    3.501946e+00
  5.989248e+00    3.569326e+00
  6.005123e+00    3.644604e+00
  6.020999e+00    3.553119e+00
  6.036874e+00    3.550382e+00
  6.052750e+00    3.548885e+00
  6.068626e+00    3.656602e+00
  6.084501e+00    3.596805e+00
  6.100377e+00    3.511033e+00
  6.116252e+00    3.650487e+00
  6.132128e+00    3.615163e+00
  6.148003e+00    3.584051e+00
  6.163879e+00    3.561072e+00
  6.179755e+00    3.636091e+00
  6.195630e+00    3.612131e+00
  6.211506e+00    3.486881e+00
  6.227381e+00    3.485837e+00
  6.243257e+00    3.573510e+00
  6.259132e+00    3.502726e+00
  6.275008e+00    3.540143e+00
  6.290884e+00    3.597786e+00
  6.306759e+00    3.512487e+00
  6.322635e+00    3.497743e+00
  6.338510e+00    3.549263e+00
  6.354386e+00    3.527190e+00
  6.370261e+00    3.571728e+00
  6.386137e+00    3.546187e+00
  6.402013e+00    3.537831e+00
  6.417888e+00    3.568596e+00
  6.433764e+00    3.570139e+00
  6.449639e+00    3.559574e+00
  6.465515e+00    3.589611e+00
  6.481390e+00    3.577889e+00
  6.497266e+00    3.482884e+00
  6.513142e+00    3.513887e+00
  6.529017e+00    3.499390e+00
  6.544893e+00    3.498971e+00
  6.560768e+00    3.622750e+00
  6.576644e+00    3.558218e+00
  6.592519e+00    3.537141e+00
  6.608395e+00    3.598704e+00
  6.624271e+00    3.595773e+00
  6.640146e+00    3.613030e+00
  6.656022e+00    3.585883e+00
  6.671897e+00    3.568677e+00
  6.687773e+00    3.599183e+00
  6.703648e+00    3.632050e+00
  6.719524e+00    3.598427e+00
  6.735400e+00    3.516566e+00
  6.751275e+00    3.538557e+00
  6.767151e+00    3.595104e+00
  6.783026e+00    3.561953e+00
  6.798902e+00    3.605664e+00
  6.814777e+00    3.481772e+00
  6.830653e+00    3.472847e+00
  6.846529e+00    3.529137e+00
  6.862404e+00    3.564894e+00
  6.878280e+00    3.511494e+00
  6.894155e+00    3.459100e+00
  6.910031e+00    3.483884e+00
  6.925907e+00    3.503314e+00
  6.941782e+00    3.512357e+00
  6.957658e+00    3.544132e+00
  6.973533e+00    3.521503e+00
  6.989409e+00    3.461757e+00
  7.005284e+00    3.517112e+00
  7.021160e+00    3.469851e+00
  7.037036e+00    3.457849e+00
  7.052911e+00    3.437369e+00
  7.068787e+00    3.496282e+00
  7.084662e+00    3.566737e+00
  7.100538e+00    3.480325e+00
  7.116413e+00    3.477950e+00
  7.132289e+00    3.529659e+00
  7.148165e+00    3.512027e+00
  7.164040e+00    3.511592e+00
  7.179916e+00    3.492218e+00
  7.195791e+00    3.535328e+00
  7.211667e+00    3.579601e+00
  7.227542e+00    3.530171e+00
  7.243418e+00    3.566642e+00
  7.259294e+00    3.547546e+00
  7.275169e+00    3.513231e+00
  7.291045e+00    3.480473e+00
  7.306920e+00    3.505599e+00
  7.322796e+00    3.489589e+00
  7.338671e+00    3.439540e+00
  7.354547e+00    3.454792e+00
  7.370423e+00    3.555112e+00
  7.386298e+00    3.591456e+00
  7.402174e+00    3.509665e+00
  7.418049e+00    3.535897e+00
  7.433925e+00    3.536307e+00
  7.449800e+00    3.523786e+00
  7.465676e+00    3.473871e+00
  7.481552e+00    3.466624e+00
  7.497427e+00    3.451350e+00
  7.513303e+00    3.424839e+00
  7.529178e+00    3.467854e+00
  7.545054e+00    3.499293e+00
  7.560929e+00    3.538408e+00
  7.576805e+00    3.458803e+00
  7.592681e+00    3.464518e+00
  7.608556e+00    3.463057e+00
  7.624432e+00    3.438074e+00
  7.640307e+00    3.440876e+00
  7.656183e+00    3.524656e+00
  7.672058e+00    3.512613e+00
  7.687934e+00    3.471605e+00
  7.703810e+00    3.431264e+00
  7.719685e+00    3.393895e+00
  7.735561e+00    3.423038e+00
  7.751436e+00    3.492459e+00
  7.767312e+00    3.465634e+00
  7.783187e+00    3.499226e+00
  7.799063e+00    3.483156e+00
  7.814939e+00    3.478998e+00
  7.830814e+00    3.413394e+00
  7.846690e+00    3.426261e+00
  7.862565e+00    3.407753e+00
  7.878441e+00    3.405336e+00
  7.894317e+00    3.432306e+00
  7.910192e+00    3.495157e+00
  7.926068e+00    3.430638e+00
  7.941943e+00    3.490983e+00
  7.957819e+00    3.455002e+00
  7.973694e+00    3.452833e+00
  7.989570e+00    3.493505e+00
  8.005446e+00    3.432360e+00
  8.021321e+00    3.404564e+00
  8.037197e+00    3.443288e+00
  8.053072e+00    3.399656e+00
  8.068948e+00    3.365651e+00
  8.084823e+00    3.402109e+00
  8.100699e+00    3.439999e+00
  8.116575e+00    3.450768e+00
  8.132450e+00    3.446445e+00
  8.148326e+00    3.449492e+00
  8.164201e+00    3.445095e+00
  8.180077e+00    3.476957e+00
  8.195952e+00    3.421245e+00
  8.211828e+00    3.444467e+00
  8.227704e+00    3.454386e+00
  8.243579e+00    3.450961e+00
  8.259455e+00    3.449111e+00
  8.275330e+00    3.418107e+00
  8.291206e+00    3.456367e+00
  8.307081e+00    3.425262e+00
  8.322957e+00    3.459528e+00
  8.338833e+00    3.473365e+00
  8.354708e+00    3.437045e+00
  8.370584e+00    3.401955e+00
  8.386459e+00    3.369362e+00
  8.402335e+00    3.451144e+00
  8.418210e+00    3.420352e+00
  8.434086e+00    3.415429e+00
  8.449962e+00    3.342241e+00
  8.465837e+00    3.353470e+00
  8.481713e+00    3.428133e+00
  8.497588e+00    3.367200e+00
  8.513464e+00    3.358705e+00
  8.529339e+00    3.397177e+00
  8.545215e+00    3.395531e+00
  8.561091e+00    3.325786e+00
  8.576966e+00    3.302186e+00
  8.592842e+00    3.330935e+00
  8.608717e+00    3.394830e+00
  8.624593e+00    3.363712e+00
  8.640468e+00    3.382893e+00
  8.656344e+00    3.343495e+00
  8.672220e+00    3.295011e+00
  8.688095e+00    3.319385e+00
  8.703971e+00    3.303096e+00
  8.719846e+00    3.278940e+00
  8.735722e+00    3.292601e+00
  8.751598e+00    3.349162e+00
  8.767473e+00    3.368946e+00
  8.783349e+00    3.257960e+00
  8.799224e+00    3.260424e+00
  8.815100e+00    3.324198e+00
  8.830975e+00    3.298916e+00
  8.846851e+00    3.300553e+00
  8.862727e+00    3.273432e+00
  8.878602e+00    3.273534e+00
  8.894478e+00    3.270503e+00
  8.910353e+00    3.298158e+00
  8.926229e+00    3.327598e+00
  8.942104e+00    3.338107e+00
  8.957980e+00    3.334305e+00
  8.973856e+00    3.292018e+00
  8.989731e+00    3.276204e+00
  9.005607e+00    3.291149e+00
  9.021482e+00    3.239759e+00
  9.037358e+00    3.261692e+00
  9.053233e+00    3.296887e+00
  9.069109e+00    3.272556e+00
  9.084985e+00    3.226700e+00
  9.100860e+00    3.319506e+00
  9.116736e+00    3.259721e+00
  9.132611e+00    3.223526e+00
  9.148487e+00    3.280295e+00
  9.164362e+00    3.256887e+00
  9.180238e+00    3.301140e+00
  9.196114e+00    3.283262e+00
  9.211989e+00    3.258570e+00
  9.227865e+00    3.265061e+00
  9.243740e+00    3.235976e+00
  9.259616e+00    3.252750e+00
  9.275491e+00    3.287024e+00
  9.291367e+00    3.268265e+00
  9.307243e+00    3.202853e+00
  9.323118e+00    3.221503e+00
  9.338994e+00    3.206473e+00
  9.354869e+00    3.265910e+00
  9.370745e+00    3.244940e+00
  9.386620e+00    3.213173e+00
  9.402496e+00    3.213555e+00
  9.418372e+00    3.214018e+00
  9.434247e+00    3.251995e+00
  9.450123e+00    3.183001e+00
  9.465998e+00    3.188549e+00
  9.481874e+00    3.219616e+00
  9.497749e+00    3.241016e+00
  9.513625e+00    3.242452e+00
  9.529501e+00    3.255703e+00
  9.545376e+00    3.239626e+00
  9.561252e+00    3.238167e+00
  9.577127e+00    3.214273e+00
  9.593003e+00    3.159350e+00
  9.608878e+00    3.172104e+00
  9.624754e+00    3.219916e+00
  9.640630e+00    3.186640e+00
  9.656505e+00    3.213589e+00
  9.672381e+00    3.196138e+00
  9.688256e+00    3.131846e+00
  9.704132e+00    3.153494e+00
  9.720008e+00    3.169584e+00
  9.735883e+00    3.197189e+00
  9.751759e+00    3.158254e+00
  9.767634e+00    3.174254e+00
  9.783510e+00    3.147913e+00
  9.799385e+00    3.135643e+00
  9.815261e+00    3.111342e+00
  9.831137e+00    3.124589e+00
  9.847012e+00    3.124388e+00
  9.862888e+00    3.127668e+00
  9.878763e+00    3.126106e+00
  9.894639e+00    3.160811e+00
  9.910514e+00    3.110059e+00
  9.926390e+00    3.082558e+00
  9.942266e+00    3.079534e+00
  9.958141e+00    3.063083e+00
  9.974017e+00    3.054821e+00
  9.989892e+00    3.050068e+00
  1.000577e+01    3.089414e+00
  1.002164e+01    3.107525e+00
  1.003752e+01    3.127954e+00
  1.005339e+01    3.118750e+00
  1.006927e+01    3.139861e+00
  1.008515e+01    3.144536e+00
  1.010102e+01    3.138339e+00
  1.011690e+01    3.083289e+00
  1.013277e+01    3.114798e+00
  1.014865e+01    3.116418e+00
  1.016452e+01    3.097423e+00
  1.018040e+01    3.118244e+00
  1.019627e+01    3.012084e+00
  1.021215e+01    3.055228e+00
  1.022803e+01    3.043024e+00
  1.024390e+01    3.041521e+00
  1.025978e+01    3.058630e+00
  1.027565e+01    3.047984e+00
  1.029153e+01    3.058062e+00
  1.030740e+01    3.063770e+00
  1.032328e+01    3.015221e+00
  1.033915e+01    3.038298e+00
  1.035503e+01    3.058050e+00
  1.037091e+01    3.053227e+00
  1.038678e+01    3.026480e+00
  1.040266e+01    3.020746e+00
  1.041853e+01    3.092217e+00
  1.043441e+01    3.056104e+00
  1.045028e+01    2.983492e+00
  1.046616e+01    3.070029e+00
  1.048204e+01    3.092092e+00
  1.049791e+01    3.012057e+00
  1.051379e+01    3.024900e+00
  1.052966e+01    2.993588e+00
  1.054554e+01    3.055836e+00
  1.056141e+01    3.020819e+00
  1.057729e+01    2.965042e+00
  1.059316e+01    2.961290e+00
  1.060904e+01    3.019622e+00
  1.062492e+01    3.022706e+00
  1.064079e+01    2.934964e+00
  1.065667e+01    2.963862e+00
  1.067254e+01    2.957775e+00
  1.068842e+01    2.982132e+00
  1.070429e+01    3.005262e+00
  1.072017e+01    2.965258e+00
  1.073604e+01    2.968572e+00
  1.075192e+01    2.985080e+00
  1.076780e+01    2.985130e+00
  1.078367e+01    2.998896e+00
  1.079955e+01    2.937761e+00
  1.081542e+01    2.921281e+00
  1.083130e+01    2.894455e+00
  1.084717e+01    2.972674e+00
  1.086305e+01    3.009655e+00
  1.087892e+01    2.954946e+00
  1.089480e+01    2.958379e+00
  1.091068e+01    2.944597e+00
  1.092655e+01    2.922520e+00
  1.094243e+01    2.928167e+00
  1.095830e+01    2.892037e+00
  1.097418e+01    2.870412e+00
  1.099005e+01    2.855601e+00
  1.100593e+01    2.886430e+00
  1.102180e+01    2.914611e+00
  1.103768e+01    2.933358e+00
  1.105356e+01    2.890118e+00
  1.106943e+01    2.885531e+00
  1.108531e+01    2.952114e+00
  1.110118e+01    2.908604e+00
  1.111706e+01    2.891882e+00
  1.113293e+01    2.902578e+00
  1.114881e+01    2.896326e+00
  1.116468e+01    2.897154e+00
  1.118056e+01    2.858186e+00
  1.119644e+01    2.838655e+00
  1.121231e+01    2.828024e+00
  1.122819e+01    2.843734e+00
  1.124406e+01    2.836538e+00
  1.125994e+01    2.831525e+00
  1.127581e+01    2.835010e+00
  1.129169e+01    2.829320e+00
  1.130756e+01    2.841996e+00
  1.132344e+01    2.839929e+00
  1.133932e+01    2.857474e+00
  1.135519e+01    2.863163e+00
  1.137107e+01    2.814302e+00
  1.138694e+01    2.829327e+00
  1.140282e+01    2.868392e+00
  1.141869e+01    2.819480e+00
  1.143457e+01    2.797602e+00
  1.145045e+01    2.760675e+00
  1.146632e+01    2.761665e+00
  1.148220e+01    2.766814e+00
  1.149807e+01    2.801874e+00
  1.151395e+01    2.772754e+00
  1.152982e+01    2.746679e+00
  1.154570e+01    2.780209e+00
  1.156157e+01    2.789502e+00
  1.157745e+01    2.809600e+00
  1.159333e+01    2.811883e+00
  1.160920e+01    2.827919e+00
  1.162508e+01    2.795810e+00
  1.164095e+01    2.764522e+00
  1.165683e+01    2.782976e+00
  1.167270e+01    2.783215e+00
  1.168858e+01    2.816232e+00
  1.170445e+01    2.780632e+00
  1.172033e+01    2.747367e+00
  1.173621e+01    2.707270e+00
  1.175208e+01    2.728996e+00
  1.176796e+01    2.729632e+00
  1.178383e+01    2.745767e+00
  1.179971e+01    2.718906e+00
  1.181558e+01    2.730825e+00
  1.183146e+01    2.704421e+00
  1.184733e+01    2.773507e+00
  1.186321e+01    2.737877e+00
  1.187909e+01    2.671662e+00
  1.189496e+01    2.707697e+00
  1.191084e+01    2.717275e+00
  1.192671e+01    2.714416e+00
  1.194259e+01    2.715496e+00
  1.195846e+01    2.717137e+00
  1.197434e+01    2.776123e+00
  1.199021e+01    2.792679e+00
  1.200609e+01    2.760938e+00
  1.202197e+01    2.695609e+00
  1.203784e+01    2.696599e+00
  1.205372e+01    2.690535e+00
  1.206959e+01    2.675502e+00
  1.208547e+01    2.722280e+00
  1.210134e+01    2.726941e+00
  1.211722e+01    2.688284e+00
  1.213309e+01    2.687423e+00
  1.214897e+01    2.694317e+00
  1.216485e+01    2.709248e+00
  1.218072e+01    2.719613e+00
  1.219660e+01    2.671278e+00
  1.221247e+01    2.705470e+00
  1.222835e+01    2.674685e+00
  1.224422e+01    2.707568e+00
  1.226010e+01    2.684834e+00
  1.227597e+01    2.702893e+00
  1.229185e+01    2.681657e+00
  1.230773e+01    2.708971e+00
  1.232360e+01    2.707128e+00
  1.233948e+01    2.741635e+00
  1.235535e+01    2.725948e+00
  1.237123e+01    2.726615e+00
  1.238710e+01    2.743575e+00
  1.240298e+01    2.733643e+00
  1.241886e+01    2.713924e+00
  1.243473e+01    2.736395e+00
  1.245061e+01    2.707163e+00
  1.246648e+01    2.678855e+00
  1.248236e+01    2.674638e+00
  1.249823e+01    2.683805e+00
  1.251411e+01    2.694565e+00
  1.252998e+01    2.694535e+00
  1.254586e+01    2.762992e+00
  1.256174e+01    2.710288e+00
  1.257761e+01    2.763615e+00
  1.259349e+01    2.729336e+00
  1.260936e+01    2.734720e+00
  1.262524e+01    2.724636e+00
  1.264111e+01    2.724837e+00
  1.265699e+01    2.778821e+00
  1.267286e+01    2.808330e+00
  1.268874e+01    2.823826e+00
  1.270462e+01    2.833539e+00
  1.272049e+01    2.868274e+00
  1.273637e+01    2.848850e+00
  1.275224e+01    2.905474e+00
  1.276812e+01    2.951533e+00
  1.278399e+01    2.910095e+00
  1.279987e+01    2.986509e+00
  1.281574e+01    3.042971e+00
  1.283162e+01    3.146676e+00
  1.284750e+01    3.219467e+00
  1.286337e+01    3.277988e+00
  1.287925e+01    3.414570e+00
  1.289512e+01    3.551078e+00
  1.291100e+01    3.654674e+00
  1.292687e+01    3.843335e+00
  1.294275e+01    4.088827e+00
  1.295862e+01    4.349015e+00
  1.297450e+01    4.789781e+00
  1.299038e+01    5.270809e+00
  1.300625e+01    5.939852e+00
  1.302213e+01    6.784742e+00
  1.303800e+01    7.715693e+00
  1.305388e+01    8.904301e+00
  1.306975e+01    1.024283e+01
  1.308563e+01    1.161062e+01
  1.310150e+01    1.276445e+01
  1.311738e+01    1.390305e+01
  1.313326e+01    1.487675e+01
  1.314913e+01    1.571612e+01
  1.316501e+01    1.626530e+01
  1.318088e+01    1.620621e+01
  1.319676e+01    1.562147e+01
  1.321263e+01    1.432453e+01
  1.322851e+01    1.253013e+01
  1.324438e+01    1.068270e+01
  1.326026e+01    9.063800e+00
  1.327614e+01    7.778314e+00
  1.329201e+01    6.785388e+00
  1.330789e+01    5.881057e+00
  1.332376e+01    5.290946e+00
  1.333964e+01    4.819537e+00
  1.335551e+01    4.444936e+00
  1.337139e+01    4.122611e+00
  1.338727e+01    3.846307e+00
  1.340314e+01    3.642502e+00
  1.341902e+01    3.494195e+00
  1.343489e+01    3.323224e+00
  1.345077e+01    3.229208e+00
  1.346664e+01    3.156405e+00
  1.348252e+01    3.062130e+00
  1.349839e+01    2.929199e+00
  1.351427e+01    2.918844e+00
  1.353015e+01    2.902477e+00
  1.354602e+01    2.877843e+00
  1.356190e+01    2.796954e+00
  1.357777e+01    2.722376e+00
  1.359365e+01    2.644843e+00
  1.360952e+01    2.664930e+00
  1.362540e+01    2.650558e+00
  1.364127e+01    2.629345e+00
  1.365715e+01    2.630268e+00
  1.367303e+01    2.560910e+00
  1.368890e+01    2.575061e+00
  1.370478e+01    2.544128e+00
  1.372065e+01    2.534535e+00
  1.373653e+01    2.569463e+00
  1.375240e+01    2.535841e+00
  1.376828e+01    2.498626e+00
  1.378415e+01    2.458830e+00
  1.380003e+01    2.438680e+00
  1.381591e+01    2.485514e+00
  1.383178e+01    2.482513e+00
  1.384766e+01    2.466394e+00
  1.386353e+01    2.437010e+00
  1.387941e+01    2.420483e+00
  1.389528e+01    2.406873e+00
  1.391116e+01    2.380247e+00
  1.392703e+01    2.402333e+00
  1.394291e+01    2.417262e+00
  1.395879e+01    2.365880e+00
  1.397466e+01    2.356566e+00
  1.399054e+01    2.381284e+00
  1.400641e+01    2.336015e+00
  1.402229e+01    2.361947e+00
  1.403816e+01    2.318017e+00
  1.405404e+01    2.344731e+00
  1.406991e+01    2.385369e+00
  1.408579e+01    2.354226e+00
  1.410167e+01    2.308362e+00
  1.411754e+01    2.286746e+00
  1.413342e+01    2.303067e+00
  1.414929e+01    2.321696e+00
  1.416517e+01    2.324980e+00
  1.418104e+01    2.312904e+00
  1.419692e+01    2.297289e+00
  1.421279e+01    2.312041e+00
  1.422867e+01    2.314847e+00
  1.424455e+01    2.244321e+00
  1.426042e+01    2.250405e+00
  1.427630e+01    2.265628e+00
  1.429217e+01    2.243953e+00
  1.430805e+01    2.253267e+00
  1.432392e+01    2.253312e+00
  1.433980e+01    2.249846e+00
  1.435568e+01    2.269552e+00
  1.437155e+01    2.260867e+00
  1.438743e+01    2.277968e+00
  1.440330e+01    2.283110e+00
  1.441918e+01    2.249059e+00
  1.443505e+01    2.238617e+00
  1.445093e+01    2.225841e+00
  1.446680e+01    2.223574e+00
  1.448268e+01    2.236108e+00
  1.449856e+01    2.234368e+00
  1.451443e+01    2.271086e+00
  1.453031e+01    2.220087e+00
  1.454618e+01    2.190412e+00
  1.456206e+01    2.182393e+00
  1.457793e+01    2.192236e+00
  1.459381e+01    2.192683e+00
  1.460968e+01    2.202751e+00
  1.462556e+01    2.195665e+00
  1.464144e+01    2.220865e+00
  1.465731e+01    2.252215e+00
  1.467319e+01    2.218017e+00
  1.468906e+01    2.214289e+00
  1.470494e+01    2.223439e+00
  1.472081e+01    2.214789e+00
  1.473669e+01    2.149725e+00
  1.475256e+01    2.167795e+00
  1.476844e+01    2.166867e+00
  1.478432e+01    2.192131e+00
  1.480019e+01    2.226586e+00
  1.481607e+01    2.225527e+00
  1.483194e+01    2.227639e+00
  1.484782e+01    2.241340e+00
  1.486369e+01    2.220291e+00
  1.487957e+01    2.231558e+00
  1.489544e+01    2.243586e+00
  1.491132e+01    2.240061e+00
  1.492720e+01    2.245574e+00
  1.494307e+01    2.275396e+00
  1.495895e+01    2.294590e+00
  1.497482e+01    2.292846e+00
  1.499070e+01    2.367279e+00
  1.500657e+01    2.445235e+00
  1.502245e+01    2.528052e+00
  1.503832e+01    2.606210e+00
  1.505420e+01    2.698549e+00
  1.507008e+01    2.824230e+00
  1.508595e+01    3.022280e+00
  1.510183e+01    3.267615e+00
  1.511770e+01    3.548692e+00
  1.513358e+01    3.868885e+00
  1.514945e+01    4.172621e+00
  1.516533e+01    4.540155e+00
  1.518120e+01    4.875961e+00
  1.519708e+01    5.239424e+00
  1.521296e+01    5.455333e+00
  1.522883e+01    5.579921e+00
  1.524471e+01    5.729209e+00
  1.526058e+01    5.739408e+00
  1.527646e+01    5.673370e+00
  1.529233e+01    5.467838e+00
  1.530821e+01    5.139070e+00
  1.532409e+01    4.632596e+00
  1.533996e+01    4.163624e+00
  1.535584e+01    3.756129e+00
  1.537171e+01    3.409726e+00
  1.538759e+01    3.104332e+00
  1.540346e+01    2.906599e+00
  1.541934e+01    2.733070e+00
  1.543521e+01    2.614912e+00
  1.545109e+01    2.550277e+00
  1.546697e+01    2.458118e+00
  1.548284e+01    2.384258e+00
  1.549872e+01    2.287510e+00
  1.551459e+01    2.225131e+00
  1.553047e+01    2.156743e+00
  1.554634e+01    2.163476e+00
  1.556222e+01    2.164255e+00
  1.557809e+01    2.119581e+00
  1.559397e+01    2.101686e+00
  1.560985e+01    2.057715e+00
  1.562572e+01    2.067673e+00
  1.564160e+01    2.054729e+00
  1.565747e+01    2.076927e+00
  1.567335e+01    2.040919e+00
  1.568922e+01    1.985348e+00
  1.570510e+01    1.968748e+00
  1.572097e+01    1.986608e+00
  1.573685e+01    1.951490e+00
  1.575273e+01    2.014047e+00
  1.576860e+01    1.983397e+00
  1.578448e+01    1.927614e+00
  1.580035e+01    1.910778e+00
  1.581623e+01    1.942702e+00
  1.583210e+01    1.918722e+00
  1.584798e+01    1.935098e+00
  1.586385e+01    1.945637e+00
  1.587973e+01    1.925298e+00
  1.589561e+01    1.902045e+00
  1.591148e+01    1.902816e+00
  1.592736e+01    1.871584e+00
  1.594323e+01    1.854538e+00
  1.595911e+01    1.869229e+00
  1.597498e+01    1.880825e+00
  1.599086e+01    1.875043e+00
  1.600673e+01    1.865481e+00
  1.602261e+01    1.847988e+00
  1.603849e+01    1.856834e+00
  1.605436e+01    1.848347e+00
  1.607024e+01    1.851763e+00
  1.608611e+01    1.901793e+00
  1.610199e+01    1.867785e+00
  1.611786e+01    1.852889e+00
  1.613374e+01    1.845026e+00
  1.614961e+01    1.834304e+00
  1.616549e+01    1.830405e+00
  1.618137e+01    1.836961e+00
  1.619724e+01    1.825673e+00
  1.621312e+01    1.837369e+00
  1.622899e+01    1.824029e+00
  1.624487e+01    1.826193e+00
  1.626074e+01    1.840392e+00
  1.627662e+01    1.825298e+00
  1.629250e+01    1.813993e+00
  1.630837e+01    1.797003e+00
  1.632425e+01    1.754369e+00
  1.634012e+01    1.763662e+00
  1.635600e+01    1.784156e+00
  1.637187e+01    1.801809e+00
  1.638775e+01    1.803155e+00
  1.640362e+01    1.783582e+00
  1.641950e+01    1.781667e+00
  1.643538e+01    1.795221e+00
  1.645125e+01    1.752935e+00
  1.646713e+01    1.762487e+00
  1.648300e+01    1.761820e+00
  1.649888e+01    1.731898e+00
  1.651475e+01    1.741010e+00
  1.653063e+01    1.756622e+00
  1.654650e+01    1.736877e+00
  1.656238e+01    1.742557e+00
  1.657826e+01    1.720408e+00
  1.659413e+01    1.745418e+00
  1.661001e+01    1.735650e+00
  1.662588e+01    1.716130e+00
  1.664176e+01    1.737885e+00
  1.665763e+01    1.740764e+00
  1.667351e+01    1.711357e+00
  1.668938e+01    1.727423e+00
  1.670526e+01    1.748555e+00
  1.672114e+01    1.716068e+00
  1.673701e+01    1.705679e+00
  1.675289e+01    1.725921e+00
  1.676876e+01    1.706502e+00
  1.678464e+01    1.687962e+00
  1.680051e+01    1.692320e+00
  1.681639e+01    1.701466e+00
  1.683226e+01    1.685959e+00
  1.684814e+01    1.705563e+00
  1.686402e+01    1.734401e+00
  1.687989e+01    1.697342e+00
  1.689577e+01    1.668450e+00
  1.691164e+01    1.669407e+00
  1.692752e+01    1.682170e+00
  1.694339e+01    1.661889e+00
  1.695927e+01    1.665586e+00
  1.697514e+01    1.686204e+00
  1.699102e+01    1.680681e+00
  1.700690e+01    1.670888e+00
  1.702277e+01    1.662422e+00
  1.703865e+01    1.685302e+00
  1.705452e+01    1.697443e+00
  1.707040e+01    1.664954e+00
  1.708627e+01    1.661226e+00
  1.710215e+01    1.638226e+00
  1.711802e+01    1.626239e+00
  1.713390e+01    1.618733e+00
  1.714978e+01    1.643070e+00
  1.716565e+01    1.630720e+00
  1.718153e+01    1.642934e+00
  1.719740e+01    1.634950e+00
  1.721328e+01    1.641402e+00
  1.722915e+01    1.636515e+00
  1.724503e+01    1.616699e+00
  1.726091e+01    1.633128e+00
  1.727678e+01    1.643289e+00
  1.729266e+01    1.615873e+00
  1.730853e+01    1.618624e+00
  1.732441e+01    1.613714e+00
  1.734028e+01    1.607978e+00
  1.735616e+01    1.607407e+00
  1.737203e+01    1.612262e+00
  1.738791e+01    1.609398e+00
  1.740379e+01    1.592467e+00
  1.741966e+01    1.606760e+00
  1.743554e+01    1.584256e+00
  1.745141e+01    1.611202e+00
  1.746729e+01    1.613493e+00
  1.748316e+01    1.608122e+00
  1.749904e+01    1.622115e+00
  1.751491e+01    1.594325e+00
  1.753079e+01    1.569542e+00
  1.754667e+01    1.563500e+00
  1.756254e+01    1.563488e+00
  1.757842e+01    1.559070e+00
  1.759429e+01    1.581585e+00
  1.761017e+01    1.558868e+00
  1.762604e+01    1.573604e+00
  1.764192e+01    1.580234e+00
  1.765779e+01    1.570731e+00
  1.767367e+01    1.563515e+00
  1.768955e+01    1.566422e+00
  1.770542e+01    1.533504e+00
  1.772130e+01    1.540469e+00
  1.773717e+01    1.561579e+00
  1.775305e+01    1.551629e+00
  1.776892e+01    1.553213e+00
  1.778480e+01    1.567568e+00
  1.780067e+01    1.543505e+00
  1.781655e+01    1.523679e+00
  1.783243e+01    1.558163e+00
  1.784830e+01    1.555553e+00
  1.786418e+01    1.555095e+00
  1.788005e+01    1.568030e+00
  1.789593e+01    1.565643e+00
  1.791180e+01    1.519430e+00
  1.792768e+01    1.519137e+00
  1.794355e+01    1.525390e+00
  1.795943e+01    1.523035e+00
  1.797531e+01    1.523942e+00
  1.799118e+01    1.506441e+00
  1.800706e+01    1.514348e+00
  1.802293e+01    1.499233e+00
  1.803881e+01    1.482670e+00
  1.805468e+01    1.490891e+00
  1.807056e+01    1.489789e+00
  1.808643e+01    1.488966e+00
  1.810231e+01    1.479627e+00
  1.811819e+01    1.464257e+00
  1.813406e+01    1.456833e+00
  1.814994e+01    1.482905e+00
  1.816581e+01    1.495817e+00
  1.818169e+01    1.504389e+00
  1.819756e+01    1.462192e+00
  1.821344e+01    1.491165e+00
  1.822932e+01    1.497622e+00
  1.824519e+01    1.466835e+00
  1.826107e+01    1.471986e+00
  1.827694e+01    1.441768e+00
  1.829282e+01    1.453623e+00
  1.830869e+01    1.472127e+00
  1.832457e+01    1.463348e+00
  1.834044e+01    1.451072e+00
  1.835632e+01    1.452054e+00
  1.837220e+01    1.433946e+00
  1.838807e+01    1.466136e+00
  1.840395e+01    1.472370e+00
  1.841982e+01    1.471581e+00
  1.843570e+01    1.465102e+00
  1.845157e+01    1.446403e+00
  1.846745e+01    1.433098e+00
  1.848332e+01    1.423286e+00
  1.849920e+01    1.434055e+00
  1.851508e+01    1.429542e+00
  1.853095e+01    1.442552e+00
  1.854683e+01    1.458816e+00
  1.856270e+01    1.429333e+00
  1.857858e+01    1.451330e+00
  1.859445e+01    1.436467e+00
  1.861033e+01    1.407970e+00
  1.862620e+01    1.389412e+00
  1.864208e+01    1.402769e+00
  1.865796e+01    1.397509e+00
  1.867383e+01    1.393038e+00
  1.868971e+01    1.417070e+00
  1.870558e+01    1.409384e+00
  1.872146e+01    1.410595e+00
  1.873733e+01    1.429554e+00
  1.875321e+01    1.411932e+00
  1.876908e+01    1.431702e+00
  1.878496e+01    1.408460e+00
  1.880084e+01    1.426306e+00
  1.881671e+01    1.426916e+00
  1.883259e+01    1.436338e+00
  1.884846e+01    1.407418e+00
  1.886434e+01    1.382831e+00
  1.888021e+01    1.392092e+00
  1.889609e+01    1.404319e+00
  1.891196e+01    1.385602e+00
  1.892784e+01    1.360945e+00
  1.894372e+01    1.374677e+00
  1.895959e+01    1.401438e+00
  1.897547e+01    1.382057e+00
  1.899134e+01    1.380847e+00
  1.900722e+01    1.380390e+00
  1.902309e+01    1.373628e+00
  1.903897e+01    1.352685e+00
  1.905484e+01    1.395904e+00
  1.907072e+01    1.419118e+00
  1.908660e+01    1.389163e+00
  1.910247e+01    1.366389e+00
  1.911835e+01    1.362859e+00
  1.913422e+01    1.363496e+00
  1.915010e+01    1.353733e+00
  1.916597e+01    1.351254e+00
  1.918185e+01    1.366194e+00
  1.919773e+01    1.349335e+00
  1.921360e+01    1.350575e+00
  1.922948e+01    1.348243e+00
  1.924535e+01    1.368165e+00
  1.926123e+01    1.370132e+00
  1.927710e+01    1.344020e+00
  1.929298e+01    1.352198e+00
  1.930885e+01    1.352427e+00
  1.932473e+01    1.335613e+00
  1.934061e+01    1.361222e+00
  1.935648e+01    1.359713e+00
  1.937236e+01    1.349225e+00
  1.938823e+01    1.335086e+00
  1.940411e+01    1.351263e+00
  1.941998e+01    1.357772e+00
  1.943586e+01    1.355616e+00
  1.945173e+01    1.340350e+00
  1.946761e+01    1.350242e+00
  1.948349e+01    1.329773e+00
  1.949936e+01    1.349307e+00
  1.951524e+01    1.340726e+00
  1.953111e+01    1.343248e+00
  1.954699e+01    1.336034e+00
  1.956286e+01    1.325253e+00
  1.957874e+01    1.318879e+00
  1.959461e+01    1.321983e+00
  1.961049e+01    1.323225e+00
  1.962637e+01    1.314660e+00
  1.964224e+01    1.316246e+00
  1.965812e+01    1.307865e+00
  1.967399e+01    1.312650e+00
  1.968987e+01    1.322802e+00
  1.970574e+01    1.292835e+00
  1.972162e+01    1.311984e+00
  1.973749e+01    1.322208e+00
  1.975337e+01    1.319147e+00
  1.976925e+01    1.303522e+00
  1.978512e+01    1.287762e+00
  1.980100e+01    1.304430e+00
  1.981687e+01    1.291959e+00
  1.983275e+01    1.283814e+00
  1.984862e+01    1.280504e+00
  1.986450e+01    1.276746e+00
  1.988037e+01    1.285228e+00
  1.989625e+01    1.274657e+00
  1.991213e+01    1.287887e+00
  1.992800e+01    1.279104e+00
  1.994388e+01    1.305602e+00
  1.995975e+01    1.310764e+00
  1.997563e+01    1.282109e+00
  1.999150e+01    1.293124e+00
  2.000738e+01    1.287606e+00
  2.002325e+01    1.279792e+00
  2.003913e+01    1.247257e+00
  2.005501e+01    1.261708e+00
  2.007088e+01    1.244602e+00
  2.008676e+01    1.260532e+00
  2.010263e+01    1.262745e+00
  2.011851e+01    1.253530e+00
  2.013438e+01    1.244264e+00
  2.015026e+01    1.261021e+00
  2.016614e+01    1.270497e+00
  2.018201e+01    1.267202e+00
  2.019789e+01    1.273817e+00
  2.021376e+01    1.263736e+00
  2.022964e+01    1.277177e+00
  2.024551e+01    1.259521e+00
  2.026139e+01    1.275349e+00
  2.027726e+01    1.264724e+00
  2.029314e+01    1.255295e+00
  2.030902e+01    1.276184e+00
  2.032489e+01    1.273500e+00
  2.034077e+01    1.252230e+00
  2.035664e+01    1.220609e+00
  2.037252e+01    1.226767e+00
  2.038839e+01    1.253686e+00
  2.040427e+01    1.252308e+00
  2.042014e+01    1.227074e+00
  2.043602e+01    1.240848e+00
  2.045190e+01    1.258279e+00
  2.046777e+01    1.273674e+00
  2.048365e+01    1.258253e+00
  2.049952e+01    1.245308e+00
  2.051540e+01    1.240729e+00
  2.053127e+01    1.245445e+00
  2.054715e+01    1.213356e+00
  2.056302e+01    1.210349e+00
  2.057890e+01    1.218593e+00
  2.059478e+01    1.250829e+00
  2.061065e+01    1.269313e+00
  2.062653e+01    1.260077e+00
  2.064240e+01    1.249818e+00
  2.065828e+01    1.231789e+00
  2.067415e+01    1.215971e+00
  2.069003e+01    1.236316e+00
  2.070590e+01    1.216070e+00
  2.072178e+01    1.215846e+00
  2.073766e+01    1.227613e+00
  2.075353e+01    1.230832e+00
  2.076941e+01    1.203521e+00
  2.078528e+01    1.250819e+00
  2.080116e+01    1.223725e+00
  2.081703e+01    1.232272e+00
  2.083291e+01    1.225630e+00
  2.084878e+01    1.222927e+00
  2.086466e+01    1.208186e+00
  2.088054e+01    1.204346e+00
  2.089641e+01    1.198816e+00
  2.091229e+01    1.218039e+00
  2.092816e+01    1.233467e+00
  2.094404e+01    1.232037e+00
  2.095991e+01    1.239316e+00
  2.097579e+01    1.244835e+00
  2.099166e+01    1.225312e+00
  2.100754e+01    1.215969e+00
  2.102342e+01    1.224045e+00
  2.103929e+01    1.219601e+00
  2.105517e+01    1.222137e+00
  2.107104e+01    1.237331e+00
  2.108692e+01    1.225812e+00
  2.110279e+01    1.226544e+00
  2.111867e+01    1.233908e+00
  2.113455e+01    1.251042e+00
  2.115042e+01    1.231921e+00
  2.116630e+01    1.231061e+00
  2.118217e+01    1.241979e+00
  2.119805e+01    1.242820e+00
  2.121392e+01    1.244229e+00
  2.122980e+01    1.256092e+00
  2.124567e+01    1.221972e+00
  2.126155e+01    1.270390e+00
  2.127743e+01    1.257485e+00
  2.129330e+01    1.257280e+00
  2.130918e+01    1.239314e+00
  2.132505e+01    1.266790e+00
  2.134093e+01    1.286741e+00
  2.135680e+01    1.285865e+00
  2.137268e+01    1.287929e+00
  2.138855e+01    1.284599e+00
  2.140443e+01    1.301200e+00
  2.142031e+01    1.296564e+00
  2.143618e+01    1.352051e+00
  2.145206e+01    1.356156e+00
  2.146793e+01    1.363416e+00
  2.148381e+01    1.430938e+00
  2.149968e+01    1.431718e+00
  2.151556e+01    1.424662e+00
  2.153143e+01    1.476092e+00
  2.154731e+01    1.514974e+00
  2.156319e+01    1.566378e+00
  2.157906e+01    1.624802e+00
  2.159494e+01    1.685332e+00
  2.161081e+01    1.745284e+00
  2.162669e+01    1.837857e+00
  2.164256e+01    1.977104e+00
  2.165844e+01    2.142038e+00
  2.167431e+01    2.294746e+00
  2.169019e+01    2.509370e+00
  2.170607e+01    2.813284e+00
  2.172194e+01    3.146684e+00
  2.173782e+01    3.529137e+00
  2.175369e+01    4.056134e+00
  2.176957e+01    4.646395e+00
  2.178544e+01    5.237695e+00
  2.180132e+01    5.851902e+00
  2.181719e+01    6.549036e+00
  2.183307e+01    7.180726e+00
  2.184895e+01    7.816582e+00
  2.186482e+01    8.435875e+00
  2.188070e+01    8.817916e+00
  2.189657e+01    8.965881e+00
  2.191245e+01    8.797423e+00
  2.192832e+01    8.253520e+00
  2.194420e+01    7.515637e+00
  2.196007e+01    6.548156e+00
  2.197595e+01    5.582813e+00
  2.199183e+01    4.783133e+00
  2.200770e+01    4.158324e+00
  2.202358e+01    3.586012e+00
  2.203945e+01    3.166834e+00
  2.205533e+01    2.814118e+00
  2.207120e+01    2.527208e+00
  2.208708e+01    2.316992e+00
  2.210296e+01    2.140534e+00
  2.211883e+01    1.985833e+00
  2.213471e+01    1.860264e+00
  2.215058e+01    1.750084e+00
  2.216646e+01    1.660341e+00
  2.218233e+01    1.585141e+00
  2.219821e+01    1.529044e+00
  2.221408e+01    1.502295e+00
  2.222996e+01    1.443806e+00
  2.224584e+01    1.408436e+00
  2.226171e+01    1.394034e+00
  2.227759e+01    1.358776e+00
  2.229346e+01    1.321175e+00
  2.230934e+01    1.299807e+00
  2.232521e+01    1.285588e+00
  2.234109e+01    1.259341e+00
  2.235696e+01    1.227797e+00
  2.237284e+01    1.227638e+00
  2.238872e+01    1.196610e+00
  2.240459e+01    1.182738e+00
  2.242047e+01    1.188420e+00
  2.243634e+01    1.182189e+00
  2.245222e+01    1.169588e+00
  2.246809e+01    1.153098e+00
  2.248397e+01    1.162308e+00
  2.249984e+01    1.138368e+00
  2.251572e+01    1.145845e+00
  2.253160e+01    1.138612e+00
  2.254747e+01    1.139101e+00
  2.256335e+01    1.138949e+00
  2.257922e+01    1.094860e+00
  2.259510e+01    1.106325e+00
  2.261097e+01    1.111784e+00
  2.262685e+01    1.085015e+00
  2.264272e+01    1.074500e+00
  2.265860e+01    1.077822e+00
  2.267448e+01    1.087983e+00
  2.269035e+01    1.103477e+00
  2.270623e+01    1.097903e+00
  2.272210e+01    1.091282e+00
  2.273798e+01    1.094282e+00
  2.275385e+01    1.056965e+00
  2.276973e+01    1.060770e+00
  2.278560e+01    1.082489e+00
  2.280148e+01    1.047137e+00
  2.281736e+01    1.035433e+00
  2.283323e+01    1.069825e+00
  2.284911e+01    1.055497e+00
  2.286498e+01    1.058006e+00
  2.288086e+01    1.048607e+00
  2.289673e+01    1.022962e+00
  2.291261e+01    1.011877e+00
  2.292848e+01    1.024046e+00
  2.294436e+01    1.026051e+00
  2.296024e+01    1.010057e+00
  2.297611e+01    1.028137e+00
  2.299199e+01    1.007016e+00
  2.300786e+01    1.031210e+00
  2.302374e+01    1.036355e+00
  2.303961e+01    1.017123e+00
  2.305549e+01    1.004483e+00
  2.307137e+01    9.937726e-01
  2.308724e+01    1.017306e+00
  2.310312e+01    1.014077e+00
  2.311899e+01    9.987995e-01
  2.313487e+01    9.916892e-01
  2.315074e+01    9.971948e-01
  2.316662e+01    1.004150e+00
  2.318249e+01    9.998280e-01
  2.319837e+01    9.733058e-01
  2.321425e+01    9.835847e-01
  2.323012e+01    9.775481e-01
  2.324600e+01    9.872320e-01
  2.326187e+01    9.829882e-01
  2.327775e+01    9.972611e-01
  2.329362e+01    9.838682e-01
  2.330950e+01    9.941680e-01
  2.332537e+01    9.874514e-01
  2.334125e+01    9.677930e-01
  2.335713e+01    9.861289e-01
  2.337300e+01    9.723123e-01
  2.338888e+01    9.724597e-01
  2.340475e+01    9.949514e-01
  2.342063e+01    1.006024e+00
  2.343650e+01    9.890632e-01
  2.345238e+01    9.484537e-01
  2.346825e+01    9.671938e-01
  2.348413e+01    9.753097e-01
  2.350001e+01    9.746382e-01
  2.351588e+01    9.496232e-01
  2.353176e+01    9.587939e-01
  2.354763e+01    9.727041e-01
  2.356351e+01    9.850174e-01
  2.357938e+01    9.672966e-01
  2.359526e+01    9.469536e-01
  2.361113e+01    9.713076e-01
  2.362701e+01    9.670477e-01
  2.364289e+01    9.657150e-01
  2.365876e+01    9.303582e-01
  2.367464e+01    9.236751e-01
  2.369051e+01    9.560564e-01
  2.370639e+01    9.392176e-01
  2.372226e+01    9.355655e-01
  2.373814e+01    9.267663e-01
  2.375401e+01    9.331231e-01
  2.376989e+01    9.250499e-01
  2.378577e+01    9.247724e-01
  2.380164e+01    9.154582e-01
  2.381752e+01    9.070402e-01
  2.383339e+01    9.256255e-01
  2.384927e+01    9.212285e-01
  2.386514e+01    9.285994e-01
  2.388102e+01    9.053287e-01
  2.389689e+01    8.915535e-01
  2.391277e+01    8.932456e-01
  2.392865e+01    8.882636e-01
  2.394452e+01    8.987672e-01
  2.396040e+01    9.093864e-01
  2.397627e+01    8.982213e-01
  2.399215e+01    8.803930e-01
  2.400802e+01    8.974153e-01
  2.402390e+01    8.914236e-01
  2.403978e+01    8.945637e-01
  2.405565e+01    8.865929e-01
  2.407153e+01    8.874690e-01
  2.408740e+01    8.876557e-01
  2.410328e+01    8.705881e-01
  2.411915e+01    8.784813e-01
  2.413503e+01    8.547933e-01
  2.415090e+01    8.543743e-01
  2.416678e+01    8.882954e-01
  2.418266e+01    8.954676e-01
  2.419853e+01    8.784879e-01
  2.421441e+01    8.836477e-01
  2.423028e+01    8.949380e-01
  2.424616e+01    8.980373e-01
  2.426203e+01    8.911121e-01
  2.427791e+01    8.939683e-01
  2.429378e+01    8.929571e-01
  2.430966e+01    9.065138e-01
  2.432554e+01    9.370789e-01
  2.434141e+01    9.056855e-01
  2.435729e+01    9.023594e-01
  2.437316e+01    8.834893e-01
  2.438904e+01    8.869870e-01
  2.440491e+01    8.933737e-01
  2.442079e+01    8.925586e-01
  2.443666e+01    8.794345e-01
  2.445254e+01    8.923872e-01
  2.446842e+01    8.737485e-01
  2.448429e+01    8.513915e-01
  2.450017e+01    8.931654e-01
  2.451604e+01    8.994176e-01
  2.453192e+01    8.903625e-01
  2.454779e+01    9.099290e-01
  2.456367e+01    8.890791e-01
  2.457954e+01    8.736055e-01
  2.459542e+01    8.794939e-01
  2.461130e+01    8.745161e-01
  2.462717e+01    9.035239e-01
  2.464305e+01    9.186918e-01
  2.465892e+01    9.241647e-01
  2.467480e+01    9.068874e-01
  2.469067e+01    8.969985e-01
  2.470655e+01    8.816390e-01
  2.472242e+01    8.799052e-01
  2.473830e+01    8.947566e-01
  2.475418e+01    8.922536e-01
  2.477005e+01    8.954822e-01
  2.478593e+01    8.893675e-01
  2.480180e+01    8.925436e-01
  2.481768e+01    9.057540e-01
  2.483355e+01    8.933421e-01
  2.484943e+01    8.952158e-01
  2.486530e+01    9.030336e-01
  2.488118e+01    8.920159e-01
  2.489706e+01    9.032034e-01
  2.491293e+01    8.849999e-01
  2.492881e+01    8.754011e-01
  2.494468e+01    8.967614e-01
  2.496056e+01    8.909923e-01
  2.497643e+01    8.931050e-01
  2.499231e+01    8.840987e-01
  2.500819e+01    8.865103e-01
  2.502406e+01    8.870215e-01
  2.503994e+01    9.051006e-01
  2.505581e+01    9.065288e-01
  2.507169e+01    9.098298e-01
  2.508756e+01    9.039694e-01
  2.510344e+01    9.078807e-01
  2.511931e+01    9.192196e-01
  2.513519e+01    8.918000e-01
  2.515107e+01    9.080397e-01
  2.516694e+01    8.999701e-01
  2.518282e+01    9.129741e-01
  2.519869e+01    9.345855e-01
  2.521457e+01    9.290699e-01
  2.523044e+01    9.281220e-01
  2.524632e+01    9.254568e-01
  2.526219e+01    9.360743e-01
  2.527807e+01    9.525020e-01
  2.529395e+01    9.503593e-01
  2.530982e+01    9.541728e-01
  2.532570e+01    9.548499e-01
  2.534157e+01    9.382569e-01
  2.535745e+01    9.598037e-01
  2.537332e+01    9.921484e-01
  2.538920e+01    1.013694e+00
  2.540507e+01    1.004292e+00
  2.542095e+01    9.770667e-01
  2.543683e+01    9.955451e-01
  2.545270e+01    1.025364e+00
  2.546858e+01    1.016092e+00
  2.548445e+01    1.019987e+00
  2.550033e+01    1.020318e+00
  2.551620e+01    1.076494e+00
  2.553208e+01    1.121082e+00
  2.554795e+01    1.121427e+00
  2.556383e+01    1.134707e+00
  2.557971e+01    1.146227e+00
  2.559558e+01    1.184221e+00
  2.561146e+01    1.227004e+00
  2.562733e+01    1.254110e+00
  2.564321e+01    1.301038e+00
  2.565908e+01    1.342356e+00
  2.567496e+01    1.404806e+00
  2.569083e+01    1.526597e+00
  2.570671e+01    1.602891e+00
  2.572259e+01    1.736639e+00
  2.573846e+01    1.863853e+00
  2.575434e+01    2.049883e+00
  2.577021e+01    2.277681e+00
  2.578609e+01    2.532703e+00
  2.580196e+01    2.855377e+00
  2.581784e+01    3.191200e+00
  2.583371e+01    3.623350e+00
  2.584959e+01    4.165668e+00
  2.586547e+01    4.714921e+00
  2.588134e+01    5.282119e+00
  2.589722e+01    5.895674e+00
  2.591309e+01    6.451208e+00
  2.592897e+01    6.852380e+00
  2.594484e+01    7.101995e+00
  2.596072e+01    7.156283e+00
  2.597660e+01    6.893431e+00
  2.599247e+01    6.563255e+00
  2.600835e+01    5.982993e+00
  2.602422e+01    5.292564e+00
  2.604010e+01    4.618141e+00
  2.605597e+01    3.958520e+00
  2.607185e+01    3.428148e+00
  2.608772e+01    2.944096e+00
  2.610360e+01    2.660035e+00
  2.611948e+01    2.374185e+00
  2.613535e+01    2.139365e+00
  2.615123e+01    1.947349e+00
  2.616710e+01    1.803825e+00
  2.618298e+01    1.692903e+00
  2.619885e+01    1.574895e+00
  2.621473e+01    1.493394e+00
  2.623060e+01    1.413886e+00
  2.624648e+01    1.328714e+00
  2.626236e+01    1.292990e+00
  2.627823e+01    1.248665e+00
  2.629411e+01    1.213466e+00
  2.630998e+01    1.194903e+00
  2.632586e+01    1.164251e+00
  2.634173e+01    1.126921e+00
  2.635761e+01    1.097944e+00
  2.637348e+01    1.101289e+00
  2.638936e+01    1.063548e+00
  2.640524e+01    1.042112e+00
  2.642111e+01    1.041499e+00
  2.643699e+01    1.049304e+00
  2.645286e+01    1.028335e+00
  2.646874e+01    1.015854e+00
  2.648461e+01    1.025091e+00
  2.650049e+01    1.018408e+00
  2.651636e+01    1.021540e+00
  2.653224e+01    1.019554e+00
  2.654812e+01    9.884411e-01
  2.656399e+01    9.781832e-01
  2.657987e+01    9.836484e-01
  2.659574e+01    9.583837e-01
  2.661162e+01    9.664335e-01
  2.662749e+01    9.803571e-01
  2.664337e+01    9.667197e-01
  2.665924e+01    9.636871e-01
  2.667512e+01    9.695539e-01
  2.669100e+01    9.874688e-01
  2.670687e+01    9.920121e-01
  2.672275e+01    9.816542e-01
  2.673862e+01    9.704076e-01
  2.675450e+01    9.816300e-01
  2.677037e+01    9.651985e-01
  2.678625e+01    9.626983e-01
  2.680212e+01    9.776438e-01
  2.681800e+01    9.797097e-01
  2.683388e+01    9.801404e-01
  2.684975e+01    9.955604e-01
  2.686563e+01    9.794945e-01
  2.688150e+01    9.914423e-01
  2.689738e+01    9.931768e-01
  2.691325e+01    9.747052e-01
  2.692913e+01    1.012494e+00
  2.694501e+01    1.035241e+00
  2.696088e+01    1.039931e+00
  2.697676e+01    1.065139e+00
  2.699263e+01    1.078804e+00
  2.700851e+01    1.120813e+00
  2.702438e+01    1.158910e+00
  2.704026e+01    1.192917e+00
  2.705613e+01    1.262660e+00
  2.707201e+01    1.301155e+00
  2.708789e+01    1.390909e+00
  2.710376e+01    1.498675e+00
  2.711964e+01    1.580775e+00
  2.713551e+01    1.747863e+00
  2.715139e+01    1.855315e+00
  2.716726e+01    1.982169e+00
  2.718314e+01    2.075866e+00
  2.719901e+01    2.135497e+00
  2.721489e+01    2.183983e+00
  2.723077e+01    2.152722e+00
  2.724664e+01    2.087493e+00
  2.726252e+01    1.961879e+00
  2.727839e+01    1.834762e+00
  2.729427e+01    1.709306e+00
  2.731014e+01    1.575116e+00
  2.732602e+01    1.447354e+00
  2.734189e+01    1.354938e+00
  2.735777e+01    1.270377e+00
  2.737365e+01    1.218002e+00
  2.738952e+01    1.174134e+00
  2.740540e+01    1.120777e+00
  2.742127e+01    1.101493e+00
  2.743715e+01    1.039956e+00
  2.745302e+01    1.029507e+00
  2.746890e+01    1.022398e+00
  2.748477e+01    1.001550e+00
  2.750065e+01    9.731530e-01
  2.751653e+01    9.644563e-01
  2.753240e+01    9.298669e-01
  2.754828e+01    9.496924e-01
  2.756415e+01    9.642662e-01
  2.758003e+01    9.517878e-01
  2.759590e+01    9.479445e-01
  2.761178e+01    9.480784e-01
  2.762765e+01    9.394709e-01
  2.764353e+01    9.104020e-01
  2.765941e+01    9.027258e-01
  2.767528e+01    9.036906e-01
  2.769116e+01    8.942773e-01
  2.770703e+01    9.061444e-01
  2.772291e+01    9.221857e-01
  2.773878e+01    9.014826e-01
  2.775466e+01    9.207342e-01
  2.777054e+01    8.904619e-01
  2.778641e+01    8.840973e-01
  2.780229e+01    8.691365e-01
  2.781816e+01    8.844696e-01
  2.783404e+01    8.811064e-01
  2.784991e+01    8.813014e-01
  2.786579e+01    8.881410e-01
  2.788166e+01    8.839272e-01
  2.789754e+01    8.877444e-01
  2.791342e+01    8.956750e-01
  2.792929e+01    9.035375e-01
  2.794517e+01    8.801720e-01
  2.796104e+01    8.450633e-01
  2.797692e+01    8.583429e-01
  2.799279e+01    8.784812e-01
  2.800867e+01    8.634629e-01
  2.802454e+01    8.737535e-01
  2.804042e+01    8.715124e-01
  2.805630e+01    8.476459e-01
  2.807217e+01    8.652143e-01
  2.808805e+01    8.655412e-01
  2.810392e+01    8.817804e-01
  2.811980e+01    8.480067e-01
  2.813567e+01    8.575383e-01
  2.815155e+01    8.473144e-01
  2.816742e+01    8.584569e-01
  2.818330e+01    8.472151e-01
  2.819918e+01    8.543319e-01
  2.821505e+01    8.411433e-01
  2.823093e+01    8.464392e-01
  2.824680e+01    8.447688e-01
  2.826268e+01    8.355290e-01
  2.827855e+01    8.354037e-01
  2.829443e+01    8.412628e-01
  2.831030e+01    8.545932e-01
  2.832618e+01    8.354670e-01
  2.834206e+01    8.181926e-01
  2.835793e+01    8.364066e-01
  2.837381e+01    8.632991e-01
  2.838968e+01    8.170249e-01
  2.840556e+01    8.227631e-01
  2.842143e+01    8.435093e-01
  2.843731e+01    8.094059e-01
  2.845318e+01    8.296192e-01
  2.846906e+01    8.483046e-01
  2.848494e+01    8.409510e-01
  2.850081e+01    8.227380e-01
  2.851669e+01    8.589105e-01
  2.853256e+01    8.658134e-01
  2.854844e+01    8.260986e-01
  2.856431e+01    8.354877e-01
  2.858019e+01    8.684075e-01
  2.859606e+01    8.610654e-01
  2.861194e+01    8.509620e-01
  2.862782e+01    8.371325e-01
  2.864369e+01    8.415096e-01
  2.865957e+01    8.447655e-01
  2.867544e+01    8.254233e-01
  2.869132e+01    8.274907e-01
  2.870719e+01    8.320518e-01
  2.872307e+01    8.288984e-01
  2.873895e+01    8.328149e-01
  2.875482e+01    8.461593e-01
  2.877070e+01    8.485881e-01
  2.878657e+01    8.284737e-01
  2.880245e+01    8.140142e-01
  2.881832e+01    8.140931e-01
  2.883420e+01    8.179499e-01
  2.885007e+01    8.128187e-01
  2.886595e+01    8.277681e-01
  2.888183e+01    8.329793e-01
  2.889770e+01    8.597984e-01
  2.891358e+01    8.358997e-01
  2.892945e+01    8.205629e-01
  2.894533e+01    8.312029e-01
  2.896120e+01    8.356241e-01
  2.897708e+01    8.205758e-01
  2.899295e+01    8.318127e-01
  2.900883e+01    8.306395e-01
  2.902471e+01    8.400164e-01
  2.904058e+01    8.169588e-01
  2.905646e+01    7.961276e-01
  2.907233e+01    8.060254e-01
  2.908821e+01    8.265840e-01
  2.910408e+01    8.262542e-01
  2.911996e+01    8.120278e-01
  2.913583e+01    8.240017e-01
  2.915171e+01    8.127784e-01
  2.916759e+01    8.102481e-01
  2.918346e+01    8.063469e-01
  2.919934e+01    8.139462e-01
  2.921521e+01    8.056937e-01
  2.923109e+01    8.069080e-01
  2.924696e+01    8.144187e-01
  2.926284e+01    8.169896e-01
  2.927871e+01    8.432701e-01
  2.929459e+01    8.167778e-01
  2.931047e+01    8.083543e-01
  2.932634e+01    8.146861e-01
  2.934222e+01    8.219506e-01
  2.935809e+01    8.227367e-01
  2.937397e+01    8.126197e-01
  2.938984e+01    8.000987e-01
  2.940572e+01    8.170751e-01
  2.942159e+01    7.993990e-01
  2.943747e+01    7.991995e-01
  2.945335e+01    8.153341e-01
  2.946922e+01    7.996681e-01
  2.948510e+01    8.030783e-01
  2.950097e+01    7.955833e-01
  2.951685e+01    8.074037e-01
  2.953272e+01    8.017153e-01
  2.954860e+01    8.037730e-01
  2.956447e+01    8.026307e-01
  2.958035e+01    8.123441e-01
  2.959623e+01    7.985764e-01
  2.961210e+01    7.964812e-01
  2.962798e+01    8.031508e-01
  2.964385e+01    7.987289e-01
  2.965973e+01    7.923692e-01
  2.967560e+01    8.010481e-01
  2.969148e+01    8.163299e-01
  2.970736e+01    8.016908e-01
  2.972323e+01    7.943708e-01
  2.973911e+01    7.913191e-01
  2.975498e+01    8.077735e-01
  2.977086e+01    7.992377e-01
  2.978673e+01    7.931443e-01
  2.980261e+01    7.845225e-01
  2.981848e+01    7.918221e-01
  2.983436e+01    7.865563e-01
  2.985024e+01    7.898484e-01
  2.986611e+01    7.810397e-01
  2.988199e+01    7.677413e-01
  2.989786e+01    7.800409e-01
  2.991374e+01    8.137106e-01
  2.992961e+01    8.137285e-01
  2.994549e+01    8.148912e-01
  2.996136e+01    8.087967e-01
  2.997724e+01    7.923626e-01
  2.999312e+01    7.832345e-01
  3.000899e+01    7.931145e-01
  3.002487e+01    8.033420e-01
  3.004074e+01    8.323639e-01
  3.005662e+01    8.261024e-01
  3.007249e+01    8.141856e-01
  3.008837e+01    8.105519e-01
  3.010424e+01    7.985036e-01
  3.012012e+01    8.187886e-01
  3.013600e+01    7.852880e-01
  3.015187e+01    7.782521e-01
  3.016775e+01    7.829790e-01
  3.018362e+01    7.967260e-01
  3.019950e+01    8.015828e-01
  3.021537e+01    7.786071e-01
  3.023125e+01    7.738269e-01
  3.024712e+01    7.776627e-01
  3.026300e+01    7.881408e-01
  3.027888e+01    7.954271e-01
  3.029475e+01    7.804360e-01
  3.031063e+01    8.006988e-01
  3.032650e+01    8.037030e-01
  3.034238e+01    8.001806e-01
  3.035825e+01    8.060141e-01
  3.037413e+01    7.821184e-01
  3.039000e+01    7.946661e-01
  3.040588e+01    8.070508e-01
  3.042176e+01    7.904481e-01
  3.043763e+01    7.728491e-01
  3.045351e+01    7.798402e-01
  3.046938e+01    7.832122e-01
  3.048526e+01    7.817524e-01
  3.050113e+01    7.973130e-01
  3.051701e+01    8.107895e-01
  3.053288e+01    7.864569e-01
  3.054876e+01    7.787432e-01
  3.056464e+01    7.540944e-01
  3.058051e+01    7.706605e-01
  3.059639e+01    7.697699e-01
  3.061226e+01    7.798750e-01
  3.062814e+01    7.677257e-01
  3.064401e+01    7.737284e-01
  3.065989e+01    7.912382e-01
  3.067577e+01    7.911069e-01
  3.069164e+01    7.796822e-01
  3.070752e+01    7.882761e-01
  3.072339e+01    7.791431e-01
  3.073927e+01    7.645279e-01
  3.075514e+01    7.727877e-01
  3.077102e+01    7.816355e-01
  3.078689e+01    7.739037e-01
  3.080277e+01    7.654817e-01
  3.081865e+01    7.610523e-01
  3.083452e+01    7.968186e-01
  3.085040e+01    8.083373e-01
  3.086627e+01    7.769966e-01
  3.088215e+01    7.860622e-01
  3.089802e+01    7.676173e-01
  3.091390e+01    7.893941e-01
  3.092977e+01    7.958144e-01
  3.094565e+01    7.985580e-01
  3.096153e+01    7.859836e-01
  3.097740e+01    7.669641e-01
  3.099328e+01    7.722081e-01
  3.100915e+01    7.816993e-01
  3.102503e+01    7.795647e-01
  3.104090e+01    7.742425e-01
  3.105678e+01    8.042627e-01
  3.107265e+01    8.042811e-01
  3.108853e+01    7.884336e-01
  3.110441e+01    7.888573e-01
  3.112028e+01    7.647274e-01
  3.113616e+01    7.861025e-01
  3.115203e+01    8.047068e-01
  3.116791e+01    7.952559e-01
  3.118378e+01    7.878882e-01
  3.119966e+01    7.925123e-01
  3.121553e+01    7.938163e-01
  3.123141e+01    7.821006e-01
  3.124729e+01    7.844704e-01
  3.126316e+01    7.833486e-01
  3.127904e+01    7.980036e-01
  3.129491e+01    8.029674e-01
  3.131079e+01    8.015655e-01
  3.132666e+01    8.008196e-01
  3.134254e+01    8.068065e-01
  3.135841e+01    8.023499e-01
  3.137429e+01    8.172095e-01
  3.139017e+01    8.111232e-01
  3.140604e+01    7.822932e-01
  3.142192e+01    7.951367e-01
  3.143779e+01    8.290808e-01
  3.145367e+01    8.272559e-01
  3.146954e+01    8.231820e-01
  3.148542e+01    8.198306e-01
  3.150129e+01    8.295998e-01
  3.151717e+01    8.472688e-01
  3.153305e+01    8.490134e-01
  3.154892e+01    8.283241e-01
  3.156480e+01    8.516190e-01
  3.158067e+01    8.712761e-01
  3.159655e+01    8.892801e-01
  3.161242e+01    8.864934e-01
  3.162830e+01    8.943695e-01
  3.164418e+01    9.171009e-01
  3.166005e+01    9.358453e-01
  3.167593e+01    9.819525e-01
  3.169180e+01    9.845164e-01
  3.170768e+01    1.019165e+00
  3.172355e+01    1.066632e+00
  3.173943e+01    1.100194e+00
  3.175530e+01    1.159381e+00
  3.177118e+01    1.231705e+00
  3.178706e+01    1.305460e+00
  3.180293e+01    1.457305e+00
  3.181881e+01    1.573181e+00
  3.183468e+01    1.728540e+00
  3.185056e+01    1.852336e+00
  3.186643e+01    1.948944e+00
  3.188231e+01    2.011747e+00
  3.189818e+01    2.072830e+00
  3.191406e+01    2.089971e+00
  3.192994e+01    2.039882e+00
  3.194581e+01    1.897684e+00
  3.196169e+01    1.809119e+00
  3.197756e+01    1.653447e+00
  3.199344e+01    1.533873e+00
  3.200931e+01    1.423485e+00
  3.202519e+01    1.309661e+00
  3.204106e+01    1.232854e+00
  3.205694e+01    1.154150e+00
  3.207282e+01    1.078638e+00
  3.208869e+01    1.031556e+00
  3.210457e+01    9.917558e-01
  3.212044e+01    9.544745e-01
  3.213632e+01    9.537708e-01
  3.215219e+01    9.124930e-01
  3.216807e+01    8.685507e-01
  3.218394e+01    8.673577e-01
  3.219982e+01    8.702173e-01
  3.221570e+01    8.589103e-01
  3.223157e+01    8.404358e-01
  3.224745e+01    8.317314e-01
  3.226332e+01    8.233258e-01
  3.227920e+01    8.353262e-01
  3.229507e+01    8.212934e-01
  3.231095e+01    8.209377e-01
  3.232682e+01    8.176689e-01
  3.234270e+01    8.017101e-01
  3.235858e+01    7.913951e-01
  3.237445e+01    7.927452e-01
  3.239033e+01    7.869413e-01
  3.240620e+01    7.731874e-01
  3.242208e+01    7.781120e-01
  3.243795e+01    7.749804e-01
  3.245383e+01    7.801170e-01
  3.246970e+01    7.821818e-01
  3.248558e+01    7.793970e-01
  3.250146e+01    7.866988e-01
  3.251733e+01    7.673239e-01
  3.253321e+01    7.572812e-01
  3.254908e+01    7.780892e-01
