# == pyFAI calibration ==
# Distance Sample to Detector: 0.3999999939076516 m
# PONI: 9.750e-02, 1.135e-01 m
# Rotations: -0.000175 0.000000 -0.000000 rad
# 
# == Fit2d calibration ==
# Distance Sample-beamCenter: 400.000 mm
# Center: x=1514.000, y=1300.000 pix
# Tilt: 0.010 deg  TiltPlanRot: 0.010 deg
# 
# Detector Detector	 Spline= None	 PixelSize= 7.500e-05, 7.500e-05 m
#    Detector has a mask: False 
#    Detector has a dark current: False 
#    detector has a flat field: False 
# 
# Wavelength: 6.888e-11 m
# Mask applied: user provided
# Dark current applied: False
# Flat field applied: False
# Polarization factor: 0.99
# Normalization factor: 1.0
# --> /home/myspot/data/2024_07_Rosario/Ru-CGO-ex/2024-07-27_003_Ru-CGO-ex_Reaction_dwell_000023_data_000091.dat
#       q_nm^-1             I 
  2.003187e-02    0.000000e+00
  3.590745e-02    3.428878e-02
  5.178302e-02    1.909181e-01
  6.765859e-02    2.198640e-01
  8.353417e-02    1.535698e-01
  9.940974e-02    7.468750e-02
  1.152853e-01    6.886890e-02
  1.311609e-01    3.121459e-02
  1.470365e-01    1.604792e-02
  1.629120e-01    5.650689e-02
  1.787876e-01    3.544811e-02
  1.946632e-01    5.746487e-03
  2.105388e-01    1.683889e-02
  2.264143e-01    4.461661e-02
  2.422899e-01    5.291338e-02
  2.581655e-01    4.660919e-02
  2.740411e-01    4.364903e-02
  2.899166e-01    2.983462e-02
  3.057922e-01    1.286936e-02
  3.216678e-01    2.302231e-03
  3.375433e-01    1.534593e-02
  3.534189e-01    4.629668e-02
  3.692945e-01    7.939888e-02
  3.851701e-01    5.523767e-02
  4.010456e-01    3.733490e-02
  4.169212e-01    1.581193e-02
  4.327968e-01    1.957103e-02
  4.486724e-01    4.175958e-02
  4.645479e-01    3.778525e-02
  4.804235e-01    2.611207e-02
  4.962991e-01    4.459229e-02
  5.121747e-01    1.259822e-02
  5.280502e-01    2.952533e-02
  5.439258e-01    4.070098e-02
  5.598014e-01    3.037165e-02
  5.756770e-01    5.783868e-02
  5.915525e-01    7.947101e-02
  6.074281e-01    5.116918e-02
  6.233037e-01    5.321548e-02
  6.391793e-01    4.137186e-02
  6.550548e-01    3.729557e-02
  6.709304e-01    6.597631e-02
  6.868060e-01    3.662570e-02
  7.026815e-01    3.287676e-02
  7.185571e-01    3.947910e-02
  7.344327e-01    6.097738e-02
  7.503083e-01    5.391647e-02
  7.661838e-01    7.814893e-02
  7.820594e-01    1.177849e-01
  7.979350e-01    1.562434e-01
  8.138106e-01    2.419639e-01
  8.296861e-01    3.266180e-01
  8.455617e-01    3.216928e-01
  8.614373e-01    3.566189e-01
  8.773129e-01    5.046311e-01
  8.931884e-01    6.321274e-01
  9.090640e-01    6.820506e-01
  9.249396e-01    7.878402e-01
  9.408152e-01    8.732620e-01
  9.566907e-01    8.363143e-01
  9.725663e-01    9.681578e-01
  9.884419e-01    1.182546e+00
  1.004317e+00    1.147776e+00
  1.020193e+00    1.261542e+00
  1.036069e+00    1.326465e+00
  1.051944e+00    1.355542e+00
  1.067820e+00    1.491382e+00
  1.083695e+00    1.549475e+00
  1.099571e+00    1.541905e+00
  1.115446e+00    1.549382e+00
  1.131322e+00    1.704837e+00
  1.147198e+00    1.687043e+00
  1.163073e+00    1.643903e+00
  1.178949e+00    1.726948e+00
  1.194824e+00    1.759724e+00
  1.210700e+00    1.855138e+00
  1.226575e+00    2.360189e+00
  1.242451e+00    2.485312e+00
  1.258327e+00    2.536031e+00
  1.274202e+00    2.687259e+00
  1.290078e+00    2.617795e+00
  1.305953e+00    2.657807e+00
  1.321829e+00    2.787086e+00
  1.337705e+00    2.791964e+00
  1.353580e+00    2.732410e+00
  1.369456e+00    2.724943e+00
  1.385331e+00    2.739593e+00
  1.401207e+00    2.894473e+00
  1.417082e+00    2.813975e+00
  1.432958e+00    2.904927e+00
  1.448834e+00    3.060750e+00
  1.464709e+00    2.977395e+00
  1.480585e+00    2.954851e+00
  1.496460e+00    3.089179e+00
  1.512336e+00    3.071704e+00
  1.528211e+00    3.159354e+00
  1.544087e+00    3.192977e+00
  1.559963e+00    3.126154e+00
  1.575838e+00    3.253265e+00
  1.591714e+00    3.295042e+00
  1.607589e+00    3.218976e+00
  1.623465e+00    3.276915e+00
  1.639340e+00    3.228711e+00
  1.655216e+00    3.236212e+00
  1.671092e+00    3.079800e+00
  1.686967e+00    3.197108e+00
  1.702843e+00    3.218413e+00
  1.718718e+00    3.144870e+00
  1.734594e+00    3.053647e+00
  1.750469e+00    3.047524e+00
  1.766345e+00    3.001179e+00
  1.782221e+00    3.201240e+00
  1.798096e+00    3.117130e+00
  1.813972e+00    3.130131e+00
  1.829847e+00    3.068352e+00
  1.845723e+00    2.960292e+00
  1.861598e+00    3.081783e+00
  1.877474e+00    3.077769e+00
  1.893350e+00    3.051302e+00
  1.909225e+00    3.061874e+00
  1.925101e+00    3.194977e+00
  1.940976e+00    3.139548e+00
  1.956852e+00    3.046178e+00
  1.972727e+00    3.074941e+00
  1.988603e+00    3.027090e+00
  2.004479e+00    2.909433e+00
  2.020354e+00    2.992565e+00
  2.036230e+00    3.272569e+00
  2.052105e+00    3.125189e+00
  2.067981e+00    3.131196e+00
  2.083856e+00    3.109296e+00
  2.099732e+00    3.202533e+00
  2.115608e+00    3.122880e+00
  2.131483e+00    3.052451e+00
  2.147359e+00    3.136462e+00
  2.163234e+00    3.106417e+00
  2.179110e+00    3.140007e+00
  2.194985e+00    3.090372e+00
  2.210861e+00    3.147063e+00
  2.226737e+00    3.036638e+00
  2.242612e+00    3.024661e+00
  2.258488e+00    3.129920e+00
  2.274363e+00    3.192960e+00
  2.290239e+00    3.141365e+00
  2.306115e+00    3.092203e+00
  2.321990e+00    3.219996e+00
  2.337866e+00    3.074896e+00
  2.353741e+00    3.036940e+00
  2.369617e+00    3.160695e+00
  2.385492e+00    3.137982e+00
  2.401368e+00    3.131977e+00
  2.417244e+00    3.092904e+00
  2.433119e+00    3.245218e+00
  2.448995e+00    3.213833e+00
  2.464870e+00    3.208382e+00
  2.480746e+00    3.154248e+00
  2.496621e+00    3.154073e+00
  2.512497e+00    3.173375e+00
  2.528373e+00    3.196080e+00
  2.544248e+00    3.166737e+00
  2.560124e+00    3.205184e+00
  2.575999e+00    3.258918e+00
  2.591875e+00    3.224941e+00
  2.607750e+00    3.154323e+00
  2.623626e+00    3.100842e+00
  2.639502e+00    3.215274e+00
  2.655377e+00    3.235976e+00
  2.671253e+00    3.151813e+00
  2.687128e+00    3.120325e+00
  2.703004e+00    3.098260e+00
  2.718879e+00    3.206759e+00
  2.734755e+00    3.205208e+00
  2.750631e+00    3.326912e+00
  2.766506e+00    3.282554e+00
  2.782382e+00    3.143417e+00
  2.798257e+00    3.233529e+00
  2.814133e+00    3.257940e+00
  2.830008e+00    3.250975e+00
  2.845884e+00    3.348779e+00
  2.861760e+00    3.402914e+00
  2.877635e+00    3.339098e+00
  2.893511e+00    3.280741e+00
  2.909386e+00    3.307597e+00
  2.925262e+00    3.270916e+00
  2.941137e+00    3.263774e+00
  2.957013e+00    3.319213e+00
  2.972889e+00    3.434966e+00
  2.988764e+00    3.479359e+00
  3.004640e+00    3.440083e+00
  3.020515e+00    3.390648e+00
  3.036391e+00    3.251539e+00
  3.052266e+00    3.323685e+00
  3.068142e+00    3.453019e+00
  3.084018e+00    3.416516e+00
  3.099893e+00    3.332815e+00
  3.115769e+00    3.334415e+00
  3.131644e+00    3.196449e+00
  3.147520e+00    3.315434e+00
  3.163395e+00    3.460016e+00
  3.179271e+00    3.369008e+00
  3.195147e+00    3.329233e+00
  3.211022e+00    3.340774e+00
  3.226898e+00    3.464550e+00
  3.242773e+00    3.389298e+00
  3.258649e+00    3.423948e+00
  3.274525e+00    3.438929e+00
  3.290400e+00    3.405990e+00
  3.306276e+00    3.452366e+00
  3.322151e+00    3.408589e+00
  3.338027e+00    3.326764e+00
  3.353902e+00    3.395887e+00
  3.369778e+00    3.352024e+00
  3.385654e+00    3.376163e+00
  3.401529e+00    3.441014e+00
  3.417405e+00    3.468722e+00
  3.433280e+00    3.441890e+00
  3.449156e+00    3.414957e+00
  3.465031e+00    3.481606e+00
  3.480907e+00    3.489979e+00
  3.496783e+00    3.455732e+00
  3.512658e+00    3.376807e+00
  3.528534e+00    3.374152e+00
  3.544409e+00    3.433128e+00
  3.560285e+00    3.533956e+00
  3.576160e+00    3.458930e+00
  3.592036e+00    3.503572e+00
  3.607912e+00    3.538598e+00
  3.623787e+00    3.487235e+00
  3.639663e+00    3.550270e+00
  3.655538e+00    3.530966e+00
  3.671414e+00    3.533979e+00
  3.687289e+00    3.448576e+00
  3.703165e+00    3.442927e+00
  3.719041e+00    3.441799e+00
  3.734916e+00    3.450754e+00
  3.750792e+00    3.452181e+00
  3.766667e+00    3.446877e+00
  3.782543e+00    3.546187e+00
  3.798418e+00    3.547553e+00
  3.814294e+00    3.490645e+00
  3.830170e+00    3.444210e+00
  3.846045e+00    3.519194e+00
  3.861921e+00    3.522138e+00
  3.877796e+00    3.540853e+00
  3.893672e+00    3.572453e+00
  3.909547e+00    3.431449e+00
  3.925423e+00    3.488194e+00
  3.941299e+00    3.485191e+00
  3.957174e+00    3.547151e+00
  3.973050e+00    3.538375e+00
  3.988925e+00    3.553683e+00
  4.004801e+00    3.568666e+00
  4.020676e+00    3.558170e+00
  4.036552e+00    3.508509e+00
  4.052428e+00    3.440284e+00
  4.068303e+00    3.586764e+00
  4.084179e+00    3.612176e+00
  4.100054e+00    3.599692e+00
  4.115930e+00    3.611995e+00
  4.131806e+00    3.669981e+00
  4.147681e+00    3.643896e+00
  4.163557e+00    3.536968e+00
  4.179432e+00    3.539487e+00
  4.195308e+00    3.505589e+00
  4.211183e+00    3.518128e+00
  4.227059e+00    3.602027e+00
  4.242935e+00    3.517078e+00
  4.258810e+00    3.612628e+00
  4.274686e+00    3.553652e+00
  4.290561e+00    3.527437e+00
  4.306437e+00    3.613008e+00
  4.322312e+00    3.678998e+00
  4.338188e+00    3.595209e+00
  4.354064e+00    3.492123e+00
  4.369939e+00    3.556448e+00
  4.385815e+00    3.628291e+00
  4.401690e+00    3.638285e+00
  4.417566e+00    3.631837e+00
  4.433441e+00    3.590580e+00
  4.449317e+00    3.594142e+00
  4.465193e+00    3.635189e+00
  4.481068e+00    3.572752e+00
  4.496944e+00    3.628394e+00
  4.512819e+00    3.623192e+00
  4.528695e+00    3.564171e+00
  4.544570e+00    3.533183e+00
  4.560446e+00    3.518545e+00
  4.576322e+00    3.645692e+00
  4.592197e+00    3.609531e+00
  4.608073e+00    3.621186e+00
  4.623948e+00    3.668128e+00
  4.639824e+00    3.657172e+00
  4.655699e+00    3.699239e+00
  4.671575e+00    3.633266e+00
  4.687451e+00    3.590884e+00
  4.703326e+00    3.613300e+00
  4.719202e+00    3.667673e+00
  4.735077e+00    3.657411e+00
  4.750953e+00    3.607237e+00
  4.766828e+00    3.650708e+00
  4.782704e+00    3.636143e+00
  4.798580e+00    3.635530e+00
  4.814455e+00    3.667353e+00
  4.830331e+00    3.522979e+00
  4.846206e+00    3.577475e+00
  4.862082e+00    3.720811e+00
  4.877957e+00    3.659361e+00
  4.893833e+00    3.628821e+00
  4.909709e+00    3.573980e+00
  4.925584e+00    3.658228e+00
  4.941460e+00    3.599958e+00
  4.957335e+00    3.613508e+00
  4.973211e+00    3.649159e+00
  4.989086e+00    3.611116e+00
  5.004962e+00    3.619328e+00
  5.020838e+00    3.682257e+00
  5.036713e+00    3.677277e+00
  5.052589e+00    3.656644e+00
  5.068464e+00    3.647283e+00
  5.084340e+00    3.623418e+00
  5.100216e+00    3.598610e+00
  5.116091e+00    3.672895e+00
  5.131967e+00    3.576286e+00
  5.147842e+00    3.602745e+00
  5.163718e+00    3.673336e+00
  5.179593e+00    3.678613e+00
  5.195469e+00    3.651621e+00
  5.211345e+00    3.708494e+00
  5.227220e+00    3.558749e+00
  5.243096e+00    3.678347e+00
  5.258971e+00    3.767088e+00
  5.274847e+00    3.635201e+00
  5.290722e+00    3.618226e+00
  5.306598e+00    3.642015e+00
  5.322474e+00    3.734742e+00
  5.338349e+00    3.632838e+00
  5.354225e+00    3.614137e+00
  5.370100e+00    3.639520e+00
  5.385976e+00    3.643570e+00
  5.401851e+00    3.676131e+00
  5.417727e+00    3.596667e+00
  5.433603e+00    3.573126e+00
  5.449478e+00    3.592595e+00
  5.465354e+00    3.630271e+00
  5.481229e+00    3.670467e+00
  5.497105e+00    3.697758e+00
  5.512980e+00    3.728776e+00
  5.528856e+00    3.626592e+00
  5.544732e+00    3.631252e+00
  5.560607e+00    3.625188e+00
  5.576483e+00    3.616212e+00
  5.592358e+00    3.667903e+00
  5.608234e+00    3.672179e+00
  5.624109e+00    3.650417e+00
  5.639985e+00    3.554576e+00
  5.655861e+00    3.528961e+00
  5.671736e+00    3.601374e+00
  5.687612e+00    3.637602e+00
  5.703487e+00    3.593235e+00
  5.719363e+00    3.657777e+00
  5.735238e+00    3.640414e+00
  5.751114e+00    3.603673e+00
  5.766990e+00    3.612011e+00
  5.782865e+00    3.617662e+00
  5.798741e+00    3.520535e+00
  5.814616e+00    3.548519e+00
  5.830492e+00    3.588461e+00
  5.846367e+00    3.558705e+00
  5.862243e+00    3.540688e+00
  5.878119e+00    3.520032e+00
  5.893994e+00    3.475461e+00
  5.909870e+00    3.492815e+00
  5.925745e+00    3.557220e+00
  5.941621e+00    3.601830e+00
  5.957497e+00    3.560860e+00
  5.973372e+00    3.563756e+00
  5.989248e+00    3.548874e+00
  6.005123e+00    3.459080e+00
  6.020999e+00    3.549440e+00
  6.036874e+00    3.548182e+00
  6.052750e+00    3.564911e+00
  6.068626e+00    3.641244e+00
  6.084501e+00    3.623901e+00
  6.100377e+00    3.553161e+00
  6.116252e+00    3.560765e+00
  6.132128e+00    3.557087e+00
  6.148003e+00    3.566911e+00
  6.163879e+00    3.551742e+00
  6.179755e+00    3.542531e+00
  6.195630e+00    3.568403e+00
  6.211506e+00    3.532142e+00
  6.227381e+00    3.524657e+00
  6.243257e+00    3.509944e+00
  6.259132e+00    3.614043e+00
  6.275008e+00    3.670151e+00
  6.290884e+00    3.632396e+00
  6.306759e+00    3.582250e+00
  6.322635e+00    3.547139e+00
  6.338510e+00    3.566547e+00
  6.354386e+00    3.567761e+00
  6.370261e+00    3.633771e+00
  6.386137e+00    3.575757e+00
  6.402013e+00    3.611016e+00
  6.417888e+00    3.642236e+00
  6.433764e+00    3.517415e+00
  6.449639e+00    3.610080e+00
  6.465515e+00    3.517653e+00
  6.481390e+00    3.531925e+00
  6.497266e+00    3.521878e+00
  6.513142e+00    3.530071e+00
  6.529017e+00    3.604374e+00
  6.544893e+00    3.595073e+00
  6.560768e+00    3.542844e+00
  6.576644e+00    3.532784e+00
  6.592519e+00    3.589035e+00
  6.608395e+00    3.563016e+00
  6.624271e+00    3.515778e+00
  6.640146e+00    3.541745e+00
  6.656022e+00    3.552337e+00
  6.671897e+00    3.598242e+00
  6.687773e+00    3.604155e+00
  6.703648e+00    3.518512e+00
  6.719524e+00    3.567322e+00
  6.735400e+00    3.601042e+00
  6.751275e+00    3.543090e+00
  6.767151e+00    3.613520e+00
  6.783026e+00    3.539088e+00
  6.798902e+00    3.503166e+00
  6.814777e+00    3.461046e+00
  6.830653e+00    3.471073e+00
  6.846529e+00    3.474843e+00
  6.862404e+00    3.563041e+00
  6.878280e+00    3.675055e+00
  6.894155e+00    3.631283e+00
  6.910031e+00    3.539918e+00
  6.925907e+00    3.512357e+00
  6.941782e+00    3.561974e+00
  6.957658e+00    3.509884e+00
  6.973533e+00    3.441944e+00
  6.989409e+00    3.538737e+00
  7.005284e+00    3.542920e+00
  7.021160e+00    3.515562e+00
  7.037036e+00    3.512352e+00
  7.052911e+00    3.505624e+00
  7.068787e+00    3.474941e+00
  7.084662e+00    3.530718e+00
  7.100538e+00    3.591343e+00
  7.116413e+00    3.535721e+00
  7.132289e+00    3.547707e+00
  7.148165e+00    3.554730e+00
  7.164040e+00    3.514250e+00
  7.179916e+00    3.542876e+00
  7.195791e+00    3.516052e+00
  7.211667e+00    3.561154e+00
  7.227542e+00    3.554294e+00
  7.243418e+00    3.562545e+00
  7.259294e+00    3.560022e+00
  7.275169e+00    3.456156e+00
  7.291045e+00    3.567741e+00
  7.306920e+00    3.518606e+00
  7.322796e+00    3.464283e+00
  7.338671e+00    3.512294e+00
  7.354547e+00    3.606352e+00
  7.370423e+00    3.559561e+00
  7.386298e+00    3.505570e+00
  7.402174e+00    3.548803e+00
  7.418049e+00    3.467958e+00
  7.433925e+00    3.472577e+00
  7.449800e+00    3.496795e+00
  7.465676e+00    3.520723e+00
  7.481552e+00    3.524438e+00
  7.497427e+00    3.504668e+00
  7.513303e+00    3.440080e+00
  7.529178e+00    3.434013e+00
  7.545054e+00    3.432659e+00
  7.560929e+00    3.469209e+00
  7.576805e+00    3.481654e+00
  7.592681e+00    3.439519e+00
  7.608556e+00    3.468277e+00
  7.624432e+00    3.495293e+00
  7.640307e+00    3.481010e+00
  7.656183e+00    3.460202e+00
  7.672058e+00    3.462141e+00
  7.687934e+00    3.400387e+00
  7.703810e+00    3.452454e+00
  7.719685e+00    3.501498e+00
  7.735561e+00    3.499835e+00
  7.751436e+00    3.481909e+00
  7.767312e+00    3.403111e+00
  7.783187e+00    3.422757e+00
  7.799063e+00    3.386696e+00
  7.814939e+00    3.380648e+00
  7.830814e+00    3.418540e+00
  7.846690e+00    3.406898e+00
  7.862565e+00    3.440519e+00
  7.878441e+00    3.500364e+00
  7.894317e+00    3.485778e+00
  7.910192e+00    3.463099e+00
  7.926068e+00    3.434921e+00
  7.941943e+00    3.470593e+00
  7.957819e+00    3.473097e+00
  7.973694e+00    3.456665e+00
  7.989570e+00    3.439668e+00
  8.005446e+00    3.478684e+00
  8.021321e+00    3.408605e+00
  8.037197e+00    3.385774e+00
  8.053072e+00    3.428921e+00
  8.068948e+00    3.375634e+00
  8.084823e+00    3.437484e+00
  8.100699e+00    3.506481e+00
  8.116575e+00    3.484069e+00
  8.132450e+00    3.487191e+00
  8.148326e+00    3.480285e+00
  8.164201e+00    3.515610e+00
  8.180077e+00    3.536186e+00
  8.195952e+00    3.485118e+00
  8.211828e+00    3.433757e+00
  8.227704e+00    3.515491e+00
  8.243579e+00    3.509044e+00
  8.259455e+00    3.427104e+00
  8.275330e+00    3.360376e+00
  8.291206e+00    3.354637e+00
  8.307081e+00    3.424875e+00
  8.322957e+00    3.442323e+00
  8.338833e+00    3.462183e+00
  8.354708e+00    3.431727e+00
  8.370584e+00    3.381269e+00
  8.386459e+00    3.383185e+00
  8.402335e+00    3.404048e+00
  8.418210e+00    3.383834e+00
  8.434086e+00    3.375386e+00
  8.449962e+00    3.382990e+00
  8.465837e+00    3.373798e+00
  8.481713e+00    3.381430e+00
  8.497588e+00    3.324723e+00
  8.513464e+00    3.383149e+00
  8.529339e+00    3.420305e+00
  8.545215e+00    3.455236e+00
  8.561091e+00    3.415423e+00
  8.576966e+00    3.337810e+00
  8.592842e+00    3.283314e+00
  8.608717e+00    3.380533e+00
  8.624593e+00    3.393813e+00
  8.640468e+00    3.351680e+00
  8.656344e+00    3.304661e+00
  8.672220e+00    3.309645e+00
  8.688095e+00    3.249074e+00
  8.703971e+00    3.320607e+00
  8.719846e+00    3.336278e+00
  8.735722e+00    3.304049e+00
  8.751598e+00    3.309193e+00
  8.767473e+00    3.274795e+00
  8.783349e+00    3.292378e+00
  8.799224e+00    3.350913e+00
  8.815100e+00    3.395111e+00
  8.830975e+00    3.373006e+00
  8.846851e+00    3.321308e+00
  8.862727e+00    3.253772e+00
  8.878602e+00    3.249257e+00
  8.894478e+00    3.277724e+00
  8.910353e+00    3.271953e+00
  8.926229e+00    3.292027e+00
  8.942104e+00    3.238895e+00
  8.957980e+00    3.289470e+00
  8.973856e+00    3.265431e+00
  8.989731e+00    3.288459e+00
  9.005607e+00    3.323468e+00
  9.021482e+00    3.337284e+00
  9.037358e+00    3.363178e+00
  9.053233e+00    3.329691e+00
  9.069109e+00    3.332968e+00
  9.084985e+00    3.379326e+00
  9.100860e+00    3.290359e+00
  9.116736e+00    3.211042e+00
  9.132611e+00    3.237635e+00
  9.148487e+00    3.312438e+00
  9.164362e+00    3.269236e+00
  9.180238e+00    3.265895e+00
  9.196114e+00    3.248262e+00
  9.211989e+00    3.254153e+00
  9.227865e+00    3.299079e+00
  9.243740e+00    3.276902e+00
  9.259616e+00    3.310925e+00
  9.275491e+00    3.279416e+00
  9.291367e+00    3.239190e+00
  9.307243e+00    3.229233e+00
  9.323118e+00    3.292701e+00
  9.338994e+00    3.256505e+00
  9.354869e+00    3.199913e+00
  9.370745e+00    3.237983e+00
  9.386620e+00    3.253781e+00
  9.402496e+00    3.232264e+00
  9.418372e+00    3.230763e+00
  9.434247e+00    3.264871e+00
  9.450123e+00    3.219105e+00
  9.465998e+00    3.215885e+00
  9.481874e+00    3.187399e+00
  9.497749e+00    3.171009e+00
  9.513625e+00    3.216587e+00
  9.529501e+00    3.240258e+00
  9.545376e+00    3.277303e+00
  9.561252e+00    3.245015e+00
  9.577127e+00    3.254099e+00
  9.593003e+00    3.262358e+00
  9.608878e+00    3.195709e+00
  9.624754e+00    3.172126e+00
  9.640630e+00    3.222645e+00
  9.656505e+00    3.195611e+00
  9.672381e+00    3.182018e+00
  9.688256e+00    3.198961e+00
  9.704132e+00    3.280293e+00
  9.720008e+00    3.184081e+00
  9.735883e+00    3.167784e+00
  9.751759e+00    3.237286e+00
  9.767634e+00    3.134765e+00
  9.783510e+00    3.106915e+00
  9.799385e+00    3.095140e+00
  9.815261e+00    3.144269e+00
  9.831137e+00    3.162593e+00
  9.847012e+00    3.159149e+00
  9.862888e+00    3.128997e+00
  9.878763e+00    3.156940e+00
  9.894639e+00    3.188724e+00
  9.910514e+00    3.135004e+00
  9.926390e+00    3.163140e+00
  9.942266e+00    3.170556e+00
  9.958141e+00    3.156317e+00
  9.974017e+00    3.136844e+00
  9.989892e+00    3.087737e+00
  1.000577e+01    3.086033e+00
  1.002164e+01    3.073652e+00
  1.003752e+01    3.138635e+00
  1.005339e+01    3.101222e+00
  1.006927e+01    3.106484e+00
  1.008515e+01    3.139831e+00
  1.010102e+01    3.124377e+00
  1.011690e+01    3.109317e+00
  1.013277e+01    3.113201e+00
  1.014865e+01    3.087861e+00
  1.016452e+01    3.095115e+00
  1.018040e+01    3.094994e+00
  1.019627e+01    3.056448e+00
  1.021215e+01    3.008087e+00
  1.022803e+01    3.052521e+00
  1.024390e+01    3.091941e+00
  1.025978e+01    3.117906e+00
  1.027565e+01    3.070802e+00
  1.029153e+01    3.037035e+00
  1.030740e+01    3.069918e+00
  1.032328e+01    3.087637e+00
  1.033915e+01    3.034053e+00
  1.035503e+01    3.062821e+00
  1.037091e+01    3.059310e+00
  1.038678e+01    3.062076e+00
  1.040266e+01    3.007344e+00
  1.041853e+01    2.960449e+00
  1.043441e+01    3.000212e+00
  1.045028e+01    3.030246e+00
  1.046616e+01    3.013017e+00
  1.048204e+01    3.068255e+00
  1.049791e+01    3.049047e+00
  1.051379e+01    3.038951e+00
  1.052966e+01    2.978402e+00
  1.054554e+01    2.992703e+00
  1.056141e+01    3.015978e+00
  1.057729e+01    3.033965e+00
  1.059316e+01    3.022382e+00
  1.060904e+01    3.038427e+00
  1.062492e+01    3.017498e+00
  1.064079e+01    2.994376e+00
  1.065667e+01    2.958837e+00
  1.067254e+01    3.018501e+00
  1.068842e+01    2.977581e+00
  1.070429e+01    2.947183e+00
  1.072017e+01    2.906493e+00
  1.073604e+01    2.927424e+00
  1.075192e+01    2.957324e+00
  1.076780e+01    2.979166e+00
  1.078367e+01    2.959081e+00
  1.079955e+01    2.984105e+00
  1.081542e+01    3.009424e+00
  1.083130e+01    2.978638e+00
  1.084717e+01    2.998547e+00
  1.086305e+01    2.994730e+00
  1.087892e+01    2.964247e+00
  1.089480e+01    2.992768e+00
  1.091068e+01    2.963650e+00
  1.092655e+01    2.916501e+00
  1.094243e+01    2.928466e+00
  1.095830e+01    2.912345e+00
  1.097418e+01    2.905106e+00
  1.099005e+01    2.936926e+00
  1.100593e+01    2.902767e+00
  1.102180e+01    2.902535e+00
  1.103768e+01    2.911751e+00
  1.105356e+01    2.847248e+00
  1.106943e+01    2.834776e+00
  1.108531e+01    2.872750e+00
  1.110118e+01    2.850797e+00
  1.111706e+01    2.874309e+00
  1.113293e+01    2.862692e+00
  1.114881e+01    2.880657e+00
  1.116468e+01    2.902197e+00
  1.118056e+01    2.874917e+00
  1.119644e+01    2.900706e+00
  1.121231e+01    2.860430e+00
  1.122819e+01    2.910245e+00
  1.124406e+01    2.882191e+00
  1.125994e+01    2.842146e+00
  1.127581e+01    2.837435e+00
  1.129169e+01    2.835086e+00
  1.130756e+01    2.839072e+00
  1.132344e+01    2.878901e+00
  1.133932e+01    2.847489e+00
  1.135519e+01    2.851930e+00
  1.137107e+01    2.851337e+00
  1.138694e+01    2.855631e+00
  1.140282e+01    2.796978e+00
  1.141869e+01    2.836534e+00
  1.143457e+01    2.804634e+00
  1.145045e+01    2.807323e+00
  1.146632e+01    2.737035e+00
  1.148220e+01    2.769060e+00
  1.149807e+01    2.844125e+00
  1.151395e+01    2.807003e+00
  1.152982e+01    2.781128e+00
  1.154570e+01    2.817745e+00
  1.156157e+01    2.816959e+00
  1.157745e+01    2.783669e+00
  1.159333e+01    2.813150e+00
  1.160920e+01    2.794710e+00
  1.162508e+01    2.774380e+00
  1.164095e+01    2.726674e+00
  1.165683e+01    2.765831e+00
  1.167270e+01    2.794462e+00
  1.168858e+01    2.791353e+00
  1.170445e+01    2.812449e+00
  1.172033e+01    2.748825e+00
  1.173621e+01    2.733878e+00
  1.175208e+01    2.713453e+00
  1.176796e+01    2.760973e+00
  1.178383e+01    2.769047e+00
  1.179971e+01    2.740424e+00
  1.181558e+01    2.704842e+00
  1.183146e+01    2.732721e+00
  1.184733e+01    2.794021e+00
  1.186321e+01    2.788292e+00
  1.187909e+01    2.730711e+00
  1.189496e+01    2.738044e+00
  1.191084e+01    2.775228e+00
  1.192671e+01    2.777309e+00
  1.194259e+01    2.730492e+00
  1.195846e+01    2.717181e+00
  1.197434e+01    2.724875e+00
  1.199021e+01    2.736258e+00
  1.200609e+01    2.743651e+00
  1.202197e+01    2.708886e+00
  1.203784e+01    2.677590e+00
  1.205372e+01    2.752715e+00
  1.206959e+01    2.701457e+00
  1.208547e+01    2.716450e+00
  1.210134e+01    2.724457e+00
  1.211722e+01    2.694506e+00
  1.213309e+01    2.680289e+00
  1.214897e+01    2.684344e+00
  1.216485e+01    2.719168e+00
  1.218072e+01    2.741805e+00
  1.219660e+01    2.672530e+00
  1.221247e+01    2.668079e+00
  1.222835e+01    2.730705e+00
  1.224422e+01    2.733858e+00
  1.226010e+01    2.677777e+00
  1.227597e+01    2.657090e+00
  1.229185e+01    2.723021e+00
  1.230773e+01    2.701190e+00
  1.232360e+01    2.716632e+00
  1.233948e+01    2.758528e+00
  1.235535e+01    2.707947e+00
  1.237123e+01    2.729340e+00
  1.238710e+01    2.694445e+00
  1.240298e+01    2.676215e+00
  1.241886e+01    2.703762e+00
  1.243473e+01    2.732897e+00
  1.245061e+01    2.720751e+00
  1.246648e+01    2.711001e+00
  1.248236e+01    2.728846e+00
  1.249823e+01    2.715763e+00
  1.251411e+01    2.729481e+00
  1.252998e+01    2.735099e+00
  1.254586e+01    2.727834e+00
  1.256174e+01    2.726505e+00
  1.257761e+01    2.745089e+00
  1.259349e+01    2.758494e+00
  1.260936e+01    2.727166e+00
  1.262524e+01    2.735513e+00
  1.264111e+01    2.745825e+00
  1.265699e+01    2.763704e+00
  1.267286e+01    2.823600e+00
  1.268874e+01    2.788226e+00
  1.270462e+01    2.807535e+00
  1.272049e+01    2.822413e+00
  1.273637e+01    2.839216e+00
  1.275224e+01    2.901561e+00
  1.276812e+01    2.948871e+00
  1.278399e+01    2.972466e+00
  1.279987e+01    3.017792e+00
  1.281574e+01    3.041620e+00
  1.283162e+01    3.081571e+00
  1.284750e+01    3.160446e+00
  1.286337e+01    3.287816e+00
  1.287925e+01    3.434473e+00
  1.289512e+01    3.528813e+00
  1.291100e+01    3.657368e+00
  1.292687e+01    3.883240e+00
  1.294275e+01    4.102631e+00
  1.295862e+01    4.421061e+00
  1.297450e+01    4.809499e+00
  1.299038e+01    5.314297e+00
  1.300625e+01    5.893509e+00
  1.302213e+01    6.621584e+00
  1.303800e+01    7.617852e+00
  1.305388e+01    8.869807e+00
  1.306975e+01    1.009299e+01
  1.308563e+01    1.143256e+01
  1.310150e+01    1.275355e+01
  1.311738e+01    1.378152e+01
  1.313326e+01    1.480040e+01
  1.314913e+01    1.573947e+01
  1.316501e+01    1.632270e+01
  1.318088e+01    1.645905e+01
  1.319676e+01    1.561134e+01
  1.321263e+01    1.427900e+01
  1.322851e+01    1.242709e+01
  1.324438e+01    1.067654e+01
  1.326026e+01    9.144305e+00
  1.327614e+01    7.867642e+00
  1.329201e+01    6.838310e+00
  1.330789e+01    6.028786e+00
  1.332376e+01    5.320865e+00
  1.333964e+01    4.805222e+00
  1.335551e+01    4.472445e+00
  1.337139e+01    4.142994e+00
  1.338727e+01    3.883433e+00
  1.340314e+01    3.668256e+00
  1.341902e+01    3.499692e+00
  1.343489e+01    3.391257e+00
  1.345077e+01    3.261603e+00
  1.346664e+01    3.110674e+00
  1.348252e+01    3.060494e+00
  1.349839e+01    3.022215e+00
  1.351427e+01    2.945778e+00
  1.353015e+01    2.864384e+00
  1.354602e+01    2.824286e+00
  1.356190e+01    2.779612e+00
  1.357777e+01    2.744143e+00
  1.359365e+01    2.747351e+00
  1.360952e+01    2.700625e+00
  1.362540e+01    2.676493e+00
  1.364127e+01    2.655919e+00
  1.365715e+01    2.623492e+00
  1.367303e+01    2.625970e+00
  1.368890e+01    2.584521e+00
  1.370478e+01    2.547510e+00
  1.372065e+01    2.563515e+00
  1.373653e+01    2.510356e+00
  1.375240e+01    2.505110e+00
  1.376828e+01    2.528958e+00
  1.378415e+01    2.476302e+00
  1.380003e+01    2.472389e+00
  1.381591e+01    2.478623e+00
  1.383178e+01    2.469673e+00
  1.384766e+01    2.470543e+00
  1.386353e+01    2.443427e+00
  1.387941e+01    2.450163e+00
  1.389528e+01    2.458863e+00
  1.391116e+01    2.400109e+00
  1.392703e+01    2.396415e+00
  1.394291e+01    2.389066e+00
  1.395879e+01    2.378163e+00
  1.397466e+01    2.405930e+00
  1.399054e+01    2.372702e+00
  1.400641e+01    2.401830e+00
  1.402229e+01    2.379779e+00
  1.403816e+01    2.377149e+00
  1.405404e+01    2.355015e+00
  1.406991e+01    2.308477e+00
  1.408579e+01    2.323908e+00
  1.410167e+01    2.353395e+00
  1.411754e+01    2.317804e+00
  1.413342e+01    2.322403e+00
  1.414929e+01    2.343555e+00
  1.416517e+01    2.375690e+00
  1.418104e+01    2.339238e+00
  1.419692e+01    2.300353e+00
  1.421279e+01    2.307545e+00
  1.422867e+01    2.275512e+00
  1.424455e+01    2.280358e+00
  1.426042e+01    2.265471e+00
  1.427630e+01    2.252595e+00
  1.429217e+01    2.313601e+00
  1.430805e+01    2.297930e+00
  1.432392e+01    2.229078e+00
  1.433980e+01    2.246390e+00
  1.435568e+01    2.274951e+00
  1.437155e+01    2.233219e+00
  1.438743e+01    2.236697e+00
  1.440330e+01    2.285315e+00
  1.441918e+01    2.286541e+00
  1.443505e+01    2.255000e+00
  1.445093e+01    2.254935e+00
  1.446680e+01    2.233542e+00
  1.448268e+01    2.193238e+00
  1.449856e+01    2.164810e+00
  1.451443e+01    2.201874e+00
  1.453031e+01    2.256463e+00
  1.454618e+01    2.248579e+00
  1.456206e+01    2.264506e+00
  1.457793e+01    2.256535e+00
  1.459381e+01    2.268095e+00
  1.460968e+01    2.249082e+00
  1.462556e+01    2.219608e+00
  1.464144e+01    2.250726e+00
  1.465731e+01    2.251904e+00
  1.467319e+01    2.199632e+00
  1.468906e+01    2.192985e+00
  1.470494e+01    2.207833e+00
  1.472081e+01    2.215626e+00
  1.473669e+01    2.196872e+00
  1.475256e+01    2.212335e+00
  1.476844e+01    2.222949e+00
  1.478432e+01    2.265414e+00
  1.480019e+01    2.272992e+00
  1.481607e+01    2.241899e+00
  1.483194e+01    2.248375e+00
  1.484782e+01    2.208285e+00
  1.486369e+01    2.205403e+00
  1.487957e+01    2.231767e+00
  1.489544e+01    2.235654e+00
  1.491132e+01    2.238994e+00
  1.492720e+01    2.269700e+00
  1.494307e+01    2.260846e+00
  1.495895e+01    2.275521e+00
  1.497482e+01    2.342778e+00
  1.499070e+01    2.400356e+00
  1.500657e+01    2.427090e+00
  1.502245e+01    2.502324e+00
  1.503832e+01    2.626554e+00
  1.505420e+01    2.713879e+00
  1.507008e+01    2.848528e+00
  1.508595e+01    3.007630e+00
  1.510183e+01    3.216529e+00
  1.511770e+01    3.503625e+00
  1.513358e+01    3.803158e+00
  1.514945e+01    4.122866e+00
  1.516533e+01    4.567036e+00
  1.518120e+01    4.895729e+00
  1.519708e+01    5.144045e+00
  1.521296e+01    5.410468e+00
  1.522883e+01    5.648477e+00
  1.524471e+01    5.707284e+00
  1.526058e+01    5.799973e+00
  1.527646e+01    5.776152e+00
  1.529233e+01    5.503580e+00
  1.530821e+01    5.150944e+00
  1.532409e+01    4.682651e+00
  1.533996e+01    4.196728e+00
  1.535584e+01    3.736143e+00
  1.537171e+01    3.424093e+00
  1.538759e+01    3.141879e+00
  1.540346e+01    2.897338e+00
  1.541934e+01    2.718285e+00
  1.543521e+01    2.615278e+00
  1.545109e+01    2.557826e+00
  1.546697e+01    2.456753e+00
  1.548284e+01    2.410397e+00
  1.549872e+01    2.345475e+00
  1.551459e+01    2.293200e+00
  1.553047e+01    2.222681e+00
  1.554634e+01    2.211345e+00
  1.556222e+01    2.162631e+00
  1.557809e+01    2.080796e+00
  1.559397e+01    2.094794e+00
  1.560985e+01    2.073745e+00
  1.562572e+01    2.054953e+00
  1.564160e+01    2.040653e+00
  1.565747e+01    2.061778e+00
  1.567335e+01    2.082683e+00
  1.568922e+01    2.045544e+00
  1.570510e+01    2.004078e+00
  1.572097e+01    1.980282e+00
  1.573685e+01    1.972436e+00
  1.575273e+01    1.983518e+00
  1.576860e+01    1.966224e+00
  1.578448e+01    1.967415e+00
  1.580035e+01    1.966991e+00
  1.581623e+01    1.952916e+00
  1.583210e+01    1.932353e+00
  1.584798e+01    1.965440e+00
  1.586385e+01    1.987993e+00
  1.587973e+01    1.962447e+00
  1.589561e+01    1.904195e+00
  1.591148e+01    1.878086e+00
  1.592736e+01    1.892492e+00
  1.594323e+01    1.920752e+00
  1.595911e+01    1.848264e+00
  1.597498e+01    1.852738e+00
  1.599086e+01    1.880328e+00
  1.600673e+01    1.872501e+00
  1.602261e+01    1.881260e+00
  1.603849e+01    1.890295e+00
  1.605436e+01    1.885730e+00
  1.607024e+01    1.867322e+00
  1.608611e+01    1.866221e+00
  1.610199e+01    1.852892e+00
  1.611786e+01    1.881585e+00
  1.613374e+01    1.848504e+00
  1.614961e+01    1.833438e+00
  1.616549e+01    1.812191e+00
  1.618137e+01    1.828141e+00
  1.619724e+01    1.813188e+00
  1.621312e+01    1.824272e+00
  1.622899e+01    1.863039e+00
  1.624487e+01    1.821539e+00
  1.626074e+01    1.786050e+00
  1.627662e+01    1.745817e+00
  1.629250e+01    1.775648e+00
  1.630837e+01    1.789953e+00
  1.632425e+01    1.800767e+00
  1.634012e+01    1.831121e+00
  1.635600e+01    1.811702e+00
  1.637187e+01    1.808406e+00
  1.638775e+01    1.783907e+00
  1.640362e+01    1.801325e+00
  1.641950e+01    1.772095e+00
  1.643538e+01    1.794297e+00
  1.645125e+01    1.792699e+00
  1.646713e+01    1.778122e+00
  1.648300e+01    1.782365e+00
  1.649888e+01    1.777122e+00
  1.651475e+01    1.755340e+00
  1.653063e+01    1.739156e+00
  1.654650e+01    1.761583e+00
  1.656238e+01    1.755942e+00
  1.657826e+01    1.700324e+00
  1.659413e+01    1.743514e+00
  1.661001e+01    1.771133e+00
  1.662588e+01    1.747826e+00
  1.664176e+01    1.720861e+00
  1.665763e+01    1.734885e+00
  1.667351e+01    1.728139e+00
  1.668938e+01    1.682565e+00
  1.670526e+01    1.682546e+00
  1.672114e+01    1.712723e+00
  1.673701e+01    1.714527e+00
  1.675289e+01    1.723924e+00
  1.676876e+01    1.725057e+00
  1.678464e+01    1.703214e+00
  1.680051e+01    1.716202e+00
  1.681639e+01    1.698965e+00
  1.683226e+01    1.667348e+00
  1.684814e+01    1.695690e+00
  1.686402e+01    1.678915e+00
  1.687989e+01    1.671118e+00
  1.689577e+01    1.671309e+00
  1.691164e+01    1.638216e+00
  1.692752e+01    1.642682e+00
  1.694339e+01    1.674261e+00
  1.695927e+01    1.665679e+00
  1.697514e+01    1.677038e+00
  1.699102e+01    1.673514e+00
  1.700690e+01    1.677911e+00
  1.702277e+01    1.688825e+00
  1.703865e+01    1.667962e+00
  1.705452e+01    1.660932e+00
  1.707040e+01    1.676023e+00
  1.708627e+01    1.647219e+00
  1.710215e+01    1.646991e+00
  1.711802e+01    1.680484e+00
  1.713390e+01    1.674379e+00
  1.714978e+01    1.644174e+00
  1.716565e+01    1.641231e+00
  1.718153e+01    1.596221e+00
  1.719740e+01    1.639625e+00
  1.721328e+01    1.652596e+00
  1.722915e+01    1.627279e+00
  1.724503e+01    1.605647e+00
  1.726091e+01    1.589817e+00
  1.727678e+01    1.595017e+00
  1.729266e+01    1.639682e+00
  1.730853e+01    1.635549e+00
  1.732441e+01    1.615825e+00
  1.734028e+01    1.628381e+00
  1.735616e+01    1.600692e+00
  1.737203e+01    1.606222e+00
  1.738791e+01    1.616685e+00
  1.740379e+01    1.625722e+00
  1.741966e+01    1.608097e+00
  1.743554e+01    1.603393e+00
  1.745141e+01    1.583617e+00
  1.746729e+01    1.574255e+00
  1.748316e+01    1.575733e+00
  1.749904e+01    1.586675e+00
  1.751491e+01    1.618667e+00
  1.753079e+01    1.583046e+00
  1.754667e+01    1.580816e+00
  1.756254e+01    1.587977e+00
  1.757842e+01    1.579640e+00
  1.759429e+01    1.583501e+00
  1.761017e+01    1.580386e+00
  1.762604e+01    1.579802e+00
  1.764192e+01    1.535813e+00
  1.765779e+01    1.564628e+00
  1.767367e+01    1.561218e+00
  1.768955e+01    1.576873e+00
  1.770542e+01    1.551586e+00
  1.772130e+01    1.563753e+00
  1.773717e+01    1.579658e+00
  1.775305e+01    1.531540e+00
  1.776892e+01    1.524209e+00
  1.778480e+01    1.541176e+00
  1.780067e+01    1.552677e+00
  1.781655e+01    1.557640e+00
  1.783243e+01    1.559300e+00
  1.784830e+01    1.572483e+00
  1.786418e+01    1.581650e+00
  1.788005e+01    1.521156e+00
  1.789593e+01    1.479116e+00
  1.791180e+01    1.534871e+00
  1.792768e+01    1.533144e+00
  1.794355e+01    1.519663e+00
  1.795943e+01    1.498401e+00
  1.797531e+01    1.510864e+00
  1.799118e+01    1.511919e+00
  1.800706e+01    1.492527e+00
  1.802293e+01    1.509216e+00
  1.803881e+01    1.507189e+00
  1.805468e+01    1.511254e+00
  1.807056e+01    1.535195e+00
  1.808643e+01    1.527692e+00
  1.810231e+01    1.501498e+00
  1.811819e+01    1.517787e+00
  1.813406e+01    1.506258e+00
  1.814994e+01    1.491748e+00
  1.816581e+01    1.489762e+00
  1.818169e+01    1.479969e+00
  1.819756e+01    1.469545e+00
  1.821344e+01    1.508412e+00
  1.822932e+01    1.496812e+00
  1.824519e+01    1.471419e+00
  1.826107e+01    1.491466e+00
  1.827694e+01    1.492747e+00
  1.829282e+01    1.428608e+00
  1.830869e+01    1.434871e+00
  1.832457e+01    1.459807e+00
  1.834044e+01    1.451851e+00
  1.835632e+01    1.469664e+00
  1.837220e+01    1.487070e+00
  1.838807e+01    1.465241e+00
  1.840395e+01    1.468558e+00
  1.841982e+01    1.455641e+00
  1.843570e+01    1.457768e+00
  1.845157e+01    1.443486e+00
  1.846745e+01    1.436521e+00
  1.848332e+01    1.455513e+00
  1.849920e+01    1.456841e+00
  1.851508e+01    1.433891e+00
  1.853095e+01    1.462733e+00
  1.854683e+01    1.439058e+00
  1.856270e+01    1.428614e+00
  1.857858e+01    1.457689e+00
  1.859445e+01    1.467418e+00
  1.861033e+01    1.445780e+00
  1.862620e+01    1.412400e+00
  1.864208e+01    1.419413e+00
  1.865796e+01    1.405635e+00
  1.867383e+01    1.438516e+00
  1.868971e+01    1.439279e+00
  1.870558e+01    1.389016e+00
  1.872146e+01    1.399002e+00
  1.873733e+01    1.430326e+00
  1.875321e+01    1.402902e+00
  1.876908e+01    1.424314e+00
  1.878496e+01    1.409255e+00
  1.880084e+01    1.397153e+00
  1.881671e+01    1.421652e+00
  1.883259e+01    1.451627e+00
  1.884846e+01    1.420788e+00
  1.886434e+01    1.401259e+00
  1.888021e+01    1.411082e+00
  1.889609e+01    1.412217e+00
  1.891196e+01    1.420073e+00
  1.892784e+01    1.440066e+00
  1.894372e+01    1.400177e+00
  1.895959e+01    1.371051e+00
  1.897547e+01    1.370542e+00
  1.899134e+01    1.395798e+00
  1.900722e+01    1.357594e+00
  1.902309e+01    1.363915e+00
  1.903897e+01    1.391809e+00
  1.905484e+01    1.360689e+00
  1.907072e+01    1.364257e+00
  1.908660e+01    1.386921e+00
  1.910247e+01    1.370802e+00
  1.911835e+01    1.363492e+00
  1.913422e+01    1.372139e+00
  1.915010e+01    1.354353e+00
  1.916597e+01    1.360605e+00
  1.918185e+01    1.371675e+00
  1.919773e+01    1.369724e+00
  1.921360e+01    1.380926e+00
  1.922948e+01    1.374703e+00
  1.924535e+01    1.371220e+00
  1.926123e+01    1.370044e+00
  1.927710e+01    1.366776e+00
  1.929298e+01    1.380757e+00
  1.930885e+01    1.372267e+00
  1.932473e+01    1.347664e+00
  1.934061e+01    1.332888e+00
  1.935648e+01    1.348612e+00
  1.937236e+01    1.360598e+00
  1.938823e+01    1.334836e+00
  1.940411e+01    1.319691e+00
  1.941998e+01    1.329578e+00
  1.943586e+01    1.321159e+00
  1.945173e+01    1.317187e+00
  1.946761e+01    1.341260e+00
  1.948349e+01    1.307227e+00
  1.949936e+01    1.309116e+00
  1.951524e+01    1.310254e+00
  1.953111e+01    1.324005e+00
  1.954699e+01    1.324537e+00
  1.956286e+01    1.331621e+00
  1.957874e+01    1.329555e+00
  1.959461e+01    1.296252e+00
  1.961049e+01    1.330781e+00
  1.962637e+01    1.371305e+00
  1.964224e+01    1.326763e+00
  1.965812e+01    1.337525e+00
  1.967399e+01    1.323697e+00
  1.968987e+01    1.328125e+00
  1.970574e+01    1.322313e+00
  1.972162e+01    1.291045e+00
  1.973749e+01    1.286096e+00
  1.975337e+01    1.310843e+00
  1.976925e+01    1.326976e+00
  1.978512e+01    1.318642e+00
  1.980100e+01    1.298721e+00
  1.981687e+01    1.332826e+00
  1.983275e+01    1.317792e+00
  1.984862e+01    1.329401e+00
  1.986450e+01    1.328747e+00
  1.988037e+01    1.279900e+00
  1.989625e+01    1.273403e+00
  1.991213e+01    1.294327e+00
  1.992800e+01    1.276238e+00
  1.994388e+01    1.292479e+00
  1.995975e+01    1.287649e+00
  1.997563e+01    1.300997e+00
  1.999150e+01    1.302110e+00
  2.000738e+01    1.316825e+00
  2.002325e+01    1.307733e+00
  2.003913e+01    1.299629e+00
  2.005501e+01    1.299774e+00
  2.007088e+01    1.302293e+00
  2.008676e+01    1.262264e+00
  2.010263e+01    1.276322e+00
  2.011851e+01    1.290230e+00
  2.013438e+01    1.255989e+00
  2.015026e+01    1.265998e+00
  2.016614e+01    1.255778e+00
  2.018201e+01    1.259233e+00
  2.019789e+01    1.268244e+00
  2.021376e+01    1.267539e+00
  2.022964e+01    1.261689e+00
  2.024551e+01    1.260625e+00
  2.026139e+01    1.246098e+00
  2.027726e+01    1.252133e+00
  2.029314e+01    1.254937e+00
  2.030902e+01    1.263117e+00
  2.032489e+01    1.263700e+00
  2.034077e+01    1.246729e+00
  2.035664e+01    1.226317e+00
  2.037252e+01    1.262733e+00
  2.038839e+01    1.263856e+00
  2.040427e+01    1.253398e+00
  2.042014e+01    1.248920e+00
  2.043602e+01    1.230431e+00
  2.045190e+01    1.243949e+00
  2.046777e+01    1.233837e+00
  2.048365e+01    1.241114e+00
  2.049952e+01    1.259682e+00
  2.051540e+01    1.260410e+00
  2.053127e+01    1.261169e+00
  2.054715e+01    1.220862e+00
  2.056302e+01    1.233942e+00
  2.057890e+01    1.247513e+00
  2.059478e+01    1.238969e+00
  2.061065e+01    1.235805e+00
  2.062653e+01    1.236275e+00
  2.064240e+01    1.237887e+00
  2.065828e+01    1.231854e+00
  2.067415e+01    1.244519e+00
  2.069003e+01    1.227273e+00
  2.070590e+01    1.246015e+00
  2.072178e+01    1.233172e+00
  2.073766e+01    1.234271e+00
  2.075353e+01    1.233161e+00
  2.076941e+01    1.235018e+00
  2.078528e+01    1.227895e+00
  2.080116e+01    1.221794e+00
  2.081703e+01    1.229027e+00
  2.083291e+01    1.222565e+00
  2.084878e+01    1.220813e+00
  2.086466e+01    1.230279e+00
  2.088054e+01    1.254142e+00
  2.089641e+01    1.223466e+00
  2.091229e+01    1.241284e+00
  2.092816e+01    1.235937e+00
  2.094404e+01    1.212153e+00
  2.095991e+01    1.195800e+00
  2.097579e+01    1.199668e+00
  2.099166e+01    1.210995e+00
  2.100754e+01    1.213991e+00
  2.102342e+01    1.204801e+00
  2.103929e+01    1.223815e+00
  2.105517e+01    1.245630e+00
  2.107104e+01    1.240500e+00
  2.108692e+01    1.215984e+00
  2.110279e+01    1.217024e+00
  2.111867e+01    1.222156e+00
  2.113455e+01    1.225605e+00
  2.115042e+01    1.239838e+00
  2.116630e+01    1.260748e+00
  2.118217e+01    1.275278e+00
  2.119805e+01    1.269460e+00
  2.121392e+01    1.264139e+00
  2.122980e+01    1.273028e+00
  2.124567e+01    1.257781e+00
  2.126155e+01    1.259081e+00
  2.127743e+01    1.241413e+00
  2.129330e+01    1.253918e+00
  2.130918e+01    1.264420e+00
  2.132505e+01    1.271097e+00
  2.134093e+01    1.254104e+00
  2.135680e+01    1.276273e+00
  2.137268e+01    1.296869e+00
  2.138855e+01    1.303230e+00
  2.140443e+01    1.316108e+00
  2.142031e+01    1.355595e+00
  2.143618e+01    1.355291e+00
  2.145206e+01    1.363326e+00
  2.146793e+01    1.378770e+00
  2.148381e+01    1.383590e+00
  2.149968e+01    1.396912e+00
  2.151556e+01    1.416821e+00
  2.153143e+01    1.474641e+00
  2.154731e+01    1.516014e+00
  2.156319e+01    1.560509e+00
  2.157906e+01    1.613295e+00
  2.159494e+01    1.661533e+00
  2.161081e+01    1.729469e+00
  2.162669e+01    1.847422e+00
  2.164256e+01    1.953038e+00
  2.165844e+01    2.114034e+00
  2.167431e+01    2.313056e+00
  2.169019e+01    2.537955e+00
  2.170607e+01    2.749569e+00
  2.172194e+01    3.064626e+00
  2.173782e+01    3.520202e+00
  2.175369e+01    4.081143e+00
  2.176957e+01    4.592980e+00
  2.178544e+01    5.205847e+00
  2.180132e+01    5.778598e+00
  2.181719e+01    6.475441e+00
  2.183307e+01    7.133610e+00
  2.184895e+01    7.752038e+00
  2.186482e+01    8.362185e+00
  2.188070e+01    8.743785e+00
  2.189657e+01    8.886010e+00
  2.191245e+01    8.787185e+00
  2.192832e+01    8.337185e+00
  2.194420e+01    7.502647e+00
  2.196007e+01    6.553773e+00
  2.197595e+01    5.674671e+00
  2.199183e+01    4.848911e+00
  2.200770e+01    4.184062e+00
  2.202358e+01    3.616048e+00
  2.203945e+01    3.217201e+00
  2.205533e+01    2.851807e+00
  2.207120e+01    2.571692e+00
  2.208708e+01    2.359898e+00
  2.210296e+01    2.153259e+00
  2.211883e+01    2.018589e+00
  2.213471e+01    1.900428e+00
  2.215058e+01    1.774385e+00
  2.216646e+01    1.675750e+00
  2.218233e+01    1.596360e+00
  2.219821e+01    1.537266e+00
  2.221408e+01    1.495989e+00
  2.222996e+01    1.463248e+00
  2.224584e+01    1.429205e+00
  2.226171e+01    1.364842e+00
  2.227759e+01    1.324896e+00
  2.229346e+01    1.330651e+00
  2.230934e+01    1.318011e+00
  2.232521e+01    1.277828e+00
  2.234109e+01    1.265977e+00
  2.235696e+01    1.254532e+00
  2.237284e+01    1.219508e+00
  2.238872e+01    1.204966e+00
  2.240459e+01    1.220213e+00
  2.242047e+01    1.216749e+00
  2.243634e+01    1.186706e+00
  2.245222e+01    1.167961e+00
  2.246809e+01    1.140820e+00
  2.248397e+01    1.149630e+00
  2.249984e+01    1.154453e+00
  2.251572e+01    1.155741e+00
  2.253160e+01    1.134940e+00
  2.254747e+01    1.130339e+00
  2.256335e+01    1.134994e+00
  2.257922e+01    1.094630e+00
  2.259510e+01    1.099010e+00
  2.261097e+01    1.106502e+00
  2.262685e+01    1.126044e+00
  2.264272e+01    1.108281e+00
  2.265860e+01    1.064514e+00
  2.267448e+01    1.081841e+00
  2.269035e+01    1.079870e+00
  2.270623e+01    1.068022e+00
  2.272210e+01    1.066095e+00
  2.273798e+01    1.065203e+00
  2.275385e+01    1.094083e+00
  2.276973e+01    1.085353e+00
  2.278560e+01    1.060412e+00
  2.280148e+01    1.059566e+00
  2.281736e+01    1.051792e+00
  2.283323e+01    1.028847e+00
  2.284911e+01    1.052507e+00
  2.286498e+01    1.051101e+00
  2.288086e+01    1.030842e+00
  2.289673e+01    1.016958e+00
  2.291261e+01    1.018383e+00
  2.292848e+01    1.035606e+00
  2.294436e+01    1.020910e+00
  2.296024e+01    1.031151e+00
  2.297611e+01    1.017895e+00
  2.299199e+01    1.023354e+00
  2.300786e+01    1.011562e+00
  2.302374e+01    1.014579e+00
  2.303961e+01    1.014053e+00
  2.305549e+01    1.018298e+00
  2.307137e+01    9.934340e-01
  2.308724e+01    1.009342e+00
  2.310312e+01    1.021940e+00
  2.311899e+01    1.004771e+00
  2.313487e+01    9.937590e-01
  2.315074e+01    1.011884e+00
  2.316662e+01    1.001998e+00
  2.318249e+01    9.946688e-01
  2.319837e+01    1.000916e+00
  2.321425e+01    1.002919e+00
  2.323012e+01    1.007157e+00
  2.324600e+01    9.882259e-01
  2.326187e+01    9.812804e-01
  2.327775e+01    9.836932e-01
  2.329362e+01    9.840958e-01
  2.330950e+01    9.784586e-01
  2.332537e+01    9.931771e-01
  2.334125e+01    9.954692e-01
  2.335713e+01    9.938204e-01
  2.337300e+01    1.006242e+00
  2.338888e+01    9.775308e-01
  2.340475e+01    9.817722e-01
  2.342063e+01    9.904606e-01
  2.343650e+01    9.707700e-01
  2.345238e+01    9.732081e-01
  2.346825e+01    9.510282e-01
  2.348413e+01    9.619403e-01
  2.350001e+01    9.629731e-01
  2.351588e+01    9.612886e-01
  2.353176e+01    9.651890e-01
  2.354763e+01    9.570888e-01
  2.356351e+01    9.583672e-01
  2.357938e+01    9.804953e-01
  2.359526e+01    9.700763e-01
  2.361113e+01    9.797228e-01
  2.362701e+01    9.788500e-01
  2.364289e+01    9.387436e-01
  2.365876e+01    9.214873e-01
  2.367464e+01    9.448410e-01
  2.369051e+01    9.464042e-01
  2.370639e+01    9.331255e-01
  2.372226e+01    9.398949e-01
  2.373814e+01    9.509850e-01
  2.375401e+01    9.267522e-01
  2.376989e+01    9.176129e-01
  2.378577e+01    9.427305e-01
  2.380164e+01    9.078320e-01
  2.381752e+01    9.257947e-01
  2.383339e+01    9.264513e-01
  2.384927e+01    9.237455e-01
  2.386514e+01    9.277210e-01
  2.388102e+01    9.408038e-01
  2.389689e+01    9.220403e-01
  2.391277e+01    9.016535e-01
  2.392865e+01    8.926716e-01
  2.394452e+01    8.972567e-01
  2.396040e+01    9.054862e-01
  2.397627e+01    9.111586e-01
  2.399215e+01    9.136200e-01
  2.400802e+01    9.139357e-01
  2.402390e+01    9.140637e-01
  2.403978e+01    9.195175e-01
  2.405565e+01    9.251357e-01
  2.407153e+01    8.929676e-01
  2.408740e+01    8.965930e-01
  2.410328e+01    8.761259e-01
  2.411915e+01    8.748565e-01
  2.413503e+01    8.966888e-01
  2.415090e+01    8.950650e-01
  2.416678e+01    9.028816e-01
  2.418266e+01    8.811515e-01
  2.419853e+01    8.805805e-01
  2.421441e+01    8.810579e-01
  2.423028e+01    8.771927e-01
  2.424616e+01    8.731868e-01
  2.426203e+01    8.929904e-01
  2.427791e+01    9.024094e-01
  2.429378e+01    8.912618e-01
  2.430966e+01    8.961628e-01
  2.432554e+01    8.916951e-01
  2.434141e+01    9.005548e-01
  2.435729e+01    8.903975e-01
  2.437316e+01    9.006836e-01
  2.438904e+01    8.987945e-01
  2.440491e+01    8.891415e-01
  2.442079e+01    8.952522e-01
  2.443666e+01    8.995593e-01
  2.445254e+01    9.089202e-01
  2.446842e+01    8.819135e-01
  2.448429e+01    8.896947e-01
  2.450017e+01    8.986940e-01
  2.451604e+01    8.995826e-01
  2.453192e+01    8.981903e-01
  2.454779e+01    8.675923e-01
  2.456367e+01    8.763009e-01
  2.457954e+01    9.034104e-01
  2.459542e+01    8.986284e-01
  2.461130e+01    9.099173e-01
  2.462717e+01    8.949732e-01
  2.464305e+01    8.810531e-01
  2.465892e+01    8.923712e-01
  2.467480e+01    8.922070e-01
  2.469067e+01    8.946041e-01
  2.470655e+01    8.993669e-01
  2.472242e+01    8.986098e-01
  2.473830e+01    8.904569e-01
  2.475418e+01    8.842555e-01
  2.477005e+01    9.025384e-01
  2.478593e+01    8.941364e-01
  2.480180e+01    8.955874e-01
  2.481768e+01    8.882375e-01
  2.483355e+01    8.999862e-01
  2.484943e+01    8.940238e-01
  2.486530e+01    8.990714e-01
  2.488118e+01    8.920373e-01
  2.489706e+01    8.760648e-01
  2.491293e+01    8.803977e-01
  2.492881e+01    8.911700e-01
  2.494468e+01    8.905200e-01
  2.496056e+01    8.816159e-01
  2.497643e+01    9.195020e-01
  2.499231e+01    9.168057e-01
  2.500819e+01    8.956202e-01
  2.502406e+01    8.885192e-01
  2.503994e+01    9.095232e-01
  2.505581e+01    9.003531e-01
  2.507169e+01    8.943351e-01
  2.508756e+01    9.086413e-01
  2.510344e+01    9.147893e-01
  2.511931e+01    9.059115e-01
  2.513519e+01    8.968077e-01
  2.515107e+01    9.149474e-01
  2.516694e+01    9.262007e-01
  2.518282e+01    9.191806e-01
  2.519869e+01    9.288778e-01
  2.521457e+01    9.458290e-01
  2.523044e+01    9.139760e-01
  2.524632e+01    9.348716e-01
  2.526219e+01    9.458535e-01
  2.527807e+01    9.697273e-01
  2.529395e+01    9.585611e-01
  2.530982e+01    9.407440e-01
  2.532570e+01    9.512373e-01
  2.534157e+01    9.610277e-01
  2.535745e+01    9.732237e-01
  2.537332e+01    9.677889e-01
  2.538920e+01    9.814584e-01
  2.540507e+01    9.961410e-01
  2.542095e+01    9.966268e-01
  2.543683e+01    1.002346e+00
  2.545270e+01    1.013189e+00
  2.546858e+01    1.026149e+00
  2.548445e+01    1.026138e+00
  2.550033e+01    1.051397e+00
  2.551620e+01    1.073453e+00
  2.553208e+01    1.101434e+00
  2.554795e+01    1.121750e+00
  2.556383e+01    1.125069e+00
  2.557971e+01    1.148626e+00
  2.559558e+01    1.180495e+00
  2.561146e+01    1.218846e+00
  2.562733e+01    1.267825e+00
  2.564321e+01    1.329047e+00
  2.565908e+01    1.357328e+00
  2.567496e+01    1.412001e+00
  2.569083e+01    1.486926e+00
  2.570671e+01    1.573532e+00
  2.572259e+01    1.714800e+00
  2.573846e+01    1.854454e+00
  2.575434e+01    1.975259e+00
  2.577021e+01    2.177209e+00
  2.578609e+01    2.470862e+00
  2.580196e+01    2.786117e+00
  2.581784e+01    3.177549e+00
  2.583371e+01    3.603436e+00
  2.584959e+01    4.092651e+00
  2.586547e+01    4.674565e+00
  2.588134e+01    5.263813e+00
  2.589722e+01    5.817407e+00
  2.591309e+01    6.355118e+00
  2.592897e+01    6.750607e+00
  2.594484e+01    7.088881e+00
  2.596072e+01    7.124147e+00
  2.597660e+01    6.933772e+00
  2.599247e+01    6.563391e+00
  2.600835e+01    5.981370e+00
  2.602422e+01    5.332137e+00
  2.604010e+01    4.619779e+00
  2.605597e+01    4.002115e+00
  2.607185e+01    3.429860e+00
  2.608772e+01    3.003564e+00
  2.610360e+01    2.695478e+00
  2.611948e+01    2.394046e+00
  2.613535e+01    2.149846e+00
  2.615123e+01    1.960142e+00
  2.616710e+01    1.790710e+00
  2.618298e+01    1.659072e+00
  2.619885e+01    1.561919e+00
  2.621473e+01    1.486339e+00
  2.623060e+01    1.406582e+00
  2.624648e+01    1.346300e+00
  2.626236e+01    1.285772e+00
  2.627823e+01    1.228819e+00
  2.629411e+01    1.213340e+00
  2.630998e+01    1.203557e+00
  2.632586e+01    1.169358e+00
  2.634173e+01    1.135378e+00
  2.635761e+01    1.128474e+00
  2.637348e+01    1.097853e+00
  2.638936e+01    1.075711e+00
  2.640524e+01    1.079254e+00
  2.642111e+01    1.058180e+00
  2.643699e+01    1.035320e+00
  2.645286e+01    1.021459e+00
  2.646874e+01    1.012088e+00
  2.648461e+01    1.026886e+00
  2.650049e+01    1.018315e+00
  2.651636e+01    1.023018e+00
  2.653224e+01    1.016289e+00
  2.654812e+01    9.997882e-01
  2.656399e+01    9.971481e-01
  2.657987e+01    9.896229e-01
  2.659574e+01    9.850475e-01
  2.661162e+01    1.000618e+00
  2.662749e+01    9.881443e-01
  2.664337e+01    9.901337e-01
  2.665924e+01    9.865677e-01
  2.667512e+01    9.897975e-01
  2.669100e+01    9.787460e-01
  2.670687e+01    9.696474e-01
  2.672275e+01    9.764864e-01
  2.673862e+01    9.785369e-01
  2.675450e+01    9.920988e-01
  2.677037e+01    9.658505e-01
  2.678625e+01    9.671498e-01
  2.680212e+01    9.792590e-01
  2.681800e+01    9.637741e-01
  2.683388e+01    9.792353e-01
  2.684975e+01    1.006965e+00
  2.686563e+01    1.001191e+00
  2.688150e+01    9.882122e-01
  2.689738e+01    9.994681e-01
  2.691325e+01    1.010744e+00
  2.692913e+01    1.008898e+00
  2.694501e+01    1.027632e+00
  2.696088e+01    1.056765e+00
  2.697676e+01    1.060096e+00
  2.699263e+01    1.102852e+00
  2.700851e+01    1.120298e+00
  2.702438e+01    1.148771e+00
  2.704026e+01    1.196386e+00
  2.705613e+01    1.266522e+00
  2.707201e+01    1.312863e+00
  2.708789e+01    1.382410e+00
  2.710376e+01    1.487778e+00
  2.711964e+01    1.591953e+00
  2.713551e+01    1.757498e+00
  2.715139e+01    1.875970e+00
  2.716726e+01    1.983967e+00
  2.718314e+01    2.079979e+00
  2.719901e+01    2.161625e+00
  2.721489e+01    2.145327e+00
  2.723077e+01    2.150721e+00
  2.724664e+01    2.091634e+00
  2.726252e+01    1.988070e+00
  2.727839e+01    1.847362e+00
  2.729427e+01    1.733102e+00
  2.731014e+01    1.603743e+00
  2.732602e+01    1.462074e+00
  2.734189e+01    1.355317e+00
  2.735777e+01    1.282076e+00
  2.737365e+01    1.252056e+00
  2.738952e+01    1.185492e+00
  2.740540e+01    1.142636e+00
  2.742127e+01    1.097188e+00
  2.743715e+01    1.056956e+00
  2.745302e+01    1.047106e+00
  2.746890e+01    1.040089e+00
  2.748477e+01    1.007470e+00
  2.750065e+01    9.824123e-01
  2.751653e+01    9.786818e-01
  2.753240e+01    9.675581e-01
  2.754828e+01    9.537180e-01
  2.756415e+01    9.367160e-01
  2.758003e+01    9.227728e-01
  2.759590e+01    9.243461e-01
  2.761178e+01    9.070333e-01
  2.762765e+01    9.273051e-01
  2.764353e+01    9.173260e-01
  2.765941e+01    9.099829e-01
  2.767528e+01    9.089414e-01
  2.769116e+01    9.029861e-01
  2.770703e+01    8.892775e-01
  2.772291e+01    9.090042e-01
  2.773878e+01    9.010720e-01
  2.775466e+01    9.002210e-01
  2.777054e+01    8.988599e-01
  2.778641e+01    8.942187e-01
  2.780229e+01    8.888026e-01
  2.781816e+01    8.965177e-01
  2.783404e+01    8.830000e-01
  2.784991e+01    8.609352e-01
  2.786579e+01    8.706081e-01
  2.788166e+01    8.888956e-01
  2.789754e+01    8.919768e-01
  2.791342e+01    8.817863e-01
  2.792929e+01    8.981990e-01
  2.794517e+01    8.879750e-01
  2.796104e+01    8.699061e-01
  2.797692e+01    8.832694e-01
  2.799279e+01    8.672148e-01
  2.800867e+01    8.603877e-01
  2.802454e+01    8.579941e-01
  2.804042e+01    8.562667e-01
  2.805630e+01    8.595646e-01
  2.807217e+01    8.710601e-01
  2.808805e+01    8.830557e-01
  2.810392e+01    8.581863e-01
  2.811980e+01    8.832843e-01
  2.813567e+01    8.576470e-01
  2.815155e+01    8.564999e-01
  2.816742e+01    8.546422e-01
  2.818330e+01    8.371897e-01
  2.819918e+01    8.580584e-01
  2.821505e+01    8.777586e-01
  2.823093e+01    8.619478e-01
  2.824680e+01    8.402061e-01
  2.826268e+01    8.364875e-01
  2.827855e+01    8.551501e-01
  2.829443e+01    8.460708e-01
  2.831030e+01    8.489448e-01
  2.832618e+01    8.391670e-01
  2.834206e+01    8.436323e-01
  2.835793e+01    8.501539e-01
  2.837381e+01    8.535790e-01
  2.838968e+01    8.494416e-01
  2.840556e+01    8.359338e-01
  2.842143e+01    8.260242e-01
  2.843731e+01    8.491071e-01
  2.845318e+01    8.409823e-01
  2.846906e+01    8.501348e-01
  2.848494e+01    8.440126e-01
  2.850081e+01    8.358974e-01
  2.851669e+01    8.228612e-01
  2.853256e+01    8.360084e-01
  2.854844e+01    8.339965e-01
  2.856431e+01    8.149413e-01
  2.858019e+01    8.361255e-01
  2.859606e+01    8.368992e-01
  2.861194e+01    8.438287e-01
  2.862782e+01    8.481829e-01
  2.864369e+01    8.436781e-01
  2.865957e+01    8.306267e-01
  2.867544e+01    8.221667e-01
  2.869132e+01    8.213122e-01
  2.870719e+01    8.197234e-01
  2.872307e+01    8.304877e-01
  2.873895e+01    8.389481e-01
  2.875482e+01    8.454157e-01
  2.877070e+01    8.434244e-01
  2.878657e+01    8.250154e-01
  2.880245e+01    8.280055e-01
  2.881832e+01    8.290366e-01
  2.883420e+01    8.457382e-01
  2.885007e+01    8.397626e-01
  2.886595e+01    8.249580e-01
  2.888183e+01    8.314668e-01
  2.889770e+01    8.431588e-01
  2.891358e+01    8.170773e-01
  2.892945e+01    8.391922e-01
  2.894533e+01    8.312413e-01
  2.896120e+01    7.949918e-01
  2.897708e+01    8.040642e-01
  2.899295e+01    8.458388e-01
  2.900883e+01    8.213971e-01
  2.902471e+01    7.890744e-01
  2.904058e+01    8.089084e-01
  2.905646e+01    8.348553e-01
  2.907233e+01    8.141522e-01
  2.908821e+01    8.311527e-01
  2.910408e+01    8.225473e-01
  2.911996e+01    8.118938e-01
  2.913583e+01    8.279851e-01
  2.915171e+01    8.207111e-01
  2.916759e+01    8.301870e-01
  2.918346e+01    8.242207e-01
  2.919934e+01    8.215904e-01
  2.921521e+01    8.191445e-01
  2.923109e+01    8.184844e-01
  2.924696e+01    8.430587e-01
  2.926284e+01    8.280163e-01
  2.927871e+01    7.999716e-01
  2.929459e+01    8.098853e-01
  2.931047e+01    8.138174e-01
  2.932634e+01    8.111758e-01
  2.934222e+01    7.958093e-01
  2.935809e+01    8.094198e-01
  2.937397e+01    8.080800e-01
  2.938984e+01    8.315411e-01
  2.940572e+01    8.251732e-01
  2.942159e+01    8.112847e-01
  2.943747e+01    8.287213e-01
  2.945335e+01    8.217244e-01
  2.946922e+01    8.018600e-01
  2.948510e+01    7.770923e-01
  2.950097e+01    8.111953e-01
  2.951685e+01    8.184718e-01
  2.953272e+01    8.039390e-01
  2.954860e+01    8.242082e-01
  2.956447e+01    8.022200e-01
  2.958035e+01    8.035941e-01
  2.959623e+01    7.832639e-01
  2.961210e+01    8.109420e-01
  2.962798e+01    8.109202e-01
  2.964385e+01    8.095114e-01
  2.965973e+01    8.046429e-01
  2.967560e+01    7.974346e-01
  2.969148e+01    7.992846e-01
  2.970736e+01    8.059574e-01
  2.972323e+01    7.873545e-01
  2.973911e+01    8.208327e-01
  2.975498e+01    8.223731e-01
  2.977086e+01    8.163095e-01
  2.978673e+01    8.168835e-01
  2.980261e+01    7.984583e-01
  2.981848e+01    8.056629e-01
  2.983436e+01    8.179704e-01
  2.985024e+01    7.958512e-01
  2.986611e+01    8.052359e-01
  2.988199e+01    7.818717e-01
  2.989786e+01    7.998412e-01
  2.991374e+01    7.929917e-01
  2.992961e+01    7.829855e-01
  2.994549e+01    7.953613e-01
  2.996136e+01    7.923121e-01
  2.997724e+01    8.104097e-01
  2.999312e+01    7.903178e-01
  3.000899e+01    7.922792e-01
  3.002487e+01    8.190438e-01
  3.004074e+01    8.174378e-01
  3.005662e+01    8.055696e-01
  3.007249e+01    8.080265e-01
  3.008837e+01    8.196421e-01
  3.010424e+01    8.022497e-01
  3.012012e+01    7.913659e-01
  3.013600e+01    8.081230e-01
  3.015187e+01    7.980909e-01
  3.016775e+01    7.788766e-01
  3.018362e+01    7.913796e-01
  3.019950e+01    8.041880e-01
  3.021537e+01    8.062787e-01
  3.023125e+01    7.929767e-01
  3.024712e+01    7.851834e-01
  3.026300e+01    7.737229e-01
  3.027888e+01    7.676467e-01
  3.029475e+01    7.755340e-01
  3.031063e+01    8.136057e-01
  3.032650e+01    8.013998e-01
  3.034238e+01    8.162773e-01
  3.035825e+01    8.104144e-01
  3.037413e+01    7.814277e-01
  3.039000e+01    7.895824e-01
  3.040588e+01    7.672570e-01
  3.042176e+01    8.005780e-01
  3.043763e+01    7.804654e-01
  3.045351e+01    7.659078e-01
  3.046938e+01    7.713690e-01
  3.048526e+01    7.798505e-01
  3.050113e+01    7.571037e-01
  3.051701e+01    7.885135e-01
  3.053288e+01    7.859495e-01
  3.054876e+01    7.837653e-01
  3.056464e+01    7.655830e-01
  3.058051e+01    7.799538e-01
  3.059639e+01    7.980701e-01
  3.061226e+01    7.898134e-01
  3.062814e+01    7.679057e-01
  3.064401e+01    7.829860e-01
  3.065989e+01    7.938962e-01
  3.067577e+01    7.899230e-01
  3.069164e+01    7.753593e-01
  3.070752e+01    7.832091e-01
  3.072339e+01    7.869087e-01
  3.073927e+01    7.785055e-01
  3.075514e+01    7.930744e-01
  3.077102e+01    7.911490e-01
  3.078689e+01    7.924243e-01
  3.080277e+01    7.875987e-01
  3.081865e+01    7.588645e-01
  3.083452e+01    7.866576e-01
  3.085040e+01    7.840132e-01
  3.086627e+01    7.784938e-01
  3.088215e+01    7.910231e-01
  3.089802e+01    7.873572e-01
  3.091390e+01    7.808554e-01
  3.092977e+01    7.782890e-01
  3.094565e+01    7.948135e-01
  3.096153e+01    7.975419e-01
  3.097740e+01    7.908901e-01
  3.099328e+01    7.910414e-01
  3.100915e+01    7.840928e-01
  3.102503e+01    8.010572e-01
  3.104090e+01    8.041847e-01
  3.105678e+01    7.848378e-01
  3.107265e+01    8.068635e-01
  3.108853e+01    7.998371e-01
  3.110441e+01    8.156121e-01
  3.112028e+01    8.028914e-01
  3.113616e+01    7.875682e-01
  3.115203e+01    7.894052e-01
  3.116791e+01    8.018234e-01
  3.118378e+01    7.937163e-01
  3.119966e+01    8.116693e-01
  3.121553e+01    7.992771e-01
  3.123141e+01    8.056387e-01
  3.124729e+01    8.043841e-01
  3.126316e+01    7.904464e-01
  3.127904e+01    7.839286e-01
  3.129491e+01    7.934086e-01
  3.131079e+01    7.843886e-01
  3.132666e+01    7.851067e-01
  3.134254e+01    8.090919e-01
  3.135841e+01    8.104900e-01
  3.137429e+01    8.194095e-01
  3.139017e+01    7.993077e-01
  3.140604e+01    7.950253e-01
  3.142192e+01    8.038083e-01
  3.143779e+01    8.114253e-01
  3.145367e+01    8.033767e-01
  3.146954e+01    8.251600e-01
  3.148542e+01    8.176420e-01
  3.150129e+01    8.236455e-01
  3.151717e+01    8.417470e-01
  3.153305e+01    8.518657e-01
  3.154892e+01    8.573399e-01
  3.156480e+01    8.506252e-01
  3.158067e+01    8.555033e-01
  3.159655e+01    8.789991e-01
  3.161242e+01    8.873187e-01
  3.162830e+01    9.204607e-01
  3.164418e+01    9.131222e-01
  3.166005e+01    9.356755e-01
  3.167593e+01    9.709331e-01
  3.169180e+01    9.874708e-01
  3.170768e+01    1.046184e+00
  3.172355e+01    1.079246e+00
  3.173943e+01    1.097008e+00
  3.175530e+01    1.168983e+00
  3.177118e+01    1.265781e+00
  3.178706e+01    1.366935e+00
  3.180293e+01    1.471991e+00
  3.181881e+01    1.573489e+00
  3.183468e+01    1.725954e+00
  3.185056e+01    1.825386e+00
  3.186643e+01    1.909234e+00
  3.188231e+01    2.060457e+00
  3.189818e+01    2.107720e+00
  3.191406e+01    2.088140e+00
  3.192994e+01    2.040010e+00
  3.194581e+01    1.946485e+00
  3.196169e+01    1.838746e+00
  3.197756e+01    1.696947e+00
  3.199344e+01    1.548463e+00
  3.200931e+01    1.429474e+00
  3.202519e+01    1.320426e+00
  3.204106e+01    1.217997e+00
  3.205694e+01    1.150350e+00
  3.207282e+01    1.098167e+00
  3.208869e+01    1.042543e+00
  3.210457e+01    9.898431e-01
  3.212044e+01    9.663435e-01
  3.213632e+01    9.519967e-01
  3.215219e+01    9.170163e-01
  3.216807e+01    8.841588e-01
  3.218394e+01    8.806772e-01
  3.219982e+01    8.729523e-01
  3.221570e+01    8.597654e-01
  3.223157e+01    8.788748e-01
  3.224745e+01    8.469974e-01
  3.226332e+01    7.852791e-01
  3.227920e+01    8.052678e-01
  3.229507e+01    8.309519e-01
  3.231095e+01    8.063121e-01
  3.232682e+01    8.083106e-01
  3.234270e+01    8.283771e-01
  3.235858e+01    8.038783e-01
  3.237445e+01    7.877584e-01
  3.239033e+01    7.998825e-01
  3.240620e+01    8.191723e-01
  3.242208e+01    8.095439e-01
  3.243795e+01    7.850707e-01
  3.245383e+01    7.850516e-01
  3.246970e+01    7.882312e-01
  3.248558e+01    7.912385e-01
  3.250146e+01    7.913976e-01
  3.251733e+01    7.732647e-01
  3.253321e+01    7.813173e-01
  3.254908e+01    7.930132e-01
