# == pyFAI calibration ==
# Distance Sample to Detector: 0.3999999939076516 m
# PONI: 9.750e-02, 1.135e-01 m
# Rotations: -0.000175 0.000000 -0.000000 rad
# 
# == Fit2d calibration ==
# Distance Sample-beamCenter: 400.000 mm
# Center: x=1514.000, y=1300.000 pix
# Tilt: 0.010 deg  TiltPlanRot: 0.010 deg
# 
# Detector Detector	 Spline= None	 PixelSize= 7.500e-05, 7.500e-05 m
#    Detector has a mask: False 
#    Detector has a dark current: False 
#    detector has a flat field: False 
# 
# Wavelength: 6.888e-11 m
# Mask applied: user provided
# Dark current applied: False
# Flat field applied: False
# Polarization factor: 0.99
# Normalization factor: 1.0
# --> /home/myspot/data/2024_07_Rosario/Ru-CGO-ex/2024-07-27_003_Ru-CGO-ex_Reaction_dwell_000023_data_000033.dat
#       q_nm^-1             I 
  2.003187e-02    0.000000e+00
  3.590745e-02    0.000000e+00
  5.178302e-02    4.717196e-02
  6.765859e-02    7.294159e-02
  8.353417e-02    1.562886e-01
  9.940974e-02    1.239627e-01
  1.152853e-01    5.085481e-02
  1.311609e-01    2.306544e-03
  1.470365e-01    2.606170e-02
  1.629120e-01    1.371203e-02
  1.787876e-01    1.086522e-01
  1.946632e-01    9.023671e-02
  2.105388e-01    1.766115e-02
  2.264143e-01    5.146668e-02
  2.422899e-01    3.876125e-02
  2.581655e-01    3.307243e-02
  2.740411e-01    5.355817e-02
  2.899166e-01    1.983718e-02
  3.057922e-01    1.811777e-02
  3.216678e-01    5.283749e-02
  3.375433e-01    7.652199e-02
  3.534189e-01    5.767023e-02
  3.692945e-01    4.902428e-02
  3.851701e-01    2.198495e-02
  4.010456e-01    6.542332e-02
  4.169212e-01    4.631476e-02
  4.327968e-01    3.288370e-02
  4.486724e-01    3.370918e-02
  4.645479e-01    4.524303e-02
  4.804235e-01    4.458496e-02
  4.962991e-01    3.120390e-02
  5.121747e-01    4.870923e-02
  5.280502e-01    4.706158e-02
  5.439258e-01    3.423833e-02
  5.598014e-01    5.636792e-02
  5.756770e-01    4.510758e-02
  5.915525e-01    4.213978e-02
  6.074281e-01    1.571775e-02
  6.233037e-01    1.764046e-02
  6.391793e-01    2.159933e-02
  6.550548e-01    5.461866e-02
  6.709304e-01    6.636171e-02
  6.868060e-01    6.334080e-02
  7.026815e-01    3.418524e-02
  7.185571e-01    1.684621e-02
  7.344327e-01    3.368795e-02
  7.503083e-01    4.925216e-02
  7.661838e-01    7.749771e-02
  7.820594e-01    1.187152e-01
  7.979350e-01    1.674619e-01
  8.138106e-01    1.963089e-01
  8.296861e-01    3.141685e-01
  8.455617e-01    4.159893e-01
  8.614373e-01    3.836158e-01
  8.773129e-01    4.245577e-01
  8.931884e-01    5.883974e-01
  9.090640e-01    6.242489e-01
  9.249396e-01    6.761758e-01
  9.408152e-01    7.892691e-01
  9.566907e-01    8.691555e-01
  9.725663e-01    9.716607e-01
  9.884419e-01    1.080178e+00
  1.004317e+00    1.259289e+00
  1.020193e+00    1.357442e+00
  1.036069e+00    1.340312e+00
  1.051944e+00    1.309827e+00
  1.067820e+00    1.380848e+00
  1.083695e+00    1.415147e+00
  1.099571e+00    1.502980e+00
  1.115446e+00    1.608097e+00
  1.131322e+00    1.658987e+00
  1.147198e+00    1.640890e+00
  1.163073e+00    1.722318e+00
  1.178949e+00    1.810176e+00
  1.194824e+00    1.835644e+00
  1.210700e+00    1.964324e+00
  1.226575e+00    2.225440e+00
  1.242451e+00    2.526265e+00
  1.258327e+00    2.561515e+00
  1.274202e+00    2.535012e+00
  1.290078e+00    2.561038e+00
  1.305953e+00    2.668355e+00
  1.321829e+00    2.774573e+00
  1.337705e+00    2.810010e+00
  1.353580e+00    2.887465e+00
  1.369456e+00    2.930153e+00
  1.385331e+00    2.840781e+00
  1.401207e+00    2.807145e+00
  1.417082e+00    2.888531e+00
  1.432958e+00    3.011114e+00
  1.448834e+00    3.108351e+00
  1.464709e+00    3.029977e+00
  1.480585e+00    3.017867e+00
  1.496460e+00    3.005013e+00
  1.512336e+00    3.125651e+00
  1.528211e+00    3.261710e+00
  1.544087e+00    3.255104e+00
  1.559963e+00    3.149854e+00
  1.575838e+00    3.267956e+00
  1.591714e+00    3.238522e+00
  1.607589e+00    3.172826e+00
  1.623465e+00    3.069283e+00
  1.639340e+00    3.084542e+00
  1.655216e+00    3.075791e+00
  1.671092e+00    3.048175e+00
  1.686967e+00    3.110943e+00
  1.702843e+00    3.024441e+00
  1.718718e+00    3.032454e+00
  1.734594e+00    3.133845e+00
  1.750469e+00    3.089872e+00
  1.766345e+00    3.049765e+00
  1.782221e+00    3.052741e+00
  1.798096e+00    3.161083e+00
  1.813972e+00    3.119071e+00
  1.829847e+00    3.041030e+00
  1.845723e+00    3.033224e+00
  1.861598e+00    3.029652e+00
  1.877474e+00    3.062318e+00
  1.893350e+00    3.138461e+00
  1.909225e+00    3.196091e+00
  1.925101e+00    2.997991e+00
  1.940976e+00    3.057437e+00
  1.956852e+00    3.021845e+00
  1.972727e+00    3.019085e+00
  1.988603e+00    3.010400e+00
  2.004479e+00    2.993069e+00
  2.020354e+00    2.996275e+00
  2.036230e+00    3.161075e+00
  2.052105e+00    3.110919e+00
  2.067981e+00    3.064113e+00
  2.083856e+00    3.181736e+00
  2.099732e+00    3.136628e+00
  2.115608e+00    3.034291e+00
  2.131483e+00    3.020060e+00
  2.147359e+00    3.074250e+00
  2.163234e+00    3.135789e+00
  2.179110e+00    3.110087e+00
  2.194985e+00    3.055119e+00
  2.210861e+00    3.160308e+00
  2.226737e+00    3.122318e+00
  2.242612e+00    3.259093e+00
  2.258488e+00    3.206657e+00
  2.274363e+00    3.192234e+00
  2.290239e+00    3.127151e+00
  2.306115e+00    3.095402e+00
  2.321990e+00    3.088653e+00
  2.337866e+00    3.239867e+00
  2.353741e+00    3.259233e+00
  2.369617e+00    3.067504e+00
  2.385492e+00    3.057416e+00
  2.401368e+00    3.055947e+00
  2.417244e+00    3.203553e+00
  2.433119e+00    3.273456e+00
  2.448995e+00    3.117285e+00
  2.464870e+00    3.114467e+00
  2.480746e+00    3.144234e+00
  2.496621e+00    3.128599e+00
  2.512497e+00    3.076605e+00
  2.528373e+00    3.148485e+00
  2.544248e+00    3.236899e+00
  2.560124e+00    3.347377e+00
  2.575999e+00    3.229418e+00
  2.591875e+00    3.222242e+00
  2.607750e+00    3.250303e+00
  2.623626e+00    3.194538e+00
  2.639502e+00    3.207507e+00
  2.655377e+00    3.249124e+00
  2.671253e+00    3.247658e+00
  2.687128e+00    3.203548e+00
  2.703004e+00    3.282503e+00
  2.718879e+00    3.276292e+00
  2.734755e+00    3.217327e+00
  2.750631e+00    3.147496e+00
  2.766506e+00    3.214992e+00
  2.782382e+00    3.268075e+00
  2.798257e+00    3.205707e+00
  2.814133e+00    3.270773e+00
  2.830008e+00    3.438211e+00
  2.845884e+00    3.361872e+00
  2.861760e+00    3.192737e+00
  2.877635e+00    3.203016e+00
  2.893511e+00    3.238279e+00
  2.909386e+00    3.300110e+00
  2.925262e+00    3.361926e+00
  2.941137e+00    3.349539e+00
  2.957013e+00    3.274610e+00
  2.972889e+00    3.284323e+00
  2.988764e+00    3.245822e+00
  3.004640e+00    3.279935e+00
  3.020515e+00    3.326537e+00
  3.036391e+00    3.462363e+00
  3.052266e+00    3.344747e+00
  3.068142e+00    3.306407e+00
  3.084018e+00    3.331474e+00
  3.099893e+00    3.360523e+00
  3.115769e+00    3.403445e+00
  3.131644e+00    3.418612e+00
  3.147520e+00    3.353620e+00
  3.163395e+00    3.385453e+00
  3.179271e+00    3.491145e+00
  3.195147e+00    3.450685e+00
  3.211022e+00    3.373264e+00
  3.226898e+00    3.351155e+00
  3.242773e+00    3.414324e+00
  3.258649e+00    3.379922e+00
  3.274525e+00    3.420244e+00
  3.290400e+00    3.413368e+00
  3.306276e+00    3.425474e+00
  3.322151e+00    3.411541e+00
  3.338027e+00    3.325753e+00
  3.353902e+00    3.394837e+00
  3.369778e+00    3.523657e+00
  3.385654e+00    3.397260e+00
  3.401529e+00    3.350268e+00
  3.417405e+00    3.388020e+00
  3.433280e+00    3.395497e+00
  3.449156e+00    3.406637e+00
  3.465031e+00    3.406000e+00
  3.480907e+00    3.368377e+00
  3.496783e+00    3.430720e+00
  3.512658e+00    3.485564e+00
  3.528534e+00    3.508954e+00
  3.544409e+00    3.509663e+00
  3.560285e+00    3.510156e+00
  3.576160e+00    3.565763e+00
  3.592036e+00    3.533279e+00
  3.607912e+00    3.479771e+00
  3.623787e+00    3.401498e+00
  3.639663e+00    3.427730e+00
  3.655538e+00    3.419718e+00
  3.671414e+00    3.427572e+00
  3.687289e+00    3.515234e+00
  3.703165e+00    3.554967e+00
  3.719041e+00    3.468334e+00
  3.734916e+00    3.518728e+00
  3.750792e+00    3.429686e+00
  3.766667e+00    3.492523e+00
  3.782543e+00    3.548744e+00
  3.798418e+00    3.548428e+00
  3.814294e+00    3.489524e+00
  3.830170e+00    3.443386e+00
  3.846045e+00    3.453013e+00
  3.861921e+00    3.487851e+00
  3.877796e+00    3.497745e+00
  3.893672e+00    3.495742e+00
  3.909547e+00    3.480964e+00
  3.925423e+00    3.537388e+00
  3.941299e+00    3.515935e+00
  3.957174e+00    3.476872e+00
  3.973050e+00    3.551173e+00
  3.988925e+00    3.596206e+00
  4.004801e+00    3.510953e+00
  4.020676e+00    3.463837e+00
  4.036552e+00    3.566514e+00
  4.052428e+00    3.585774e+00
  4.068303e+00    3.541994e+00
  4.084179e+00    3.524842e+00
  4.100054e+00    3.636382e+00
  4.115930e+00    3.532936e+00
  4.131806e+00    3.543611e+00
  4.147681e+00    3.623371e+00
  4.163557e+00    3.557748e+00
  4.179432e+00    3.546950e+00
  4.195308e+00    3.660076e+00
  4.211183e+00    3.598821e+00
  4.227059e+00    3.575184e+00
  4.242935e+00    3.472212e+00
  4.258810e+00    3.560848e+00
  4.274686e+00    3.608172e+00
  4.290561e+00    3.631813e+00
  4.306437e+00    3.532459e+00
  4.322312e+00    3.559424e+00
  4.338188e+00    3.595977e+00
  4.354064e+00    3.525279e+00
  4.369939e+00    3.621363e+00
  4.385815e+00    3.651993e+00
  4.401690e+00    3.717870e+00
  4.417566e+00    3.670110e+00
  4.433441e+00    3.587044e+00
  4.449317e+00    3.621320e+00
  4.465193e+00    3.538658e+00
  4.481068e+00    3.611015e+00
  4.496944e+00    3.680682e+00
  4.512819e+00    3.627043e+00
  4.528695e+00    3.548651e+00
  4.544570e+00    3.528944e+00
  4.560446e+00    3.634184e+00
  4.576322e+00    3.704725e+00
  4.592197e+00    3.598501e+00
  4.608073e+00    3.574790e+00
  4.623948e+00    3.595238e+00
  4.639824e+00    3.562482e+00
  4.655699e+00    3.627218e+00
  4.671575e+00    3.662191e+00
  4.687451e+00    3.609390e+00
  4.703326e+00    3.604275e+00
  4.719202e+00    3.615101e+00
  4.735077e+00    3.649442e+00
  4.750953e+00    3.637919e+00
  4.766828e+00    3.648463e+00
  4.782704e+00    3.655959e+00
  4.798580e+00    3.663672e+00
  4.814455e+00    3.563849e+00
  4.830331e+00    3.626775e+00
  4.846206e+00    3.651306e+00
  4.862082e+00    3.648311e+00
  4.877957e+00    3.652175e+00
  4.893833e+00    3.645157e+00
  4.909709e+00    3.612243e+00
  4.925584e+00    3.691660e+00
  4.941460e+00    3.624073e+00
  4.957335e+00    3.582460e+00
  4.973211e+00    3.636231e+00
  4.989086e+00    3.663691e+00
  5.004962e+00    3.736725e+00
  5.020838e+00    3.640291e+00
  5.036713e+00    3.661271e+00
  5.052589e+00    3.642191e+00
  5.068464e+00    3.665513e+00
  5.084340e+00    3.684250e+00
  5.100216e+00    3.586488e+00
  5.116091e+00    3.645415e+00
  5.131967e+00    3.623218e+00
  5.147842e+00    3.564208e+00
  5.163718e+00    3.548677e+00
  5.179593e+00    3.639092e+00
  5.195469e+00    3.659662e+00
  5.211345e+00    3.691895e+00
  5.227220e+00    3.761878e+00
  5.243096e+00    3.759809e+00
  5.258971e+00    3.740943e+00
  5.274847e+00    3.712344e+00
  5.290722e+00    3.679181e+00
  5.306598e+00    3.658238e+00
  5.322474e+00    3.653788e+00
  5.338349e+00    3.618727e+00
  5.354225e+00    3.659979e+00
  5.370100e+00    3.639059e+00
  5.385976e+00    3.579860e+00
  5.401851e+00    3.643424e+00
  5.417727e+00    3.635005e+00
  5.433603e+00    3.662509e+00
  5.449478e+00    3.643133e+00
  5.465354e+00    3.626616e+00
  5.481229e+00    3.664507e+00
  5.497105e+00    3.676674e+00
  5.512980e+00    3.669540e+00
  5.528856e+00    3.587699e+00
  5.544732e+00    3.699671e+00
  5.560607e+00    3.686616e+00
  5.576483e+00    3.645243e+00
  5.592358e+00    3.664784e+00
  5.608234e+00    3.523405e+00
  5.624109e+00    3.544000e+00
  5.639985e+00    3.607330e+00
  5.655861e+00    3.632115e+00
  5.671736e+00    3.628778e+00
  5.687612e+00    3.592043e+00
  5.703487e+00    3.603035e+00
  5.719363e+00    3.657198e+00
  5.735238e+00    3.643431e+00
  5.751114e+00    3.614402e+00
  5.766990e+00    3.566245e+00
  5.782865e+00    3.515684e+00
  5.798741e+00    3.583717e+00
  5.814616e+00    3.587265e+00
  5.830492e+00    3.570990e+00
  5.846367e+00    3.516266e+00
  5.862243e+00    3.585256e+00
  5.878119e+00    3.584964e+00
  5.893994e+00    3.520455e+00
  5.909870e+00    3.540589e+00
  5.925745e+00    3.500869e+00
  5.941621e+00    3.600068e+00
  5.957497e+00    3.518645e+00
  5.973372e+00    3.494357e+00
  5.989248e+00    3.542118e+00
  6.005123e+00    3.608785e+00
  6.020999e+00    3.581921e+00
  6.036874e+00    3.643082e+00
  6.052750e+00    3.597449e+00
  6.068626e+00    3.519182e+00
  6.084501e+00    3.510822e+00
  6.100377e+00    3.528872e+00
  6.116252e+00    3.649575e+00
  6.132128e+00    3.692332e+00
  6.148003e+00    3.661082e+00
  6.163879e+00    3.628484e+00
  6.179755e+00    3.559753e+00
  6.195630e+00    3.521907e+00
  6.211506e+00    3.487711e+00
  6.227381e+00    3.564510e+00
  6.243257e+00    3.616210e+00
  6.259132e+00    3.590874e+00
  6.275008e+00    3.530968e+00
  6.290884e+00    3.580037e+00
  6.306759e+00    3.587742e+00
  6.322635e+00    3.513986e+00
  6.338510e+00    3.604277e+00
  6.354386e+00    3.618978e+00
  6.370261e+00    3.578306e+00
  6.386137e+00    3.587401e+00
  6.402013e+00    3.473835e+00
  6.417888e+00    3.513071e+00
  6.433764e+00    3.475976e+00
  6.449639e+00    3.593113e+00
  6.465515e+00    3.639266e+00
  6.481390e+00    3.547206e+00
  6.497266e+00    3.517868e+00
  6.513142e+00    3.529299e+00
  6.529017e+00    3.608582e+00
  6.544893e+00    3.612777e+00
  6.560768e+00    3.585711e+00
  6.576644e+00    3.560041e+00
  6.592519e+00    3.619933e+00
  6.608395e+00    3.598449e+00
  6.624271e+00    3.554625e+00
  6.640146e+00    3.539955e+00
  6.656022e+00    3.593421e+00
  6.671897e+00    3.556810e+00
  6.687773e+00    3.503500e+00
  6.703648e+00    3.480012e+00
  6.719524e+00    3.513149e+00
  6.735400e+00    3.580400e+00
  6.751275e+00    3.555676e+00
  6.767151e+00    3.552553e+00
  6.783026e+00    3.625801e+00
  6.798902e+00    3.518765e+00
  6.814777e+00    3.557171e+00
  6.830653e+00    3.537441e+00
  6.846529e+00    3.614875e+00
  6.862404e+00    3.629297e+00
  6.878280e+00    3.570322e+00
  6.894155e+00    3.550684e+00
  6.910031e+00    3.533196e+00
  6.925907e+00    3.478518e+00
  6.941782e+00    3.525465e+00
  6.957658e+00    3.533113e+00
  6.973533e+00    3.488903e+00
  6.989409e+00    3.512444e+00
  7.005284e+00    3.454260e+00
  7.021160e+00    3.545460e+00
  7.037036e+00    3.525962e+00
  7.052911e+00    3.457457e+00
  7.068787e+00    3.542979e+00
  7.084662e+00    3.513972e+00
  7.100538e+00    3.501542e+00
  7.116413e+00    3.520419e+00
  7.132289e+00    3.575363e+00
  7.148165e+00    3.534084e+00
  7.164040e+00    3.523177e+00
  7.179916e+00    3.483503e+00
  7.195791e+00    3.603222e+00
  7.211667e+00    3.629494e+00
  7.227542e+00    3.458610e+00
  7.243418e+00    3.467486e+00
  7.259294e+00    3.492413e+00
  7.275169e+00    3.508218e+00
  7.291045e+00    3.551371e+00
  7.306920e+00    3.549375e+00
  7.322796e+00    3.550834e+00
  7.338671e+00    3.589313e+00
  7.354547e+00    3.626007e+00
  7.370423e+00    3.483306e+00
  7.386298e+00    3.494791e+00
  7.402174e+00    3.482844e+00
  7.418049e+00    3.490803e+00
  7.433925e+00    3.553079e+00
  7.449800e+00    3.583138e+00
  7.465676e+00    3.504776e+00
  7.481552e+00    3.486380e+00
  7.497427e+00    3.490815e+00
  7.513303e+00    3.473391e+00
  7.529178e+00    3.449400e+00
  7.545054e+00    3.440485e+00
  7.560929e+00    3.455888e+00
  7.576805e+00    3.485064e+00
  7.592681e+00    3.465928e+00
  7.608556e+00    3.441363e+00
  7.624432e+00    3.457313e+00
  7.640307e+00    3.443161e+00
  7.656183e+00    3.478672e+00
  7.672058e+00    3.441501e+00
  7.687934e+00    3.477093e+00
  7.703810e+00    3.485496e+00
  7.719685e+00    3.394780e+00
  7.735561e+00    3.411832e+00
  7.751436e+00    3.453933e+00
  7.767312e+00    3.428189e+00
  7.783187e+00    3.429932e+00
  7.799063e+00    3.425608e+00
  7.814939e+00    3.432373e+00
  7.830814e+00    3.456321e+00
  7.846690e+00    3.478817e+00
  7.862565e+00    3.462254e+00
  7.878441e+00    3.463111e+00
  7.894317e+00    3.467789e+00
  7.910192e+00    3.432660e+00
  7.926068e+00    3.514053e+00
  7.941943e+00    3.488580e+00
  7.957819e+00    3.493845e+00
  7.973694e+00    3.408359e+00
  7.989570e+00    3.388448e+00
  8.005446e+00    3.383854e+00
  8.021321e+00    3.423473e+00
  8.037197e+00    3.384710e+00
  8.053072e+00    3.442442e+00
  8.068948e+00    3.423567e+00
  8.084823e+00    3.399639e+00
  8.100699e+00    3.427077e+00
  8.116575e+00    3.462379e+00
  8.132450e+00    3.531544e+00
  8.148326e+00    3.512016e+00
  8.164201e+00    3.489175e+00
  8.180077e+00    3.446558e+00
  8.195952e+00    3.514710e+00
  8.211828e+00    3.476834e+00
  8.227704e+00    3.441280e+00
  8.243579e+00    3.440436e+00
  8.259455e+00    3.487051e+00
  8.275330e+00    3.488636e+00
  8.291206e+00    3.404327e+00
  8.307081e+00    3.383195e+00
  8.322957e+00    3.434357e+00
  8.338833e+00    3.369142e+00
  8.354708e+00    3.360276e+00
  8.370584e+00    3.415599e+00
  8.386459e+00    3.369615e+00
  8.402335e+00    3.380641e+00
  8.418210e+00    3.461993e+00
  8.434086e+00    3.457385e+00
  8.449962e+00    3.370701e+00
  8.465837e+00    3.336073e+00
  8.481713e+00    3.361780e+00
  8.497588e+00    3.385185e+00
  8.513464e+00    3.333715e+00
  8.529339e+00    3.342993e+00
  8.545215e+00    3.374960e+00
  8.561091e+00    3.376230e+00
  8.576966e+00    3.413933e+00
  8.592842e+00    3.355836e+00
  8.608717e+00    3.302962e+00
  8.624593e+00    3.397481e+00
  8.640468e+00    3.391947e+00
  8.656344e+00    3.285739e+00
  8.672220e+00    3.373780e+00
  8.688095e+00    3.364923e+00
  8.703971e+00    3.343717e+00
  8.719846e+00    3.322269e+00
  8.735722e+00    3.325003e+00
  8.751598e+00    3.321899e+00
  8.767473e+00    3.338007e+00
  8.783349e+00    3.259828e+00
  8.799224e+00    3.346247e+00
  8.815100e+00    3.321821e+00
  8.830975e+00    3.288501e+00
  8.846851e+00    3.366370e+00
  8.862727e+00    3.344155e+00
  8.878602e+00    3.247894e+00
  8.894478e+00    3.289063e+00
  8.910353e+00    3.301742e+00
  8.926229e+00    3.351827e+00
  8.942104e+00    3.292064e+00
  8.957980e+00    3.239363e+00
  8.973856e+00    3.300396e+00
  8.989731e+00    3.310410e+00
  9.005607e+00    3.244822e+00
  9.021482e+00    3.227595e+00
  9.037358e+00    3.254949e+00
  9.053233e+00    3.287967e+00
  9.069109e+00    3.290426e+00
  9.084985e+00    3.283458e+00
  9.100860e+00    3.298769e+00
  9.116736e+00    3.300387e+00
  9.132611e+00    3.322380e+00
  9.148487e+00    3.352791e+00
  9.164362e+00    3.294363e+00
  9.180238e+00    3.256902e+00
  9.196114e+00    3.253546e+00
  9.211989e+00    3.212414e+00
  9.227865e+00    3.231515e+00
  9.243740e+00    3.255133e+00
  9.259616e+00    3.227832e+00
  9.275491e+00    3.221584e+00
  9.291367e+00    3.219029e+00
  9.307243e+00    3.218700e+00
  9.323118e+00    3.262318e+00
  9.338994e+00    3.205519e+00
  9.354869e+00    3.238435e+00
  9.370745e+00    3.273166e+00
  9.386620e+00    3.262379e+00
  9.402496e+00    3.239946e+00
  9.418372e+00    3.212059e+00
  9.434247e+00    3.184780e+00
  9.450123e+00    3.191637e+00
  9.465998e+00    3.197289e+00
  9.481874e+00    3.175183e+00
  9.497749e+00    3.211470e+00
  9.513625e+00    3.199016e+00
  9.529501e+00    3.214151e+00
  9.545376e+00    3.234002e+00
  9.561252e+00    3.226441e+00
  9.577127e+00    3.146513e+00
  9.593003e+00    3.201837e+00
  9.608878e+00    3.223302e+00
  9.624754e+00    3.189245e+00
  9.640630e+00    3.166629e+00
  9.656505e+00    3.190091e+00
  9.672381e+00    3.221630e+00
  9.688256e+00    3.198562e+00
  9.704132e+00    3.103081e+00
  9.720008e+00    3.101244e+00
  9.735883e+00    3.138486e+00
  9.751759e+00    3.175079e+00
  9.767634e+00    3.201540e+00
  9.783510e+00    3.265476e+00
  9.799385e+00    3.190719e+00
  9.815261e+00    3.132255e+00
  9.831137e+00    3.106215e+00
  9.847012e+00    3.169265e+00
  9.862888e+00    3.216798e+00
  9.878763e+00    3.209810e+00
  9.894639e+00    3.125835e+00
  9.910514e+00    3.106358e+00
  9.926390e+00    3.159521e+00
  9.942266e+00    3.141692e+00
  9.958141e+00    3.105814e+00
  9.974017e+00    3.134137e+00
  9.989892e+00    3.155726e+00
  1.000577e+01    3.129835e+00
  1.002164e+01    3.140313e+00
  1.003752e+01    3.117107e+00
  1.005339e+01    3.126490e+00
  1.006927e+01    3.124967e+00
  1.008515e+01    3.115559e+00
  1.010102e+01    3.073009e+00
  1.011690e+01    3.017979e+00
  1.013277e+01    3.080987e+00
  1.014865e+01    3.057819e+00
  1.016452e+01    3.084528e+00
  1.018040e+01    3.015888e+00
  1.019627e+01    3.046790e+00
  1.021215e+01    3.075014e+00
  1.022803e+01    3.073892e+00
  1.024390e+01    3.086977e+00
  1.025978e+01    3.072059e+00
  1.027565e+01    3.086462e+00
  1.029153e+01    3.060699e+00
  1.030740e+01    3.076672e+00
  1.032328e+01    3.041813e+00
  1.033915e+01    3.063210e+00
  1.035503e+01    3.044787e+00
  1.037091e+01    3.021948e+00
  1.038678e+01    3.059394e+00
  1.040266e+01    3.050262e+00
  1.041853e+01    3.059336e+00
  1.043441e+01    3.049098e+00
  1.045028e+01    3.070407e+00
  1.046616e+01    3.033649e+00
  1.048204e+01    2.995231e+00
  1.049791e+01    3.016193e+00
  1.051379e+01    2.972605e+00
  1.052966e+01    3.017909e+00
  1.054554e+01    2.999653e+00
  1.056141e+01    2.985396e+00
  1.057729e+01    3.050261e+00
  1.059316e+01    3.036673e+00
  1.060904e+01    3.052556e+00
  1.062492e+01    2.976428e+00
  1.064079e+01    2.958018e+00
  1.065667e+01    2.982523e+00
  1.067254e+01    2.994704e+00
  1.068842e+01    2.965514e+00
  1.070429e+01    2.963876e+00
  1.072017e+01    2.927536e+00
  1.073604e+01    2.911464e+00
  1.075192e+01    2.986021e+00
  1.076780e+01    2.955844e+00
  1.078367e+01    2.966263e+00
  1.079955e+01    2.964950e+00
  1.081542e+01    2.956829e+00
  1.083130e+01    2.969691e+00
  1.084717e+01    2.912144e+00
  1.086305e+01    2.928494e+00
  1.087892e+01    2.935855e+00
  1.089480e+01    2.965902e+00
  1.091068e+01    2.932401e+00
  1.092655e+01    2.918162e+00
  1.094243e+01    2.924108e+00
  1.095830e+01    2.980325e+00
  1.097418e+01    2.939520e+00
  1.099005e+01    2.948957e+00
  1.100593e+01    2.911038e+00
  1.102180e+01    2.922032e+00
  1.103768e+01    2.869623e+00
  1.105356e+01    2.910050e+00
  1.106943e+01    2.895968e+00
  1.108531e+01    2.878934e+00
  1.110118e+01    2.857642e+00
  1.111706e+01    2.856794e+00
  1.113293e+01    2.863846e+00
  1.114881e+01    2.847691e+00
  1.116468e+01    2.876277e+00
  1.118056e+01    2.869769e+00
  1.119644e+01    2.858240e+00
  1.121231e+01    2.909977e+00
  1.122819e+01    2.855045e+00
  1.124406e+01    2.831285e+00
  1.125994e+01    2.821829e+00
  1.127581e+01    2.839708e+00
  1.129169e+01    2.875763e+00
  1.130756e+01    2.822076e+00
  1.132344e+01    2.798048e+00
  1.133932e+01    2.858373e+00
  1.135519e+01    2.851988e+00
  1.137107e+01    2.807490e+00
  1.138694e+01    2.854245e+00
  1.140282e+01    2.817486e+00
  1.141869e+01    2.835974e+00
  1.143457e+01    2.759018e+00
  1.145045e+01    2.788199e+00
  1.146632e+01    2.820527e+00
  1.148220e+01    2.854433e+00
  1.149807e+01    2.838948e+00
  1.151395e+01    2.816771e+00
  1.152982e+01    2.775649e+00
  1.154570e+01    2.734945e+00
  1.156157e+01    2.771802e+00
  1.157745e+01    2.796545e+00
  1.159333e+01    2.846743e+00
  1.160920e+01    2.826025e+00
  1.162508e+01    2.795205e+00
  1.164095e+01    2.753181e+00
  1.165683e+01    2.780546e+00
  1.167270e+01    2.765333e+00
  1.168858e+01    2.758092e+00
  1.170445e+01    2.760846e+00
  1.172033e+01    2.750643e+00
  1.173621e+01    2.757632e+00
  1.175208e+01    2.755772e+00
  1.176796e+01    2.700650e+00
  1.178383e+01    2.737174e+00
  1.179971e+01    2.722881e+00
  1.181558e+01    2.747019e+00
  1.183146e+01    2.764202e+00
  1.184733e+01    2.727799e+00
  1.186321e+01    2.702712e+00
  1.187909e+01    2.729648e+00
  1.189496e+01    2.761703e+00
  1.191084e+01    2.684272e+00
  1.192671e+01    2.706249e+00
  1.194259e+01    2.739958e+00
  1.195846e+01    2.739440e+00
  1.197434e+01    2.719661e+00
  1.199021e+01    2.704379e+00
  1.200609e+01    2.741640e+00
  1.202197e+01    2.716845e+00
  1.203784e+01    2.690907e+00
  1.205372e+01    2.745497e+00
  1.206959e+01    2.711627e+00
  1.208547e+01    2.703800e+00
  1.210134e+01    2.707143e+00
  1.211722e+01    2.676878e+00
  1.213309e+01    2.695168e+00
  1.214897e+01    2.739229e+00
  1.216485e+01    2.697136e+00
  1.218072e+01    2.656703e+00
  1.219660e+01    2.699436e+00
  1.221247e+01    2.659844e+00
  1.222835e+01    2.675667e+00
  1.224422e+01    2.698435e+00
  1.226010e+01    2.701814e+00
  1.227597e+01    2.729019e+00
  1.229185e+01    2.744943e+00
  1.230773e+01    2.667311e+00
  1.232360e+01    2.746182e+00
  1.233948e+01    2.698802e+00
  1.235535e+01    2.715070e+00
  1.237123e+01    2.733540e+00
  1.238710e+01    2.675128e+00
  1.240298e+01    2.726069e+00
  1.241886e+01    2.715195e+00
  1.243473e+01    2.680743e+00
  1.245061e+01    2.632563e+00
  1.246648e+01    2.702286e+00
  1.248236e+01    2.670823e+00
  1.249823e+01    2.641704e+00
  1.251411e+01    2.671393e+00
  1.252998e+01    2.704523e+00
  1.254586e+01    2.701421e+00
  1.256174e+01    2.695654e+00
  1.257761e+01    2.728527e+00
  1.259349e+01    2.757773e+00
  1.260936e+01    2.754889e+00
  1.262524e+01    2.702021e+00
  1.264111e+01    2.784404e+00
  1.265699e+01    2.806206e+00
  1.267286e+01    2.755789e+00
  1.268874e+01    2.809495e+00
  1.270462e+01    2.860490e+00
  1.272049e+01    2.885820e+00
  1.273637e+01    2.859049e+00
  1.275224e+01    2.871457e+00
  1.276812e+01    2.913985e+00
  1.278399e+01    2.997164e+00
  1.279987e+01    3.059506e+00
  1.281574e+01    3.097681e+00
  1.283162e+01    3.137226e+00
  1.284750e+01    3.151565e+00
  1.286337e+01    3.244254e+00
  1.287925e+01    3.441188e+00
  1.289512e+01    3.530829e+00
  1.291100e+01    3.679209e+00
  1.292687e+01    3.893576e+00
  1.294275e+01    4.081801e+00
  1.295862e+01    4.420731e+00
  1.297450e+01    4.797159e+00
  1.299038e+01    5.266978e+00
  1.300625e+01    5.942099e+00
  1.302213e+01    6.728305e+00
  1.303800e+01    7.800177e+00
  1.305388e+01    8.982319e+00
  1.306975e+01    1.026413e+01
  1.308563e+01    1.156518e+01
  1.310150e+01    1.283105e+01
  1.311738e+01    1.378290e+01
  1.313326e+01    1.480530e+01
  1.314913e+01    1.581055e+01
  1.316501e+01    1.638993e+01
  1.318088e+01    1.636606e+01
  1.319676e+01    1.570077e+01
  1.321263e+01    1.440637e+01
  1.322851e+01    1.255288e+01
  1.324438e+01    1.062992e+01
  1.326026e+01    9.051949e+00
  1.327614e+01    7.814676e+00
  1.329201e+01    6.805110e+00
  1.330789e+01    6.016997e+00
  1.332376e+01    5.334641e+00
  1.333964e+01    4.842455e+00
  1.335551e+01    4.451208e+00
  1.337139e+01    4.148735e+00
  1.338727e+01    3.861511e+00
  1.340314e+01    3.676965e+00
  1.341902e+01    3.513634e+00
  1.343489e+01    3.344218e+00
  1.345077e+01    3.211782e+00
  1.346664e+01    3.128765e+00
  1.348252e+01    3.016647e+00
  1.349839e+01    2.952310e+00
  1.351427e+01    2.885718e+00
  1.353015e+01    2.866935e+00
  1.354602e+01    2.788541e+00
  1.356190e+01    2.762318e+00
  1.357777e+01    2.733225e+00
  1.359365e+01    2.671846e+00
  1.360952e+01    2.660746e+00
  1.362540e+01    2.638341e+00
  1.364127e+01    2.572893e+00
  1.365715e+01    2.613537e+00
  1.367303e+01    2.618270e+00
  1.368890e+01    2.584987e+00
  1.370478e+01    2.560922e+00
  1.372065e+01    2.537805e+00
  1.373653e+01    2.524013e+00
  1.375240e+01    2.501701e+00
  1.376828e+01    2.532577e+00
  1.378415e+01    2.473303e+00
  1.380003e+01    2.486489e+00
  1.381591e+01    2.477409e+00
  1.383178e+01    2.435471e+00
  1.384766e+01    2.450779e+00
  1.386353e+01    2.438318e+00
  1.387941e+01    2.438977e+00
  1.389528e+01    2.413719e+00
  1.391116e+01    2.366543e+00
  1.392703e+01    2.398262e+00
  1.394291e+01    2.390294e+00
  1.395879e+01    2.360783e+00
  1.397466e+01    2.374369e+00
  1.399054e+01    2.387967e+00
  1.400641e+01    2.373371e+00
  1.402229e+01    2.360345e+00
  1.403816e+01    2.343699e+00
  1.405404e+01    2.323222e+00
  1.406991e+01    2.328460e+00
  1.408579e+01    2.285325e+00
  1.410167e+01    2.256052e+00
  1.411754e+01    2.286335e+00
  1.413342e+01    2.299908e+00
  1.414929e+01    2.299882e+00
  1.416517e+01    2.323254e+00
  1.418104e+01    2.320338e+00
  1.419692e+01    2.331579e+00
  1.421279e+01    2.309186e+00
  1.422867e+01    2.264696e+00
  1.424455e+01    2.271518e+00
  1.426042e+01    2.273597e+00
  1.427630e+01    2.302199e+00
  1.429217e+01    2.302177e+00
  1.430805e+01    2.286514e+00
  1.432392e+01    2.259742e+00
  1.433980e+01    2.257468e+00
  1.435568e+01    2.257296e+00
  1.437155e+01    2.254952e+00
  1.438743e+01    2.237574e+00
  1.440330e+01    2.241580e+00
  1.441918e+01    2.257564e+00
  1.443505e+01    2.223603e+00
  1.445093e+01    2.212061e+00
  1.446680e+01    2.197199e+00
  1.448268e+01    2.244878e+00
  1.449856e+01    2.226367e+00
  1.451443e+01    2.239648e+00
  1.453031e+01    2.228189e+00
  1.454618e+01    2.221117e+00
  1.456206e+01    2.178317e+00
  1.457793e+01    2.189200e+00
  1.459381e+01    2.211727e+00
  1.460968e+01    2.244239e+00
  1.462556e+01    2.237465e+00
  1.464144e+01    2.215399e+00
  1.465731e+01    2.213317e+00
  1.467319e+01    2.221081e+00
  1.468906e+01    2.216814e+00
  1.470494e+01    2.209825e+00
  1.472081e+01    2.199805e+00
  1.473669e+01    2.204786e+00
  1.475256e+01    2.170777e+00
  1.476844e+01    2.161658e+00
  1.478432e+01    2.193291e+00
  1.480019e+01    2.227758e+00
  1.481607e+01    2.184888e+00
  1.483194e+01    2.225160e+00
  1.484782e+01    2.241022e+00
  1.486369e+01    2.221292e+00
  1.487957e+01    2.194442e+00
  1.489544e+01    2.213211e+00
  1.491132e+01    2.247405e+00
  1.492720e+01    2.301725e+00
  1.494307e+01    2.352023e+00
  1.495895e+01    2.294602e+00
  1.497482e+01    2.312154e+00
  1.499070e+01    2.361166e+00
  1.500657e+01    2.447964e+00
  1.502245e+01    2.490563e+00
  1.503832e+01    2.580636e+00
  1.505420e+01    2.700307e+00
  1.507008e+01    2.842826e+00
  1.508595e+01    2.971879e+00
  1.510183e+01    3.173202e+00
  1.511770e+01    3.404693e+00
  1.513358e+01    3.728362e+00
  1.514945e+01    4.187402e+00
  1.516533e+01    4.594817e+00
  1.518120e+01    4.902060e+00
  1.519708e+01    5.211725e+00
  1.521296e+01    5.439860e+00
  1.522883e+01    5.593329e+00
  1.524471e+01    5.767419e+00
  1.526058e+01    5.740574e+00
  1.527646e+01    5.680328e+00
  1.529233e+01    5.486633e+00
  1.530821e+01    5.104425e+00
  1.532409e+01    4.704425e+00
  1.533996e+01    4.169223e+00
  1.535584e+01    3.745526e+00
  1.537171e+01    3.386798e+00
  1.538759e+01    3.112329e+00
  1.540346e+01    2.935135e+00
  1.541934e+01    2.790082e+00
  1.543521e+01    2.661365e+00
  1.545109e+01    2.522654e+00
  1.546697e+01    2.447186e+00
  1.548284e+01    2.390055e+00
  1.549872e+01    2.318655e+00
  1.551459e+01    2.284960e+00
  1.553047e+01    2.199702e+00
  1.554634e+01    2.162854e+00
  1.556222e+01    2.154506e+00
  1.557809e+01    2.148980e+00
  1.559397e+01    2.116725e+00
  1.560985e+01    2.063925e+00
  1.562572e+01    2.061117e+00
  1.564160e+01    2.035482e+00
  1.565747e+01    2.047445e+00
  1.567335e+01    2.043508e+00
  1.568922e+01    2.033213e+00
  1.570510e+01    2.013811e+00
  1.572097e+01    1.950316e+00
  1.573685e+01    1.960111e+00
  1.575273e+01    1.967993e+00
  1.576860e+01    1.937808e+00
  1.578448e+01    1.947289e+00
  1.580035e+01    1.944463e+00
  1.581623e+01    1.937280e+00
  1.583210e+01    1.938825e+00
  1.584798e+01    1.927307e+00
  1.586385e+01    1.891935e+00
  1.587973e+01    1.890129e+00
  1.589561e+01    1.903508e+00
  1.591148e+01    1.903971e+00
  1.592736e+01    1.932217e+00
  1.594323e+01    1.954040e+00
  1.595911e+01    1.906180e+00
  1.597498e+01    1.869377e+00
  1.599086e+01    1.879307e+00
  1.600673e+01    1.880650e+00
  1.602261e+01    1.872674e+00
  1.603849e+01    1.899011e+00
  1.605436e+01    1.861872e+00
  1.607024e+01    1.852747e+00
  1.608611e+01    1.886500e+00
  1.610199e+01    1.892370e+00
  1.611786e+01    1.847605e+00
  1.613374e+01    1.879837e+00
  1.614961e+01    1.858090e+00
  1.616549e+01    1.825186e+00
  1.618137e+01    1.833395e+00
  1.619724e+01    1.839292e+00
  1.621312e+01    1.816106e+00
  1.622899e+01    1.819958e+00
  1.624487e+01    1.832447e+00
  1.626074e+01    1.839961e+00
  1.627662e+01    1.820498e+00
  1.629250e+01    1.792395e+00
  1.630837e+01    1.782956e+00
  1.632425e+01    1.779061e+00
  1.634012e+01    1.804572e+00
  1.635600e+01    1.801247e+00
  1.637187e+01    1.803083e+00
  1.638775e+01    1.806701e+00
  1.640362e+01    1.757345e+00
  1.641950e+01    1.782306e+00
  1.643538e+01    1.780842e+00
  1.645125e+01    1.768102e+00
  1.646713e+01    1.786700e+00
  1.648300e+01    1.789909e+00
  1.649888e+01    1.758268e+00
  1.651475e+01    1.772942e+00
  1.653063e+01    1.744045e+00
  1.654650e+01    1.723356e+00
  1.656238e+01    1.740676e+00
  1.657826e+01    1.719723e+00
  1.659413e+01    1.733789e+00
  1.661001e+01    1.754748e+00
  1.662588e+01    1.728893e+00
  1.664176e+01    1.724182e+00
  1.665763e+01    1.700701e+00
  1.667351e+01    1.749565e+00
  1.668938e+01    1.739499e+00
  1.670526e+01    1.689716e+00
  1.672114e+01    1.727409e+00
  1.673701e+01    1.725806e+00
  1.675289e+01    1.702231e+00
  1.676876e+01    1.680163e+00
  1.678464e+01    1.702110e+00
  1.680051e+01    1.696567e+00
  1.681639e+01    1.690214e+00
  1.683226e+01    1.687603e+00
  1.684814e+01    1.707339e+00
  1.686402e+01    1.708252e+00
  1.687989e+01    1.723072e+00
  1.689577e+01    1.685201e+00
  1.691164e+01    1.676760e+00
  1.692752e+01    1.697496e+00
  1.694339e+01    1.689896e+00
  1.695927e+01    1.675602e+00
  1.697514e+01    1.671619e+00
  1.699102e+01    1.691304e+00
  1.700690e+01    1.663702e+00
  1.702277e+01    1.641692e+00
  1.703865e+01    1.629375e+00
  1.705452e+01    1.708659e+00
  1.707040e+01    1.685076e+00
  1.708627e+01    1.632056e+00
  1.710215e+01    1.629055e+00
  1.711802e+01    1.694485e+00
  1.713390e+01    1.650944e+00
  1.714978e+01    1.649335e+00
  1.716565e+01    1.648554e+00
  1.718153e+01    1.628143e+00
  1.719740e+01    1.627546e+00
  1.721328e+01    1.620883e+00
  1.722915e+01    1.618678e+00
  1.724503e+01    1.633424e+00
  1.726091e+01    1.629422e+00
  1.727678e+01    1.612644e+00
  1.729266e+01    1.611461e+00
  1.730853e+01    1.611060e+00
  1.732441e+01    1.619406e+00
  1.734028e+01    1.625366e+00
  1.735616e+01    1.628951e+00
  1.737203e+01    1.620803e+00
  1.738791e+01    1.638817e+00
  1.740379e+01    1.636647e+00
  1.741966e+01    1.611327e+00
  1.743554e+01    1.627285e+00
  1.745141e+01    1.606200e+00
  1.746729e+01    1.579388e+00
  1.748316e+01    1.589576e+00
  1.749904e+01    1.599257e+00
  1.751491e+01    1.607350e+00
  1.753079e+01    1.584677e+00
  1.754667e+01    1.574040e+00
  1.756254e+01    1.612254e+00
  1.757842e+01    1.579571e+00
  1.759429e+01    1.577614e+00
  1.761017e+01    1.573020e+00
  1.762604e+01    1.568978e+00
  1.764192e+01    1.556534e+00
  1.765779e+01    1.581051e+00
  1.767367e+01    1.555295e+00
  1.768955e+01    1.581735e+00
  1.770542e+01    1.588035e+00
  1.772130e+01    1.558804e+00
  1.773717e+01    1.557275e+00
  1.775305e+01    1.567220e+00
  1.776892e+01    1.557727e+00
  1.778480e+01    1.546518e+00
  1.780067e+01    1.529417e+00
  1.781655e+01    1.512528e+00
  1.783243e+01    1.519131e+00
  1.784830e+01    1.542993e+00
  1.786418e+01    1.522099e+00
  1.788005e+01    1.526384e+00
  1.789593e+01    1.537778e+00
  1.791180e+01    1.517573e+00
  1.792768e+01    1.546515e+00
  1.794355e+01    1.536123e+00
  1.795943e+01    1.514499e+00
  1.797531e+01    1.516436e+00
  1.799118e+01    1.496788e+00
  1.800706e+01    1.496085e+00
  1.802293e+01    1.510160e+00
  1.803881e+01    1.480472e+00
  1.805468e+01    1.508953e+00
  1.807056e+01    1.526788e+00
  1.808643e+01    1.523284e+00
  1.810231e+01    1.508045e+00
  1.811819e+01    1.491971e+00
  1.813406e+01    1.495775e+00
  1.814994e+01    1.507672e+00
  1.816581e+01    1.524606e+00
  1.818169e+01    1.496656e+00
  1.819756e+01    1.490907e+00
  1.821344e+01    1.486417e+00
  1.822932e+01    1.505716e+00
  1.824519e+01    1.532660e+00
  1.826107e+01    1.512276e+00
  1.827694e+01    1.471695e+00
  1.829282e+01    1.455410e+00
  1.830869e+01    1.469006e+00
  1.832457e+01    1.477468e+00
  1.834044e+01    1.464493e+00
  1.835632e+01    1.454313e+00
  1.837220e+01    1.434832e+00
  1.838807e+01    1.451631e+00
  1.840395e+01    1.487265e+00
  1.841982e+01    1.468025e+00
  1.843570e+01    1.479016e+00
  1.845157e+01    1.470139e+00
  1.846745e+01    1.475348e+00
  1.848332e+01    1.449436e+00
  1.849920e+01    1.457149e+00
  1.851508e+01    1.433986e+00
  1.853095e+01    1.422281e+00
  1.854683e+01    1.420953e+00
  1.856270e+01    1.435913e+00
  1.857858e+01    1.420668e+00
  1.859445e+01    1.430834e+00
  1.861033e+01    1.428322e+00
  1.862620e+01    1.415777e+00
  1.864208e+01    1.416491e+00
  1.865796e+01    1.399611e+00
  1.867383e+01    1.441402e+00
  1.868971e+01    1.447314e+00
  1.870558e+01    1.430939e+00
  1.872146e+01    1.419149e+00
  1.873733e+01    1.431193e+00
  1.875321e+01    1.404128e+00
  1.876908e+01    1.406598e+00
  1.878496e+01    1.382466e+00
  1.880084e+01    1.402380e+00
  1.881671e+01    1.425544e+00
  1.883259e+01    1.417271e+00
  1.884846e+01    1.397643e+00
  1.886434e+01    1.392848e+00
  1.888021e+01    1.417433e+00
  1.889609e+01    1.425946e+00
  1.891196e+01    1.392513e+00
  1.892784e+01    1.372291e+00
  1.894372e+01    1.360811e+00
  1.895959e+01    1.393664e+00
  1.897547e+01    1.404958e+00
  1.899134e+01    1.376999e+00
  1.900722e+01    1.371871e+00
  1.902309e+01    1.362195e+00
  1.903897e+01    1.358022e+00
  1.905484e+01    1.355065e+00
  1.907072e+01    1.372961e+00
  1.908660e+01    1.394530e+00
  1.910247e+01    1.410033e+00
  1.911835e+01    1.354088e+00
  1.913422e+01    1.376282e+00
  1.915010e+01    1.367665e+00
  1.916597e+01    1.357919e+00
  1.918185e+01    1.358557e+00
  1.919773e+01    1.360227e+00
  1.921360e+01    1.357352e+00
  1.922948e+01    1.373501e+00
  1.924535e+01    1.349880e+00
  1.926123e+01    1.372481e+00
  1.927710e+01    1.374538e+00
  1.929298e+01    1.351044e+00
  1.930885e+01    1.389641e+00
  1.932473e+01    1.352750e+00
  1.934061e+01    1.341646e+00
  1.935648e+01    1.347649e+00
  1.937236e+01    1.348540e+00
  1.938823e+01    1.327695e+00
  1.940411e+01    1.351853e+00
  1.941998e+01    1.356664e+00
  1.943586e+01    1.348948e+00
  1.945173e+01    1.331094e+00
  1.946761e+01    1.329818e+00
  1.948349e+01    1.320968e+00
  1.949936e+01    1.354787e+00
  1.951524e+01    1.335757e+00
  1.953111e+01    1.342155e+00
  1.954699e+01    1.366729e+00
  1.956286e+01    1.342123e+00
  1.957874e+01    1.325592e+00
  1.959461e+01    1.331763e+00
  1.961049e+01    1.325702e+00
  1.962637e+01    1.318059e+00
  1.964224e+01    1.309869e+00
  1.965812e+01    1.321970e+00
  1.967399e+01    1.328775e+00
  1.968987e+01    1.298024e+00
  1.970574e+01    1.335049e+00
  1.972162e+01    1.317557e+00
  1.973749e+01    1.286695e+00
  1.975337e+01    1.277281e+00
  1.976925e+01    1.285374e+00
  1.978512e+01    1.288942e+00
  1.980100e+01    1.291108e+00
  1.981687e+01    1.313588e+00
  1.983275e+01    1.319668e+00
  1.984862e+01    1.302843e+00
  1.986450e+01    1.299251e+00
  1.988037e+01    1.281913e+00
  1.989625e+01    1.267127e+00
  1.991213e+01    1.259660e+00
  1.992800e+01    1.304870e+00
  1.994388e+01    1.297670e+00
  1.995975e+01    1.281078e+00
  1.997563e+01    1.264785e+00
  1.999150e+01    1.284457e+00
  2.000738e+01    1.277868e+00
  2.002325e+01    1.268589e+00
  2.003913e+01    1.279486e+00
  2.005501e+01    1.246091e+00
  2.007088e+01    1.246007e+00
  2.008676e+01    1.291185e+00
  2.010263e+01    1.277334e+00
  2.011851e+01    1.275793e+00
  2.013438e+01    1.263834e+00
  2.015026e+01    1.261791e+00
  2.016614e+01    1.260885e+00
  2.018201e+01    1.265096e+00
  2.019789e+01    1.280960e+00
  2.021376e+01    1.279252e+00
  2.022964e+01    1.258744e+00
  2.024551e+01    1.254257e+00
  2.026139e+01    1.252446e+00
  2.027726e+01    1.260870e+00
  2.029314e+01    1.271216e+00
  2.030902e+01    1.267896e+00
  2.032489e+01    1.230204e+00
  2.034077e+01    1.249609e+00
  2.035664e+01    1.241594e+00
  2.037252e+01    1.238291e+00
  2.038839e+01    1.245514e+00
  2.040427e+01    1.260928e+00
  2.042014e+01    1.241786e+00
  2.043602e+01    1.233112e+00
  2.045190e+01    1.263707e+00
  2.046777e+01    1.247530e+00
  2.048365e+01    1.251767e+00
  2.049952e+01    1.232455e+00
  2.051540e+01    1.251723e+00
  2.053127e+01    1.256122e+00
  2.054715e+01    1.264193e+00
  2.056302e+01    1.263910e+00
  2.057890e+01    1.244285e+00
  2.059478e+01    1.227620e+00
  2.061065e+01    1.246144e+00
  2.062653e+01    1.252154e+00
  2.064240e+01    1.233152e+00
  2.065828e+01    1.224241e+00
  2.067415e+01    1.242030e+00
  2.069003e+01    1.247297e+00
  2.070590e+01    1.237630e+00
  2.072178e+01    1.238238e+00
  2.073766e+01    1.211178e+00
  2.075353e+01    1.233282e+00
  2.076941e+01    1.197655e+00
  2.078528e+01    1.213456e+00
  2.080116e+01    1.243428e+00
  2.081703e+01    1.228488e+00
  2.083291e+01    1.230264e+00
  2.084878e+01    1.216110e+00
  2.086466e+01    1.218315e+00
  2.088054e+01    1.227802e+00
  2.089641e+01    1.224235e+00
  2.091229e+01    1.201109e+00
  2.092816e+01    1.245170e+00
  2.094404e+01    1.258933e+00
  2.095991e+01    1.221915e+00
  2.097579e+01    1.215404e+00
  2.099166e+01    1.235327e+00
  2.100754e+01    1.227393e+00
  2.102342e+01    1.236251e+00
  2.103929e+01    1.230287e+00
  2.105517e+01    1.212781e+00
  2.107104e+01    1.222539e+00
  2.108692e+01    1.235020e+00
  2.110279e+01    1.183988e+00
  2.111867e+01    1.193883e+00
  2.113455e+01    1.216613e+00
  2.115042e+01    1.258108e+00
  2.116630e+01    1.208046e+00
  2.118217e+01    1.224032e+00
  2.119805e+01    1.231071e+00
  2.121392e+01    1.241020e+00
  2.122980e+01    1.253747e+00
  2.124567e+01    1.263698e+00
  2.126155e+01    1.273802e+00
  2.127743e+01    1.274031e+00
  2.129330e+01    1.285159e+00
  2.130918e+01    1.285815e+00
  2.132505e+01    1.282497e+00
  2.134093e+01    1.309211e+00
  2.135680e+01    1.312315e+00
  2.137268e+01    1.287283e+00
  2.138855e+01    1.280710e+00
  2.140443e+01    1.306013e+00
  2.142031e+01    1.351993e+00
  2.143618e+01    1.372357e+00
  2.145206e+01    1.379129e+00
  2.146793e+01    1.389119e+00
  2.148381e+01    1.421323e+00
  2.149968e+01    1.421350e+00
  2.151556e+01    1.435872e+00
  2.153143e+01    1.458445e+00
  2.154731e+01    1.512208e+00
  2.156319e+01    1.567625e+00
  2.157906e+01    1.628684e+00
  2.159494e+01    1.685946e+00
  2.161081e+01    1.775596e+00
  2.162669e+01    1.861805e+00
  2.164256e+01    1.980738e+00
  2.165844e+01    2.130234e+00
  2.167431e+01    2.287865e+00
  2.169019e+01    2.520612e+00
  2.170607e+01    2.788073e+00
  2.172194e+01    3.142387e+00
  2.173782e+01    3.555812e+00
  2.175369e+01    4.106477e+00
  2.176957e+01    4.653270e+00
  2.178544e+01    5.237449e+00
  2.180132e+01    5.881881e+00
  2.181719e+01    6.543044e+00
  2.183307e+01    7.258325e+00
  2.184895e+01    7.918625e+00
  2.186482e+01    8.403408e+00
  2.188070e+01    8.809487e+00
  2.189657e+01    8.881263e+00
  2.191245e+01    8.742018e+00
  2.192832e+01    8.195772e+00
  2.194420e+01    7.459432e+00
  2.196007e+01    6.564995e+00
  2.197595e+01    5.611412e+00
  2.199183e+01    4.834882e+00
  2.200770e+01    4.121467e+00
  2.202358e+01    3.615677e+00
  2.203945e+01    3.183046e+00
  2.205533e+01    2.816497e+00
  2.207120e+01    2.544775e+00
  2.208708e+01    2.342182e+00
  2.210296e+01    2.148052e+00
  2.211883e+01    1.988095e+00
  2.213471e+01    1.900292e+00
  2.215058e+01    1.770501e+00
  2.216646e+01    1.661373e+00
  2.218233e+01    1.574344e+00
  2.219821e+01    1.511537e+00
  2.221408e+01    1.481467e+00
  2.222996e+01    1.433191e+00
  2.224584e+01    1.398313e+00
  2.226171e+01    1.396232e+00
  2.227759e+01    1.351734e+00
  2.229346e+01    1.322874e+00
  2.230934e+01    1.287275e+00
  2.232521e+01    1.265738e+00
  2.234109e+01    1.262530e+00
  2.235696e+01    1.228273e+00
  2.237284e+01    1.247065e+00
  2.238872e+01    1.234713e+00
  2.240459e+01    1.194589e+00
  2.242047e+01    1.183990e+00
  2.243634e+01    1.182196e+00
  2.245222e+01    1.173145e+00
  2.246809e+01    1.171928e+00
  2.248397e+01    1.126408e+00
  2.249984e+01    1.135898e+00
  2.251572e+01    1.111838e+00
  2.253160e+01    1.122371e+00
  2.254747e+01    1.128458e+00
  2.256335e+01    1.131327e+00
  2.257922e+01    1.099606e+00
  2.259510e+01    1.112066e+00
  2.261097e+01    1.099976e+00
  2.262685e+01    1.097424e+00
  2.264272e+01    1.093804e+00
  2.265860e+01    1.102818e+00
  2.267448e+01    1.100125e+00
  2.269035e+01    1.080634e+00
  2.270623e+01    1.081384e+00
  2.272210e+01    1.059968e+00
  2.273798e+01    1.080719e+00
  2.275385e+01    1.106817e+00
  2.276973e+01    1.089325e+00
  2.278560e+01    1.060109e+00
  2.280148e+01    1.066469e+00
  2.281736e+01    1.061867e+00
  2.283323e+01    1.048499e+00
  2.284911e+01    1.040375e+00
  2.286498e+01    1.026191e+00
  2.288086e+01    1.025480e+00
  2.289673e+01    1.049593e+00
  2.291261e+01    1.041022e+00
  2.292848e+01    1.041455e+00
  2.294436e+01    1.030223e+00
  2.296024e+01    1.038418e+00
  2.297611e+01    1.047599e+00
  2.299199e+01    1.004600e+00
  2.300786e+01    1.020938e+00
  2.302374e+01    1.032468e+00
  2.303961e+01    1.023097e+00
  2.305549e+01    1.013378e+00
  2.307137e+01    1.008851e+00
  2.308724e+01    1.024264e+00
  2.310312e+01    1.033960e+00
  2.311899e+01    1.012803e+00
  2.313487e+01    1.002122e+00
  2.315074e+01    1.002830e+00
  2.316662e+01    1.013409e+00
  2.318249e+01    9.803500e-01
  2.319837e+01    1.004835e+00
  2.321425e+01    1.021187e+00
  2.323012e+01    1.010031e+00
  2.324600e+01    1.005705e+00
  2.326187e+01    9.976789e-01
  2.327775e+01    9.697129e-01
  2.329362e+01    9.805470e-01
  2.330950e+01    9.749339e-01
  2.332537e+01    9.756168e-01
  2.334125e+01    9.813213e-01
  2.335713e+01    9.834906e-01
  2.337300e+01    9.873913e-01
  2.338888e+01    9.922615e-01
  2.340475e+01    9.842460e-01
  2.342063e+01    9.909667e-01
  2.343650e+01    9.702744e-01
  2.345238e+01    9.543802e-01
  2.346825e+01    9.567521e-01
  2.348413e+01    9.562864e-01
  2.350001e+01    9.535095e-01
  2.351588e+01    9.622930e-01
  2.353176e+01    9.732696e-01
  2.354763e+01    9.593319e-01
  2.356351e+01    9.662296e-01
  2.357938e+01    9.572955e-01
  2.359526e+01    9.557179e-01
  2.361113e+01    9.499220e-01
  2.362701e+01    9.652281e-01
  2.364289e+01    9.596058e-01
  2.365876e+01    9.624921e-01
  2.367464e+01    9.480796e-01
  2.369051e+01    9.568627e-01
  2.370639e+01    9.485990e-01
  2.372226e+01    9.293132e-01
  2.373814e+01    9.453399e-01
  2.375401e+01    9.376857e-01
  2.376989e+01    9.269868e-01
  2.378577e+01    9.414324e-01
  2.380164e+01    9.127804e-01
  2.381752e+01    9.148913e-01
  2.383339e+01    9.176810e-01
  2.384927e+01    9.173308e-01
  2.386514e+01    9.141536e-01
  2.388102e+01    9.176285e-01
  2.389689e+01    9.115798e-01
  2.391277e+01    9.046834e-01
  2.392865e+01    9.108571e-01
  2.394452e+01    9.136018e-01
  2.396040e+01    8.937554e-01
  2.397627e+01    9.034449e-01
  2.399215e+01    8.937407e-01
  2.400802e+01    8.860292e-01
  2.402390e+01    8.699123e-01
  2.403978e+01    8.949186e-01
  2.405565e+01    9.158413e-01
  2.407153e+01    8.968793e-01
  2.408740e+01    8.972929e-01
  2.410328e+01    8.982084e-01
  2.411915e+01    8.702893e-01
  2.413503e+01    8.658550e-01
  2.415090e+01    8.763995e-01
  2.416678e+01    8.775852e-01
  2.418266e+01    8.747538e-01
  2.419853e+01    8.823715e-01
  2.421441e+01    8.634939e-01
  2.423028e+01    8.742805e-01
  2.424616e+01    8.797253e-01
  2.426203e+01    8.778419e-01
  2.427791e+01    9.193802e-01
  2.429378e+01    9.006478e-01
  2.430966e+01    9.022532e-01
  2.432554e+01    9.065341e-01
  2.434141e+01    9.122703e-01
  2.435729e+01    9.045191e-01
  2.437316e+01    8.959703e-01
  2.438904e+01    9.001433e-01
  2.440491e+01    9.052113e-01
  2.442079e+01    8.981404e-01
  2.443666e+01    8.896818e-01
  2.445254e+01    8.908472e-01
  2.446842e+01    8.978342e-01
  2.448429e+01    8.993559e-01
  2.450017e+01    8.944221e-01
  2.451604e+01    8.847910e-01
  2.453192e+01    8.962077e-01
  2.454779e+01    8.782734e-01
  2.456367e+01    8.663535e-01
  2.457954e+01    8.806533e-01
  2.459542e+01    9.142260e-01
  2.461130e+01    8.952048e-01
  2.462717e+01    8.903452e-01
  2.464305e+01    9.029672e-01
  2.465892e+01    8.867919e-01
  2.467480e+01    8.844192e-01
  2.469067e+01    9.024539e-01
  2.470655e+01    8.818992e-01
  2.472242e+01    8.763583e-01
  2.473830e+01    8.719234e-01
  2.475418e+01    8.753692e-01
  2.477005e+01    8.773825e-01
  2.478593e+01    8.890024e-01
  2.480180e+01    8.856670e-01
  2.481768e+01    8.726199e-01
  2.483355e+01    9.068210e-01
  2.484943e+01    9.076940e-01
  2.486530e+01    8.934662e-01
  2.488118e+01    8.979784e-01
  2.489706e+01    9.031957e-01
  2.491293e+01    8.934932e-01
  2.492881e+01    8.679792e-01
  2.494468e+01    8.697799e-01
  2.496056e+01    8.805929e-01
  2.497643e+01    8.996902e-01
  2.499231e+01    9.171428e-01
  2.500819e+01    9.221335e-01
  2.502406e+01    9.061565e-01
  2.503994e+01    8.843628e-01
  2.505581e+01    9.074507e-01
  2.507169e+01    8.905348e-01
  2.508756e+01    9.191260e-01
  2.510344e+01    9.095377e-01
  2.511931e+01    9.002970e-01
  2.513519e+01    9.053102e-01
  2.515107e+01    9.108443e-01
  2.516694e+01    9.199952e-01
  2.518282e+01    9.357029e-01
  2.519869e+01    9.293477e-01
  2.521457e+01    9.458673e-01
  2.523044e+01    9.474186e-01
  2.524632e+01    9.378526e-01
  2.526219e+01    9.496275e-01
  2.527807e+01    9.381913e-01
  2.529395e+01    9.712013e-01
  2.530982e+01    9.608852e-01
  2.532570e+01    9.673514e-01
  2.534157e+01    9.418793e-01
  2.535745e+01    9.629114e-01
  2.537332e+01    9.781672e-01
  2.538920e+01    9.964935e-01
  2.540507e+01    1.002396e+00
  2.542095e+01    1.001520e+00
  2.543683e+01    1.003861e+00
  2.545270e+01    1.035585e+00
  2.546858e+01    1.036588e+00
  2.548445e+01    1.032485e+00
  2.550033e+01    1.051802e+00
  2.551620e+01    1.074312e+00
  2.553208e+01    1.085055e+00
  2.554795e+01    1.100739e+00
  2.556383e+01    1.160991e+00
  2.557971e+01    1.164072e+00
  2.559558e+01    1.187532e+00
  2.561146e+01    1.208846e+00
  2.562733e+01    1.247542e+00
  2.564321e+01    1.322631e+00
  2.565908e+01    1.391321e+00
  2.567496e+01    1.432581e+00
  2.569083e+01    1.493510e+00
  2.570671e+01    1.598720e+00
  2.572259e+01    1.717044e+00
  2.573846e+01    1.856186e+00
  2.575434e+01    2.058125e+00
  2.577021e+01    2.275868e+00
  2.578609e+01    2.533096e+00
  2.580196e+01    2.817427e+00
  2.581784e+01    3.194798e+00
  2.583371e+01    3.658146e+00
  2.584959e+01    4.232654e+00
  2.586547e+01    4.803499e+00
  2.588134e+01    5.316271e+00
  2.589722e+01    5.905474e+00
  2.591309e+01    6.384677e+00
  2.592897e+01    6.829497e+00
  2.594484e+01    7.091119e+00
  2.596072e+01    7.199158e+00
  2.597660e+01    6.996315e+00
  2.599247e+01    6.518866e+00
  2.600835e+01    5.968676e+00
  2.602422e+01    5.295352e+00
  2.604010e+01    4.530566e+00
  2.605597e+01    3.944808e+00
  2.607185e+01    3.420543e+00
  2.608772e+01    2.950168e+00
  2.610360e+01    2.623596e+00
  2.611948e+01    2.351864e+00
  2.613535e+01    2.118730e+00
  2.615123e+01    1.934841e+00
  2.616710e+01    1.792981e+00
  2.618298e+01    1.666687e+00
  2.619885e+01    1.549855e+00
  2.621473e+01    1.490801e+00
  2.623060e+01    1.422203e+00
  2.624648e+01    1.357000e+00
  2.626236e+01    1.299051e+00
  2.627823e+01    1.230345e+00
  2.629411e+01    1.185567e+00
  2.630998e+01    1.163496e+00
  2.632586e+01    1.149983e+00
  2.634173e+01    1.133730e+00
  2.635761e+01    1.117043e+00
  2.637348e+01    1.086640e+00
  2.638936e+01    1.085443e+00
  2.640524e+01    1.087241e+00
  2.642111e+01    1.041291e+00
  2.643699e+01    1.025800e+00
  2.645286e+01    1.033221e+00
  2.646874e+01    1.016808e+00
  2.648461e+01    1.016843e+00
  2.650049e+01    1.020436e+00
  2.651636e+01    1.007892e+00
  2.653224e+01    1.002760e+00
  2.654812e+01    1.010550e+00
  2.656399e+01    9.830573e-01
  2.657987e+01    9.948642e-01
  2.659574e+01    9.940075e-01
  2.661162e+01    9.909158e-01
  2.662749e+01    9.772053e-01
  2.664337e+01    9.843885e-01
  2.665924e+01    9.791816e-01
  2.667512e+01    9.629533e-01
  2.669100e+01    9.651905e-01
  2.670687e+01    9.494104e-01
  2.672275e+01    9.642108e-01
  2.673862e+01    9.774579e-01
  2.675450e+01    9.864110e-01
  2.677037e+01    9.627818e-01
  2.678625e+01    9.494510e-01
  2.680212e+01    9.757121e-01
  2.681800e+01    9.664267e-01
  2.683388e+01    9.852129e-01
  2.684975e+01    9.884014e-01
  2.686563e+01    9.758804e-01
  2.688150e+01    9.885503e-01
  2.689738e+01    1.001301e+00
  2.691325e+01    1.014485e+00
  2.692913e+01    1.029666e+00
  2.694501e+01    1.049341e+00
  2.696088e+01    1.040915e+00
  2.697676e+01    1.072408e+00
  2.699263e+01    1.105436e+00
  2.700851e+01    1.114790e+00
  2.702438e+01    1.157588e+00
  2.704026e+01    1.197859e+00
  2.705613e+01    1.257993e+00
  2.707201e+01    1.366305e+00
  2.708789e+01    1.405849e+00
  2.710376e+01    1.497810e+00
  2.711964e+01    1.608154e+00
  2.713551e+01    1.751570e+00
  2.715139e+01    1.877016e+00
  2.716726e+01    1.977362e+00
  2.718314e+01    2.099369e+00
  2.719901e+01    2.162327e+00
  2.721489e+01    2.189798e+00
  2.723077e+01    2.200973e+00
  2.724664e+01    2.090057e+00
  2.726252e+01    1.976449e+00
  2.727839e+01    1.843755e+00
  2.729427e+01    1.711450e+00
  2.731014e+01    1.556444e+00
  2.732602e+01    1.430672e+00
  2.734189e+01    1.358162e+00
  2.735777e+01    1.302466e+00
  2.737365e+01    1.245661e+00
  2.738952e+01    1.193799e+00
  2.740540e+01    1.142475e+00
  2.742127e+01    1.128162e+00
  2.743715e+01    1.071321e+00
  2.745302e+01    1.037298e+00
  2.746890e+01    1.013466e+00
  2.748477e+01    1.020752e+00
  2.750065e+01    9.931343e-01
  2.751653e+01    9.840308e-01
  2.753240e+01    9.558641e-01
  2.754828e+01    9.604708e-01
  2.756415e+01    9.581296e-01
  2.758003e+01    9.538822e-01
  2.759590e+01    9.367906e-01
  2.761178e+01    9.321054e-01
  2.762765e+01    9.332107e-01
  2.764353e+01    9.061447e-01
  2.765941e+01    9.051296e-01
  2.767528e+01    9.149483e-01
  2.769116e+01    8.991752e-01
  2.770703e+01    8.936489e-01
  2.772291e+01    8.909050e-01
  2.773878e+01    8.664589e-01
  2.775466e+01    8.842909e-01
  2.777054e+01    8.806990e-01
  2.778641e+01    8.808285e-01
  2.780229e+01    8.971559e-01
  2.781816e+01    8.724876e-01
  2.783404e+01    8.606758e-01
  2.784991e+01    8.723066e-01
  2.786579e+01    8.686152e-01
  2.788166e+01    8.774280e-01
  2.789754e+01    8.786088e-01
  2.791342e+01    8.760733e-01
  2.792929e+01    8.463636e-01
  2.794517e+01    8.652258e-01
  2.796104e+01    8.582666e-01
  2.797692e+01    8.548149e-01
  2.799279e+01    8.808603e-01
  2.800867e+01    8.730640e-01
  2.802454e+01    8.485535e-01
  2.804042e+01    8.611537e-01
  2.805630e+01    8.697795e-01
  2.807217e+01    8.566489e-01
  2.808805e+01    8.380307e-01
  2.810392e+01    8.511508e-01
  2.811980e+01    8.405116e-01
  2.813567e+01    8.513805e-01
  2.815155e+01    8.588285e-01
  2.816742e+01    8.639439e-01
  2.818330e+01    8.642452e-01
  2.819918e+01    8.661256e-01
  2.821505e+01    8.633035e-01
  2.823093e+01    8.685525e-01
  2.824680e+01    8.649561e-01
  2.826268e+01    8.505724e-01
  2.827855e+01    8.424836e-01
  2.829443e+01    8.633704e-01
  2.831030e+01    8.587336e-01
  2.832618e+01    8.620813e-01
  2.834206e+01    8.354823e-01
  2.835793e+01    8.382778e-01
  2.837381e+01    8.542173e-01
  2.838968e+01    8.671201e-01
  2.840556e+01    8.485934e-01
  2.842143e+01    8.468705e-01
  2.843731e+01    8.423096e-01
  2.845318e+01    8.214595e-01
  2.846906e+01    8.391964e-01
  2.848494e+01    8.643628e-01
  2.850081e+01    8.677757e-01
  2.851669e+01    8.658316e-01
  2.853256e+01    8.539717e-01
  2.854844e+01    8.362605e-01
  2.856431e+01    8.180051e-01
  2.858019e+01    8.176028e-01
  2.859606e+01    8.156779e-01
  2.861194e+01    8.303714e-01
  2.862782e+01    8.432232e-01
  2.864369e+01    8.487144e-01
  2.865957e+01    8.235427e-01
  2.867544e+01    8.462806e-01
  2.869132e+01    8.398449e-01
  2.870719e+01    8.508269e-01
  2.872307e+01    8.280325e-01
  2.873895e+01    8.407977e-01
  2.875482e+01    8.537263e-01
  2.877070e+01    8.352456e-01
  2.878657e+01    8.449461e-01
  2.880245e+01    8.336057e-01
  2.881832e+01    8.405834e-01
  2.883420e+01    8.387202e-01
  2.885007e+01    8.084051e-01
  2.886595e+01    8.369215e-01
  2.888183e+01    8.372443e-01
  2.889770e+01    8.092290e-01
  2.891358e+01    8.157665e-01
  2.892945e+01    8.316410e-01
  2.894533e+01    8.227535e-01
  2.896120e+01    8.094653e-01
  2.897708e+01    8.033562e-01
  2.899295e+01    8.089916e-01
  2.900883e+01    8.044658e-01
  2.902471e+01    8.282443e-01
  2.904058e+01    8.235356e-01
  2.905646e+01    8.130410e-01
  2.907233e+01    8.357659e-01
  2.908821e+01    8.262855e-01
  2.910408e+01    8.007288e-01
  2.911996e+01    7.966695e-01
  2.913583e+01    8.101478e-01
  2.915171e+01    8.225695e-01
  2.916759e+01    8.177418e-01
  2.918346e+01    8.151273e-01
  2.919934e+01    8.116317e-01
  2.921521e+01    8.022754e-01
  2.923109e+01    8.055871e-01
  2.924696e+01    8.014561e-01
  2.926284e+01    8.182896e-01
  2.927871e+01    8.400573e-01
  2.929459e+01    8.307040e-01
  2.931047e+01    8.134399e-01
  2.932634e+01    8.034548e-01
  2.934222e+01    7.975385e-01
  2.935809e+01    8.084065e-01
  2.937397e+01    8.243136e-01
  2.938984e+01    8.052657e-01
  2.940572e+01    8.195940e-01
  2.942159e+01    8.104184e-01
  2.943747e+01    7.956772e-01
  2.945335e+01    7.894839e-01
  2.946922e+01    7.948789e-01
  2.948510e+01    8.234191e-01
  2.950097e+01    8.198382e-01
  2.951685e+01    8.337537e-01
  2.953272e+01    7.968287e-01
  2.954860e+01    8.048579e-01
  2.956447e+01    8.050900e-01
  2.958035e+01    8.030112e-01
  2.959623e+01    8.075288e-01
  2.961210e+01    8.153700e-01
  2.962798e+01    8.254814e-01
  2.964385e+01    8.083698e-01
  2.965973e+01    7.869018e-01
  2.967560e+01    8.112622e-01
  2.969148e+01    8.023857e-01
  2.970736e+01    8.131350e-01
  2.972323e+01    7.977446e-01
  2.973911e+01    8.006719e-01
  2.975498e+01    7.801928e-01
  2.977086e+01    7.996118e-01
  2.978673e+01    8.190475e-01
  2.980261e+01    8.005393e-01
  2.981848e+01    8.242467e-01
  2.983436e+01    8.135069e-01
  2.985024e+01    8.252457e-01
  2.986611e+01    8.101079e-01
  2.988199e+01    7.714121e-01
  2.989786e+01    7.807909e-01
  2.991374e+01    7.932088e-01
  2.992961e+01    7.948119e-01
  2.994549e+01    8.031698e-01
  2.996136e+01    8.035620e-01
  2.997724e+01    8.031280e-01
  2.999312e+01    8.309510e-01
  3.000899e+01    8.104645e-01
  3.002487e+01    8.138477e-01
  3.004074e+01    8.173480e-01
  3.005662e+01    7.894777e-01
  3.007249e+01    7.947949e-01
  3.008837e+01    8.154045e-01
  3.010424e+01    7.890391e-01
  3.012012e+01    8.030555e-01
  3.013600e+01    7.821332e-01
  3.015187e+01    7.944038e-01
  3.016775e+01    7.824273e-01
  3.018362e+01    7.787662e-01
  3.019950e+01    7.784271e-01
  3.021537e+01    7.754217e-01
  3.023125e+01    7.843830e-01
  3.024712e+01    7.888131e-01
  3.026300e+01    7.800633e-01
  3.027888e+01    7.962589e-01
  3.029475e+01    7.964853e-01
  3.031063e+01    7.790495e-01
  3.032650e+01    7.746978e-01
  3.034238e+01    7.832940e-01
  3.035825e+01    7.868652e-01
  3.037413e+01    7.832482e-01
  3.039000e+01    8.015079e-01
  3.040588e+01    7.639723e-01
  3.042176e+01    7.678112e-01
  3.043763e+01    7.774044e-01
  3.045351e+01    7.666622e-01
  3.046938e+01    7.785229e-01
  3.048526e+01    7.824041e-01
  3.050113e+01    7.944982e-01
  3.051701e+01    7.873269e-01
  3.053288e+01    7.788505e-01
  3.054876e+01    7.849675e-01
  3.056464e+01    7.655873e-01
  3.058051e+01    7.624117e-01
  3.059639e+01    7.703039e-01
  3.061226e+01    7.685642e-01
  3.062814e+01    7.569977e-01
  3.064401e+01    7.579222e-01
  3.065989e+01    7.733467e-01
  3.067577e+01    7.916601e-01
  3.069164e+01    7.916375e-01
  3.070752e+01    7.851400e-01
  3.072339e+01    7.939908e-01
  3.073927e+01    7.961596e-01
  3.075514e+01    7.774021e-01
  3.077102e+01    7.756579e-01
  3.078689e+01    7.670896e-01
  3.080277e+01    7.665764e-01
  3.081865e+01    7.640235e-01
  3.083452e+01    7.684270e-01
  3.085040e+01    7.942063e-01
  3.086627e+01    7.949923e-01
  3.088215e+01    7.915223e-01
  3.089802e+01    7.866953e-01
  3.091390e+01    7.773638e-01
  3.092977e+01    7.675989e-01
  3.094565e+01    7.963932e-01
  3.096153e+01    7.830064e-01
  3.097740e+01    7.934858e-01
  3.099328e+01    7.835007e-01
  3.100915e+01    7.851217e-01
  3.102503e+01    7.981203e-01
  3.104090e+01    8.028740e-01
  3.105678e+01    7.863757e-01
  3.107265e+01    8.049411e-01
  3.108853e+01    8.099954e-01
  3.110441e+01    7.887608e-01
  3.112028e+01    8.082104e-01
  3.113616e+01    7.818648e-01
  3.115203e+01    7.752446e-01
  3.116791e+01    8.065885e-01
  3.118378e+01    8.145259e-01
  3.119966e+01    8.116642e-01
  3.121553e+01    7.931792e-01
  3.123141e+01    7.922568e-01
  3.124729e+01    7.870388e-01
  3.126316e+01    7.980236e-01
  3.127904e+01    7.889267e-01
  3.129491e+01    7.971205e-01
  3.131079e+01    7.893095e-01
  3.132666e+01    7.914843e-01
  3.134254e+01    8.090141e-01
  3.135841e+01    8.129066e-01
  3.137429e+01    7.753210e-01
  3.139017e+01    7.983590e-01
  3.140604e+01    8.076374e-01
  3.142192e+01    8.166569e-01
  3.143779e+01    8.157267e-01
  3.145367e+01    8.062276e-01
  3.146954e+01    8.252325e-01
  3.148542e+01    8.361031e-01
  3.150129e+01    8.224909e-01
  3.151717e+01    8.202611e-01
  3.153305e+01    8.620404e-01
  3.154892e+01    8.564386e-01
  3.156480e+01    8.486756e-01
  3.158067e+01    8.741901e-01
  3.159655e+01    8.729122e-01
  3.161242e+01    8.943589e-01
  3.162830e+01    8.782097e-01
  3.164418e+01    9.329377e-01
  3.166005e+01    9.564866e-01
  3.167593e+01    9.500510e-01
  3.169180e+01    9.980474e-01
  3.170768e+01    1.034412e+00
  3.172355e+01    1.076119e+00
  3.173943e+01    1.143983e+00
  3.175530e+01    1.181940e+00
  3.177118e+01    1.283904e+00
  3.178706e+01    1.343967e+00
  3.180293e+01    1.484533e+00
  3.181881e+01    1.595612e+00
  3.183468e+01    1.720210e+00
  3.185056e+01    1.846081e+00
  3.186643e+01    1.948832e+00
  3.188231e+01    2.040120e+00
  3.189818e+01    2.101994e+00
  3.191406e+01    2.079348e+00
  3.192994e+01    2.036871e+00
  3.194581e+01    1.943382e+00
  3.196169e+01    1.820427e+00
  3.197756e+01    1.711248e+00
  3.199344e+01    1.537772e+00
  3.200931e+01    1.406426e+00
  3.202519e+01    1.311081e+00
  3.204106e+01    1.216671e+00
  3.205694e+01    1.148245e+00
  3.207282e+01    1.099975e+00
  3.208869e+01    1.029979e+00
  3.210457e+01    9.929444e-01
  3.212044e+01    9.792148e-01
  3.213632e+01    9.590062e-01
  3.215219e+01    9.125639e-01
  3.216807e+01    8.760536e-01
  3.218394e+01    8.643351e-01
  3.219982e+01    8.576993e-01
  3.221570e+01    8.700799e-01
  3.223157e+01    8.448864e-01
  3.224745e+01    8.426849e-01
  3.226332e+01    8.537483e-01
  3.227920e+01    8.490686e-01
  3.229507e+01    8.109938e-01
  3.231095e+01    8.160553e-01
  3.232682e+01    8.206729e-01
  3.234270e+01    7.987852e-01
  3.235858e+01    8.130137e-01
  3.237445e+01    8.190931e-01
  3.239033e+01    8.140810e-01
  3.240620e+01    8.055539e-01
  3.242208e+01    7.892321e-01
  3.243795e+01    7.831186e-01
  3.245383e+01    7.809305e-01
  3.246970e+01    7.803884e-01
  3.248558e+01    8.056791e-01
  3.250146e+01    7.725465e-01
  3.251733e+01    7.797102e-01
  3.253321e+01    7.865782e-01
  3.254908e+01    7.556630e-01
