# == pyFAI calibration ==
# Distance Sample to Detector: 0.3999999939076516 m
# PONI: 9.750e-02, 1.135e-01 m
# Rotations: -0.000175 0.000000 -0.000000 rad
# 
# == Fit2d calibration ==
# Distance Sample-beamCenter: 400.000 mm
# Center: x=1514.000, y=1300.000 pix
# Tilt: 0.010 deg  TiltPlanRot: 0.010 deg
# 
# Detector Detector	 Spline= None	 PixelSize= 7.500e-05, 7.500e-05 m
#    Detector has a mask: False 
#    Detector has a dark current: False 
#    detector has a flat field: False 
# 
# Wavelength: 6.888e-11 m
# Mask applied: user provided
# Dark current applied: False
# Flat field applied: False
# Polarization factor: 0.99
# Normalization factor: 1.0
# --> /home/myspot/data/2024_07_Rosario/Ru-CGO-ex/2024-07-27_003_Ru-CGO-ex_Reaction_dwell_000023_data_000041.dat
#       q_nm^-1             I 
  2.003187e-02    0.000000e+00
  3.590745e-02    0.000000e+00
  5.178302e-02    7.387542e-02
  6.765859e-02    9.902177e-02
  8.353417e-02    1.069997e-01
  9.940974e-02    1.460309e-01
  1.152853e-01    3.946413e-02
  1.311609e-01    2.918416e-02
  1.470365e-01    1.243953e-02
  1.629120e-01    2.572339e-03
  1.787876e-01    4.845863e-02
  1.946632e-01    1.169594e-02
  2.105388e-01    2.518616e-02
  2.264143e-01    2.349002e-02
  2.422899e-01    2.980923e-02
  2.581655e-01    5.392390e-02
  2.740411e-01    6.018990e-02
  2.899166e-01    6.929553e-02
  3.057922e-01    6.732928e-02
  3.216678e-01    6.155067e-02
  3.375433e-01    2.992481e-02
  3.534189e-01    1.961476e-02
  3.692945e-01    3.059535e-02
  3.851701e-01    6.281362e-03
  4.010456e-01    9.469088e-03
  4.169212e-01    9.365131e-03
  4.327968e-01    1.929566e-02
  4.486724e-01    2.656889e-02
  4.645479e-01    3.107246e-02
  4.804235e-01    3.961665e-02
  4.962991e-01    4.210344e-02
  5.121747e-01    4.253031e-02
  5.280502e-01    4.686518e-02
  5.439258e-01    3.784429e-02
  5.598014e-01    3.842144e-02
  5.756770e-01    3.419619e-02
  5.915525e-01    5.368061e-02
  6.074281e-01    3.624975e-02
  6.233037e-01    6.742096e-02
  6.391793e-01    5.073223e-02
  6.550548e-01    3.522933e-02
  6.709304e-01    2.194938e-02
  6.868060e-01    3.986064e-02
  7.026815e-01    4.251840e-02
  7.185571e-01    2.025905e-02
  7.344327e-01    2.698892e-02
  7.503083e-01    4.814527e-02
  7.661838e-01    6.932054e-02
  7.820594e-01    1.375653e-01
  7.979350e-01    2.186877e-01
  8.138106e-01    2.602355e-01
  8.296861e-01    3.117965e-01
  8.455617e-01    3.510329e-01
  8.614373e-01    3.880614e-01
  8.773129e-01    4.815254e-01
  8.931884e-01    6.307598e-01
  9.090640e-01    6.654532e-01
  9.249396e-01    7.940994e-01
  9.408152e-01    8.535473e-01
  9.566907e-01    9.083537e-01
  9.725663e-01    9.314652e-01
  9.884419e-01    1.059535e+00
  1.004317e+00    1.114780e+00
  1.020193e+00    1.105736e+00
  1.036069e+00    1.178886e+00
  1.051944e+00    1.386042e+00
  1.067820e+00    1.401197e+00
  1.083695e+00    1.492351e+00
  1.099571e+00    1.516270e+00
  1.115446e+00    1.481841e+00
  1.131322e+00    1.565828e+00
  1.147198e+00    1.567599e+00
  1.163073e+00    1.577917e+00
  1.178949e+00    1.570650e+00
  1.194824e+00    1.696222e+00
  1.210700e+00    1.987634e+00
  1.226575e+00    2.274328e+00
  1.242451e+00    2.397158e+00
  1.258327e+00    2.334734e+00
  1.274202e+00    2.465073e+00
  1.290078e+00    2.539064e+00
  1.305953e+00    2.627624e+00
  1.321829e+00    2.779108e+00
  1.337705e+00    2.692776e+00
  1.353580e+00    2.706001e+00
  1.369456e+00    2.839666e+00
  1.385331e+00    2.860895e+00
  1.401207e+00    2.954886e+00
  1.417082e+00    2.931665e+00
  1.432958e+00    2.955727e+00
  1.448834e+00    2.971102e+00
  1.464709e+00    2.991961e+00
  1.480585e+00    2.954740e+00
  1.496460e+00    3.268680e+00
  1.512336e+00    3.317756e+00
  1.528211e+00    3.330413e+00
  1.544087e+00    3.291606e+00
  1.559963e+00    3.192038e+00
  1.575838e+00    3.162780e+00
  1.591714e+00    3.168851e+00
  1.607589e+00    3.191405e+00
  1.623465e+00    3.142306e+00
  1.639340e+00    3.075147e+00
  1.655216e+00    3.199917e+00
  1.671092e+00    3.206623e+00
  1.686967e+00    3.212412e+00
  1.702843e+00    3.140281e+00
  1.718718e+00    3.225192e+00
  1.734594e+00    3.226452e+00
  1.750469e+00    3.255135e+00
  1.766345e+00    3.137951e+00
  1.782221e+00    2.947349e+00
  1.798096e+00    3.010350e+00
  1.813972e+00    3.078715e+00
  1.829847e+00    3.158001e+00
  1.845723e+00    3.235826e+00
  1.861598e+00    2.986723e+00
  1.877474e+00    2.982664e+00
  1.893350e+00    3.165382e+00
  1.909225e+00    3.136467e+00
  1.925101e+00    3.103657e+00
  1.940976e+00    2.965548e+00
  1.956852e+00    2.996862e+00
  1.972727e+00    3.042991e+00
  1.988603e+00    3.135183e+00
  2.004479e+00    3.119004e+00
  2.020354e+00    3.083068e+00
  2.036230e+00    3.044436e+00
  2.052105e+00    3.067081e+00
  2.067981e+00    3.123287e+00
  2.083856e+00    3.082278e+00
  2.099732e+00    3.170305e+00
  2.115608e+00    3.081639e+00
  2.131483e+00    3.048644e+00
  2.147359e+00    3.098034e+00
  2.163234e+00    3.021563e+00
  2.179110e+00    2.990311e+00
  2.194985e+00    3.074824e+00
  2.210861e+00    3.080630e+00
  2.226737e+00    3.208247e+00
  2.242612e+00    3.187386e+00
  2.258488e+00    3.180040e+00
  2.274363e+00    3.158606e+00
  2.290239e+00    3.190644e+00
  2.306115e+00    3.140238e+00
  2.321990e+00    3.085978e+00
  2.337866e+00    3.038186e+00
  2.353741e+00    3.089395e+00
  2.369617e+00    3.136923e+00
  2.385492e+00    3.176514e+00
  2.401368e+00    3.141662e+00
  2.417244e+00    3.075391e+00
  2.433119e+00    3.087397e+00
  2.448995e+00    3.076707e+00
  2.464870e+00    3.186606e+00
  2.480746e+00    3.066874e+00
  2.496621e+00    3.076642e+00
  2.512497e+00    3.160721e+00
  2.528373e+00    3.229700e+00
  2.544248e+00    3.194606e+00
  2.560124e+00    3.120854e+00
  2.575999e+00    3.226517e+00
  2.591875e+00    3.305267e+00
  2.607750e+00    3.361626e+00
  2.623626e+00    3.276809e+00
  2.639502e+00    3.224335e+00
  2.655377e+00    3.215734e+00
  2.671253e+00    3.272523e+00
  2.687128e+00    3.284367e+00
  2.703004e+00    3.376762e+00
  2.718879e+00    3.232370e+00
  2.734755e+00    3.225743e+00
  2.750631e+00    3.211832e+00
  2.766506e+00    3.171790e+00
  2.782382e+00    3.215745e+00
  2.798257e+00    3.269791e+00
  2.814133e+00    3.365147e+00
  2.830008e+00    3.403728e+00
  2.845884e+00    3.272122e+00
  2.861760e+00    3.241336e+00
  2.877635e+00    3.349186e+00
  2.893511e+00    3.250188e+00
  2.909386e+00    3.364052e+00
  2.925262e+00    3.335228e+00
  2.941137e+00    3.332256e+00
  2.957013e+00    3.360291e+00
  2.972889e+00    3.375149e+00
  2.988764e+00    3.307594e+00
  3.004640e+00    3.347926e+00
  3.020515e+00    3.352054e+00
  3.036391e+00    3.371122e+00
  3.052266e+00    3.407931e+00
  3.068142e+00    3.343595e+00
  3.084018e+00    3.341785e+00
  3.099893e+00    3.375218e+00
  3.115769e+00    3.428634e+00
  3.131644e+00    3.386314e+00
  3.147520e+00    3.412093e+00
  3.163395e+00    3.408477e+00
  3.179271e+00    3.406101e+00
  3.195147e+00    3.387158e+00
  3.211022e+00    3.427728e+00
  3.226898e+00    3.340412e+00
  3.242773e+00    3.402908e+00
  3.258649e+00    3.390568e+00
  3.274525e+00    3.445754e+00
  3.290400e+00    3.378885e+00
  3.306276e+00    3.455656e+00
  3.322151e+00    3.506932e+00
  3.338027e+00    3.493747e+00
  3.353902e+00    3.482501e+00
  3.369778e+00    3.523871e+00
  3.385654e+00    3.490617e+00
  3.401529e+00    3.490167e+00
  3.417405e+00    3.461868e+00
  3.433280e+00    3.417785e+00
  3.449156e+00    3.381312e+00
  3.465031e+00    3.406763e+00
  3.480907e+00    3.482555e+00
  3.496783e+00    3.329822e+00
  3.512658e+00    3.377759e+00
  3.528534e+00    3.439392e+00
  3.544409e+00    3.451058e+00
  3.560285e+00    3.455472e+00
  3.576160e+00    3.443082e+00
  3.592036e+00    3.436879e+00
  3.607912e+00    3.418448e+00
  3.623787e+00    3.433031e+00
  3.639663e+00    3.405581e+00
  3.655538e+00    3.430343e+00
  3.671414e+00    3.497269e+00
  3.687289e+00    3.369177e+00
  3.703165e+00    3.438840e+00
  3.719041e+00    3.504195e+00
  3.734916e+00    3.443972e+00
  3.750792e+00    3.379879e+00
  3.766667e+00    3.458596e+00
  3.782543e+00    3.490392e+00
  3.798418e+00    3.569564e+00
  3.814294e+00    3.608814e+00
  3.830170e+00    3.555320e+00
  3.846045e+00    3.569368e+00
  3.861921e+00    3.565728e+00
  3.877796e+00    3.560905e+00
  3.893672e+00    3.616985e+00
  3.909547e+00    3.498389e+00
  3.925423e+00    3.516495e+00
  3.941299e+00    3.527018e+00
  3.957174e+00    3.516718e+00
  3.973050e+00    3.535853e+00
  3.988925e+00    3.515130e+00
  4.004801e+00    3.495455e+00
  4.020676e+00    3.605151e+00
  4.036552e+00    3.610309e+00
  4.052428e+00    3.532483e+00
  4.068303e+00    3.491215e+00
  4.084179e+00    3.510054e+00
  4.100054e+00    3.535053e+00
  4.115930e+00    3.501405e+00
  4.131806e+00    3.544762e+00
  4.147681e+00    3.620195e+00
  4.163557e+00    3.598039e+00
  4.179432e+00    3.538393e+00
  4.195308e+00    3.523800e+00
  4.211183e+00    3.557010e+00
  4.227059e+00    3.596181e+00
  4.242935e+00    3.630038e+00
  4.258810e+00    3.592273e+00
  4.274686e+00    3.572517e+00
  4.290561e+00    3.598299e+00
  4.306437e+00    3.679215e+00
  4.322312e+00    3.533484e+00
  4.338188e+00    3.558765e+00
  4.354064e+00    3.615143e+00
  4.369939e+00    3.662118e+00
  4.385815e+00    3.637698e+00
  4.401690e+00    3.611707e+00
  4.417566e+00    3.588667e+00
  4.433441e+00    3.527985e+00
  4.449317e+00    3.559452e+00
  4.465193e+00    3.569003e+00
  4.481068e+00    3.651747e+00
  4.496944e+00    3.609887e+00
  4.512819e+00    3.614991e+00
  4.528695e+00    3.618091e+00
  4.544570e+00    3.635114e+00
  4.560446e+00    3.607493e+00
  4.576322e+00    3.634573e+00
  4.592197e+00    3.655163e+00
  4.608073e+00    3.554759e+00
  4.623948e+00    3.522605e+00
  4.639824e+00    3.542490e+00
  4.655699e+00    3.581861e+00
  4.671575e+00    3.658952e+00
  4.687451e+00    3.631390e+00
  4.703326e+00    3.566593e+00
  4.719202e+00    3.477690e+00
  4.735077e+00    3.666095e+00
  4.750953e+00    3.717502e+00
  4.766828e+00    3.634344e+00
  4.782704e+00    3.628985e+00
  4.798580e+00    3.712271e+00
  4.814455e+00    3.635878e+00
  4.830331e+00    3.608905e+00
  4.846206e+00    3.696072e+00
  4.862082e+00    3.688892e+00
  4.877957e+00    3.633080e+00
  4.893833e+00    3.619439e+00
  4.909709e+00    3.651899e+00
  4.925584e+00    3.668535e+00
  4.941460e+00    3.678257e+00
  4.957335e+00    3.692256e+00
  4.973211e+00    3.716765e+00
  4.989086e+00    3.641465e+00
  5.004962e+00    3.610399e+00
  5.020838e+00    3.585199e+00
  5.036713e+00    3.583126e+00
  5.052589e+00    3.725327e+00
  5.068464e+00    3.717948e+00
  5.084340e+00    3.729936e+00
  5.100216e+00    3.687623e+00
  5.116091e+00    3.648286e+00
  5.131967e+00    3.599508e+00
  5.147842e+00    3.645857e+00
  5.163718e+00    3.754011e+00
  5.179593e+00    3.697932e+00
  5.195469e+00    3.641886e+00
  5.211345e+00    3.640222e+00
  5.227220e+00    3.676601e+00
  5.243096e+00    3.717214e+00
  5.258971e+00    3.729720e+00
  5.274847e+00    3.744843e+00
  5.290722e+00    3.604849e+00
  5.306598e+00    3.626796e+00
  5.322474e+00    3.688028e+00
  5.338349e+00    3.602467e+00
  5.354225e+00    3.643929e+00
  5.370100e+00    3.696608e+00
  5.385976e+00    3.795813e+00
  5.401851e+00    3.688458e+00
  5.417727e+00    3.595865e+00
  5.433603e+00    3.681374e+00
  5.449478e+00    3.717697e+00
  5.465354e+00    3.752785e+00
  5.481229e+00    3.663000e+00
  5.497105e+00    3.617491e+00
  5.512980e+00    3.630754e+00
  5.528856e+00    3.657826e+00
  5.544732e+00    3.590380e+00
  5.560607e+00    3.657147e+00
  5.576483e+00    3.670488e+00
  5.592358e+00    3.583983e+00
  5.608234e+00    3.596710e+00
  5.624109e+00    3.584649e+00
  5.639985e+00    3.619394e+00
  5.655861e+00    3.694578e+00
  5.671736e+00    3.648892e+00
  5.687612e+00    3.560723e+00
  5.703487e+00    3.505017e+00
  5.719363e+00    3.563922e+00
  5.735238e+00    3.668378e+00
  5.751114e+00    3.650340e+00
  5.766990e+00    3.558007e+00
  5.782865e+00    3.501323e+00
  5.798741e+00    3.599451e+00
  5.814616e+00    3.645270e+00
  5.830492e+00    3.512469e+00
  5.846367e+00    3.531104e+00
  5.862243e+00    3.583931e+00
  5.878119e+00    3.508567e+00
  5.893994e+00    3.557945e+00
  5.909870e+00    3.589827e+00
  5.925745e+00    3.567808e+00
  5.941621e+00    3.575718e+00
  5.957497e+00    3.556386e+00
  5.973372e+00    3.484123e+00
  5.989248e+00    3.460176e+00
  6.005123e+00    3.526670e+00
  6.020999e+00    3.494354e+00
  6.036874e+00    3.558565e+00
  6.052750e+00    3.586048e+00
  6.068626e+00    3.566824e+00
  6.084501e+00    3.529437e+00
  6.100377e+00    3.632856e+00
  6.116252e+00    3.618948e+00
  6.132128e+00    3.666070e+00
  6.148003e+00    3.631364e+00
  6.163879e+00    3.608722e+00
  6.179755e+00    3.607132e+00
  6.195630e+00    3.562716e+00
  6.211506e+00    3.503505e+00
  6.227381e+00    3.616084e+00
  6.243257e+00    3.623442e+00
  6.259132e+00    3.544626e+00
  6.275008e+00    3.599110e+00
  6.290884e+00    3.546417e+00
  6.306759e+00    3.554320e+00
  6.322635e+00    3.669075e+00
  6.338510e+00    3.627227e+00
  6.354386e+00    3.564922e+00
  6.370261e+00    3.499746e+00
  6.386137e+00    3.582012e+00
  6.402013e+00    3.618984e+00
  6.417888e+00    3.591639e+00
  6.433764e+00    3.551825e+00
  6.449639e+00    3.541821e+00
  6.465515e+00    3.575172e+00
  6.481390e+00    3.572638e+00
  6.497266e+00    3.655798e+00
  6.513142e+00    3.563066e+00
  6.529017e+00    3.605824e+00
  6.544893e+00    3.639345e+00
  6.560768e+00    3.592153e+00
  6.576644e+00    3.541709e+00
  6.592519e+00    3.555503e+00
  6.608395e+00    3.542453e+00
  6.624271e+00    3.535436e+00
  6.640146e+00    3.462246e+00
  6.656022e+00    3.458594e+00
  6.671897e+00    3.544671e+00
  6.687773e+00    3.547238e+00
  6.703648e+00    3.562002e+00
  6.719524e+00    3.510740e+00
  6.735400e+00    3.521778e+00
  6.751275e+00    3.522188e+00
  6.767151e+00    3.558096e+00
  6.783026e+00    3.510356e+00
  6.798902e+00    3.534722e+00
  6.814777e+00    3.504974e+00
  6.830653e+00    3.540703e+00
  6.846529e+00    3.557296e+00
  6.862404e+00    3.502032e+00
  6.878280e+00    3.503590e+00
  6.894155e+00    3.507395e+00
  6.910031e+00    3.465886e+00
  6.925907e+00    3.503696e+00
  6.941782e+00    3.504541e+00
  6.957658e+00    3.473706e+00
  6.973533e+00    3.582211e+00
  6.989409e+00    3.637282e+00
  7.005284e+00    3.525769e+00
  7.021160e+00    3.498014e+00
  7.037036e+00    3.515641e+00
  7.052911e+00    3.530488e+00
  7.068787e+00    3.540256e+00
  7.084662e+00    3.500542e+00
  7.100538e+00    3.501778e+00
  7.116413e+00    3.524781e+00
  7.132289e+00    3.579895e+00
  7.148165e+00    3.503394e+00
  7.164040e+00    3.506511e+00
  7.179916e+00    3.559103e+00
  7.195791e+00    3.552431e+00
  7.211667e+00    3.509785e+00
  7.227542e+00    3.535260e+00
  7.243418e+00    3.538731e+00
  7.259294e+00    3.470937e+00
  7.275169e+00    3.533437e+00
  7.291045e+00    3.531688e+00
  7.306920e+00    3.542778e+00
  7.322796e+00    3.543839e+00
  7.338671e+00    3.544838e+00
  7.354547e+00    3.520361e+00
  7.370423e+00    3.496537e+00
  7.386298e+00    3.555119e+00
  7.402174e+00    3.498050e+00
  7.418049e+00    3.581424e+00
  7.433925e+00    3.572068e+00
  7.449800e+00    3.526867e+00
  7.465676e+00    3.516056e+00
  7.481552e+00    3.534381e+00
  7.497427e+00    3.480234e+00
  7.513303e+00    3.411069e+00
  7.529178e+00    3.441046e+00
  7.545054e+00    3.452833e+00
  7.560929e+00    3.447984e+00
  7.576805e+00    3.462719e+00
  7.592681e+00    3.432588e+00
  7.608556e+00    3.428214e+00
  7.624432e+00    3.397908e+00
  7.640307e+00    3.437657e+00
  7.656183e+00    3.518996e+00
  7.672058e+00    3.476800e+00
  7.687934e+00    3.507736e+00
  7.703810e+00    3.492031e+00
  7.719685e+00    3.420601e+00
  7.735561e+00    3.371857e+00
  7.751436e+00    3.503623e+00
  7.767312e+00    3.457746e+00
  7.783187e+00    3.453614e+00
  7.799063e+00    3.492244e+00
  7.814939e+00    3.470794e+00
  7.830814e+00    3.464469e+00
  7.846690e+00    3.462319e+00
  7.862565e+00    3.469000e+00
  7.878441e+00    3.441945e+00
  7.894317e+00    3.423536e+00
  7.910192e+00    3.519814e+00
  7.926068e+00    3.506899e+00
  7.941943e+00    3.454480e+00
  7.957819e+00    3.443768e+00
  7.973694e+00    3.344467e+00
  7.989570e+00    3.381312e+00
  8.005446e+00    3.432915e+00
  8.021321e+00    3.427063e+00
  8.037197e+00    3.427955e+00
  8.053072e+00    3.453428e+00
  8.068948e+00    3.430576e+00
  8.084823e+00    3.463681e+00
  8.100699e+00    3.458319e+00
  8.116575e+00    3.486569e+00
  8.132450e+00    3.495045e+00
  8.148326e+00    3.485857e+00
  8.164201e+00    3.518491e+00
  8.180077e+00    3.446399e+00
  8.195952e+00    3.444020e+00
  8.211828e+00    3.500343e+00
  8.227704e+00    3.487037e+00
  8.243579e+00    3.403254e+00
  8.259455e+00    3.407209e+00
  8.275330e+00    3.476558e+00
  8.291206e+00    3.437180e+00
  8.307081e+00    3.401098e+00
  8.322957e+00    3.381183e+00
  8.338833e+00    3.386523e+00
  8.354708e+00    3.391426e+00
  8.370584e+00    3.386860e+00
  8.386459e+00    3.337288e+00
  8.402335e+00    3.307040e+00
  8.418210e+00    3.315681e+00
  8.434086e+00    3.359277e+00
  8.449962e+00    3.367444e+00
  8.465837e+00    3.355988e+00
  8.481713e+00    3.389470e+00
  8.497588e+00    3.416687e+00
  8.513464e+00    3.338301e+00
  8.529339e+00    3.319913e+00
  8.545215e+00    3.358315e+00
  8.561091e+00    3.313644e+00
  8.576966e+00    3.298356e+00
  8.592842e+00    3.371212e+00
  8.608717e+00    3.427178e+00
  8.624593e+00    3.414480e+00
  8.640468e+00    3.357023e+00
  8.656344e+00    3.332779e+00
  8.672220e+00    3.313537e+00
  8.688095e+00    3.323268e+00
  8.703971e+00    3.349882e+00
  8.719846e+00    3.386264e+00
  8.735722e+00    3.271458e+00
  8.751598e+00    3.359007e+00
  8.767473e+00    3.329356e+00
  8.783349e+00    3.361383e+00
  8.799224e+00    3.283493e+00
  8.815100e+00    3.260882e+00
  8.830975e+00    3.305659e+00
  8.846851e+00    3.283287e+00
  8.862727e+00    3.305190e+00
  8.878602e+00    3.398961e+00
  8.894478e+00    3.390740e+00
  8.910353e+00    3.364041e+00
  8.926229e+00    3.284620e+00
  8.942104e+00    3.275027e+00
  8.957980e+00    3.331417e+00
  8.973856e+00    3.272688e+00
  8.989731e+00    3.315205e+00
  9.005607e+00    3.322835e+00
  9.021482e+00    3.282207e+00
  9.037358e+00    3.231231e+00
  9.053233e+00    3.265119e+00
  9.069109e+00    3.301024e+00
  9.084985e+00    3.344775e+00
  9.100860e+00    3.324493e+00
  9.116736e+00    3.264335e+00
  9.132611e+00    3.201894e+00
  9.148487e+00    3.238308e+00
  9.164362e+00    3.222572e+00
  9.180238e+00    3.243788e+00
  9.196114e+00    3.254062e+00
  9.211989e+00    3.248586e+00
  9.227865e+00    3.285762e+00
  9.243740e+00    3.321713e+00
  9.259616e+00    3.294736e+00
  9.275491e+00    3.282416e+00
  9.291367e+00    3.211631e+00
  9.307243e+00    3.186081e+00
  9.323118e+00    3.220834e+00
  9.338994e+00    3.208167e+00
  9.354869e+00    3.214487e+00
  9.370745e+00    3.246512e+00
  9.386620e+00    3.220618e+00
  9.402496e+00    3.192317e+00
  9.418372e+00    3.239554e+00
  9.434247e+00    3.216899e+00
  9.450123e+00    3.273083e+00
  9.465998e+00    3.245418e+00
  9.481874e+00    3.204846e+00
  9.497749e+00    3.228154e+00
  9.513625e+00    3.264340e+00
  9.529501e+00    3.246216e+00
  9.545376e+00    3.249055e+00
  9.561252e+00    3.242892e+00
  9.577127e+00    3.258355e+00
  9.593003e+00    3.273042e+00
  9.608878e+00    3.233075e+00
  9.624754e+00    3.219878e+00
  9.640630e+00    3.228151e+00
  9.656505e+00    3.239590e+00
  9.672381e+00    3.260932e+00
  9.688256e+00    3.213238e+00
  9.704132e+00    3.158364e+00
  9.720008e+00    3.167963e+00
  9.735883e+00    3.154251e+00
  9.751759e+00    3.170757e+00
  9.767634e+00    3.122565e+00
  9.783510e+00    3.237657e+00
  9.799385e+00    3.223040e+00
  9.815261e+00    3.221655e+00
  9.831137e+00    3.197592e+00
  9.847012e+00    3.167206e+00
  9.862888e+00    3.184408e+00
  9.878763e+00    3.138074e+00
  9.894639e+00    3.148860e+00
  9.910514e+00    3.161112e+00
  9.926390e+00    3.147526e+00
  9.942266e+00    3.149852e+00
  9.958141e+00    3.104789e+00
  9.974017e+00    3.121512e+00
  9.989892e+00    3.143408e+00
  1.000577e+01    3.108416e+00
  1.002164e+01    3.141613e+00
  1.003752e+01    3.180114e+00
  1.005339e+01    3.160768e+00
  1.006927e+01    3.113948e+00
  1.008515e+01    3.130016e+00
  1.010102e+01    3.128854e+00
  1.011690e+01    3.124766e+00
  1.013277e+01    3.107713e+00
  1.014865e+01    3.072535e+00
  1.016452e+01    3.058261e+00
  1.018040e+01    3.126539e+00
  1.019627e+01    3.116337e+00
  1.021215e+01    3.099332e+00
  1.022803e+01    3.072088e+00
  1.024390e+01    3.064701e+00
  1.025978e+01    3.068211e+00
  1.027565e+01    3.056670e+00
  1.029153e+01    3.100803e+00
  1.030740e+01    3.138902e+00
  1.032328e+01    3.042153e+00
  1.033915e+01    3.023551e+00
  1.035503e+01    3.047512e+00
  1.037091e+01    3.028280e+00
  1.038678e+01    3.014722e+00
  1.040266e+01    3.021235e+00
  1.041853e+01    3.054062e+00
  1.043441e+01    3.025942e+00
  1.045028e+01    3.032898e+00
  1.046616e+01    2.998375e+00
  1.048204e+01    3.037430e+00
  1.049791e+01    3.027153e+00
  1.051379e+01    2.994427e+00
  1.052966e+01    2.954796e+00
  1.054554e+01    2.969583e+00
  1.056141e+01    3.009862e+00
  1.057729e+01    3.031055e+00
  1.059316e+01    2.966545e+00
  1.060904e+01    3.014982e+00
  1.062492e+01    3.001338e+00
  1.064079e+01    2.976966e+00
  1.065667e+01    2.933558e+00
  1.067254e+01    2.946318e+00
  1.068842e+01    2.968953e+00
  1.070429e+01    3.002289e+00
  1.072017e+01    2.992380e+00
  1.073604e+01    2.957603e+00
  1.075192e+01    2.910506e+00
  1.076780e+01    2.904877e+00
  1.078367e+01    2.948508e+00
  1.079955e+01    2.967525e+00
  1.081542e+01    2.967076e+00
  1.083130e+01    2.909218e+00
  1.084717e+01    2.890790e+00
  1.086305e+01    2.909340e+00
  1.087892e+01    2.948059e+00
  1.089480e+01    2.944194e+00
  1.091068e+01    2.903953e+00
  1.092655e+01    2.901863e+00
  1.094243e+01    2.911041e+00
  1.095830e+01    2.904632e+00
  1.097418e+01    2.915609e+00
  1.099005e+01    2.963267e+00
  1.100593e+01    2.940463e+00
  1.102180e+01    2.921191e+00
  1.103768e+01    2.932934e+00
  1.105356e+01    2.908387e+00
  1.106943e+01    2.868805e+00
  1.108531e+01    2.915854e+00
  1.110118e+01    2.943961e+00
  1.111706e+01    2.933440e+00
  1.113293e+01    2.866503e+00
  1.114881e+01    2.882532e+00
  1.116468e+01    2.883924e+00
  1.118056e+01    2.868891e+00
  1.119644e+01    2.904182e+00
  1.121231e+01    2.872850e+00
  1.122819e+01    2.886370e+00
  1.124406e+01    2.872241e+00
  1.125994e+01    2.845236e+00
  1.127581e+01    2.805926e+00
  1.129169e+01    2.818348e+00
  1.130756e+01    2.798103e+00
  1.132344e+01    2.801752e+00
  1.133932e+01    2.817529e+00
  1.135519e+01    2.871295e+00
  1.137107e+01    2.908299e+00
  1.138694e+01    2.874913e+00
  1.140282e+01    2.814782e+00
  1.141869e+01    2.849989e+00
  1.143457e+01    2.849400e+00
  1.145045e+01    2.774896e+00
  1.146632e+01    2.772354e+00
  1.148220e+01    2.776426e+00
  1.149807e+01    2.839413e+00
  1.151395e+01    2.815417e+00
  1.152982e+01    2.806525e+00
  1.154570e+01    2.810583e+00
  1.156157e+01    2.803328e+00
  1.157745e+01    2.797412e+00
  1.159333e+01    2.773503e+00
  1.160920e+01    2.775637e+00
  1.162508e+01    2.792019e+00
  1.164095e+01    2.813918e+00
  1.165683e+01    2.792405e+00
  1.167270e+01    2.770833e+00
  1.168858e+01    2.743510e+00
  1.170445e+01    2.799976e+00
  1.172033e+01    2.797444e+00
  1.173621e+01    2.743775e+00
  1.175208e+01    2.757498e+00
  1.176796e+01    2.808783e+00
  1.178383e+01    2.809694e+00
  1.179971e+01    2.733468e+00
  1.181558e+01    2.721810e+00
  1.183146e+01    2.673221e+00
  1.184733e+01    2.735398e+00
  1.186321e+01    2.741881e+00
  1.187909e+01    2.700785e+00
  1.189496e+01    2.676332e+00
  1.191084e+01    2.681496e+00
  1.192671e+01    2.716289e+00
  1.194259e+01    2.716573e+00
  1.195846e+01    2.684361e+00
  1.197434e+01    2.682034e+00
  1.199021e+01    2.716675e+00
  1.200609e+01    2.712692e+00
  1.202197e+01    2.743367e+00
  1.203784e+01    2.716282e+00
  1.205372e+01    2.716924e+00
  1.206959e+01    2.725596e+00
  1.208547e+01    2.759430e+00
  1.210134e+01    2.745773e+00
  1.211722e+01    2.795839e+00
  1.213309e+01    2.761236e+00
  1.214897e+01    2.728630e+00
  1.216485e+01    2.739725e+00
  1.218072e+01    2.729190e+00
  1.219660e+01    2.693621e+00
  1.221247e+01    2.682716e+00
  1.222835e+01    2.686475e+00
  1.224422e+01    2.672716e+00
  1.226010e+01    2.712890e+00
  1.227597e+01    2.655901e+00
  1.229185e+01    2.680328e+00
  1.230773e+01    2.687869e+00
  1.232360e+01    2.696776e+00
  1.233948e+01    2.688961e+00
  1.235535e+01    2.646567e+00
  1.237123e+01    2.706835e+00
  1.238710e+01    2.688885e+00
  1.240298e+01    2.686182e+00
  1.241886e+01    2.699203e+00
  1.243473e+01    2.685439e+00
  1.245061e+01    2.721775e+00
  1.246648e+01    2.687959e+00
  1.248236e+01    2.682680e+00
  1.249823e+01    2.727841e+00
  1.251411e+01    2.722094e+00
  1.252998e+01    2.743228e+00
  1.254586e+01    2.711743e+00
  1.256174e+01    2.801033e+00
  1.257761e+01    2.780061e+00
  1.259349e+01    2.774469e+00
  1.260936e+01    2.774583e+00
  1.262524e+01    2.758951e+00
  1.264111e+01    2.778488e+00
  1.265699e+01    2.764075e+00
  1.267286e+01    2.792608e+00
  1.268874e+01    2.848366e+00
  1.270462e+01    2.845743e+00
  1.272049e+01    2.903721e+00
  1.273637e+01    2.887571e+00
  1.275224e+01    2.889792e+00
  1.276812e+01    2.922996e+00
  1.278399e+01    3.000855e+00
  1.279987e+01    3.048573e+00
  1.281574e+01    3.042922e+00
  1.283162e+01    3.128874e+00
  1.284750e+01    3.172525e+00
  1.286337e+01    3.316959e+00
  1.287925e+01    3.388255e+00
  1.289512e+01    3.471252e+00
  1.291100e+01    3.670714e+00
  1.292687e+01    3.921117e+00
  1.294275e+01    4.129592e+00
  1.295862e+01    4.479532e+00
  1.297450e+01    4.806465e+00
  1.299038e+01    5.288325e+00
  1.300625e+01    5.950212e+00
  1.302213e+01    6.745990e+00
  1.303800e+01    7.879927e+00
  1.305388e+01    9.015697e+00
  1.306975e+01    1.031384e+01
  1.308563e+01    1.165580e+01
  1.310150e+01    1.280609e+01
  1.311738e+01    1.394971e+01
  1.313326e+01    1.490157e+01
  1.314913e+01    1.578930e+01
  1.316501e+01    1.637553e+01
  1.318088e+01    1.640750e+01
  1.319676e+01    1.566723e+01
  1.321263e+01    1.434653e+01
  1.322851e+01    1.253323e+01
  1.324438e+01    1.059746e+01
  1.326026e+01    9.054795e+00
  1.327614e+01    7.765994e+00
  1.329201e+01    6.701959e+00
  1.330789e+01    5.982427e+00
  1.332376e+01    5.348972e+00
  1.333964e+01    4.811476e+00
  1.335551e+01    4.410151e+00
  1.337139e+01    4.105715e+00
  1.338727e+01    3.827445e+00
  1.340314e+01    3.612364e+00
  1.341902e+01    3.449186e+00
  1.343489e+01    3.348273e+00
  1.345077e+01    3.254144e+00
  1.346664e+01    3.108498e+00
  1.348252e+01    3.014508e+00
  1.349839e+01    2.974526e+00
  1.351427e+01    2.939148e+00
  1.353015e+01    2.864527e+00
  1.354602e+01    2.812229e+00
  1.356190e+01    2.768754e+00
  1.357777e+01    2.765691e+00
  1.359365e+01    2.782005e+00
  1.360952e+01    2.722506e+00
  1.362540e+01    2.634307e+00
  1.364127e+01    2.633252e+00
  1.365715e+01    2.594561e+00
  1.367303e+01    2.565500e+00
  1.368890e+01    2.561478e+00
  1.370478e+01    2.537045e+00
  1.372065e+01    2.504658e+00
  1.373653e+01    2.511047e+00
  1.375240e+01    2.546484e+00
  1.376828e+01    2.498810e+00
  1.378415e+01    2.483297e+00
  1.380003e+01    2.507485e+00
  1.381591e+01    2.452220e+00
  1.383178e+01    2.441774e+00
  1.384766e+01    2.438742e+00
  1.386353e+01    2.440599e+00
  1.387941e+01    2.423562e+00
  1.389528e+01    2.465642e+00
  1.391116e+01    2.397584e+00
  1.392703e+01    2.388715e+00
  1.394291e+01    2.432326e+00
  1.395879e+01    2.417108e+00
  1.397466e+01    2.387054e+00
  1.399054e+01    2.368464e+00
  1.400641e+01    2.407030e+00
  1.402229e+01    2.386644e+00
  1.403816e+01    2.386290e+00
  1.405404e+01    2.371567e+00
  1.406991e+01    2.333349e+00
  1.408579e+01    2.352709e+00
  1.410167e+01    2.336507e+00
  1.411754e+01    2.353095e+00
  1.413342e+01    2.351896e+00
  1.414929e+01    2.312069e+00
  1.416517e+01    2.276496e+00
  1.418104e+01    2.293866e+00
  1.419692e+01    2.273981e+00
  1.421279e+01    2.266271e+00
  1.422867e+01    2.320612e+00
  1.424455e+01    2.312872e+00
  1.426042e+01    2.300957e+00
  1.427630e+01    2.291078e+00
  1.429217e+01    2.301231e+00
  1.430805e+01    2.289451e+00
  1.432392e+01    2.264048e+00
  1.433980e+01    2.283744e+00
  1.435568e+01    2.280561e+00
  1.437155e+01    2.279386e+00
  1.438743e+01    2.242209e+00
  1.440330e+01    2.219929e+00
  1.441918e+01    2.224149e+00
  1.443505e+01    2.267249e+00
  1.445093e+01    2.297007e+00
  1.446680e+01    2.286266e+00
  1.448268e+01    2.243126e+00
  1.449856e+01    2.260742e+00
  1.451443e+01    2.255261e+00
  1.453031e+01    2.229336e+00
  1.454618e+01    2.215987e+00
  1.456206e+01    2.220450e+00
  1.457793e+01    2.222763e+00
  1.459381e+01    2.223342e+00
  1.460968e+01    2.247516e+00
  1.462556e+01    2.213023e+00
  1.464144e+01    2.228912e+00
  1.465731e+01    2.248682e+00
  1.467319e+01    2.253942e+00
  1.468906e+01    2.211010e+00
  1.470494e+01    2.187604e+00
  1.472081e+01    2.212988e+00
  1.473669e+01    2.211696e+00
  1.475256e+01    2.221455e+00
  1.476844e+01    2.189342e+00
  1.478432e+01    2.209567e+00
  1.480019e+01    2.191046e+00
  1.481607e+01    2.193023e+00
  1.483194e+01    2.201177e+00
  1.484782e+01    2.192407e+00
  1.486369e+01    2.204691e+00
  1.487957e+01    2.173277e+00
  1.489544e+01    2.235093e+00
  1.491132e+01    2.266682e+00
  1.492720e+01    2.270727e+00
  1.494307e+01    2.302175e+00
  1.495895e+01    2.339002e+00
  1.497482e+01    2.352173e+00
  1.499070e+01    2.377108e+00
  1.500657e+01    2.449162e+00
  1.502245e+01    2.512421e+00
  1.503832e+01    2.597791e+00
  1.505420e+01    2.718003e+00
  1.507008e+01    2.869385e+00
  1.508595e+01    3.021616e+00
  1.510183e+01    3.219700e+00
  1.511770e+01    3.546903e+00
  1.513358e+01    3.870367e+00
  1.514945e+01    4.166203e+00
  1.516533e+01    4.585793e+00
  1.518120e+01    5.024497e+00
  1.519708e+01    5.273227e+00
  1.521296e+01    5.446412e+00
  1.522883e+01    5.629436e+00
  1.524471e+01    5.758966e+00
  1.526058e+01    5.854216e+00
  1.527646e+01    5.729449e+00
  1.529233e+01    5.437205e+00
  1.530821e+01    5.139247e+00
  1.532409e+01    4.647603e+00
  1.533996e+01    4.151752e+00
  1.535584e+01    3.752746e+00
  1.537171e+01    3.423640e+00
  1.538759e+01    3.133337e+00
  1.540346e+01    2.930876e+00
  1.541934e+01    2.761762e+00
  1.543521e+01    2.667742e+00
  1.545109e+01    2.568421e+00
  1.546697e+01    2.438725e+00
  1.548284e+01    2.364616e+00
  1.549872e+01    2.355159e+00
  1.551459e+01    2.299231e+00
  1.553047e+01    2.274711e+00
  1.554634e+01    2.193901e+00
  1.556222e+01    2.155382e+00
  1.557809e+01    2.121805e+00
  1.559397e+01    2.131095e+00
  1.560985e+01    2.104888e+00
  1.562572e+01    2.102472e+00
  1.564160e+01    2.039643e+00
  1.565747e+01    2.023921e+00
  1.567335e+01    1.986536e+00
  1.568922e+01    2.002879e+00
  1.570510e+01    1.995630e+00
  1.572097e+01    2.001298e+00
  1.573685e+01    1.983261e+00
  1.575273e+01    1.944036e+00
  1.576860e+01    1.937114e+00
  1.578448e+01    1.957103e+00
  1.580035e+01    1.955228e+00
  1.581623e+01    1.925140e+00
  1.583210e+01    1.929008e+00
  1.584798e+01    1.921182e+00
  1.586385e+01    1.948667e+00
  1.587973e+01    1.932548e+00
  1.589561e+01    1.923512e+00
  1.591148e+01    1.919575e+00
  1.592736e+01    1.892386e+00
  1.594323e+01    1.864543e+00
  1.595911e+01    1.898331e+00
  1.597498e+01    1.872538e+00
  1.599086e+01    1.870493e+00
  1.600673e+01    1.914948e+00
  1.602261e+01    1.873663e+00
  1.603849e+01    1.858601e+00
  1.605436e+01    1.836832e+00
  1.607024e+01    1.868048e+00
  1.608611e+01    1.853895e+00
  1.610199e+01    1.836055e+00
  1.611786e+01    1.821678e+00
  1.613374e+01    1.844197e+00
  1.614961e+01    1.864452e+00
  1.616549e+01    1.858650e+00
  1.618137e+01    1.830149e+00
  1.619724e+01    1.847090e+00
  1.621312e+01    1.823511e+00
  1.622899e+01    1.844227e+00
  1.624487e+01    1.821542e+00
  1.626074e+01    1.824532e+00
  1.627662e+01    1.826321e+00
  1.629250e+01    1.789726e+00
  1.630837e+01    1.784106e+00
  1.632425e+01    1.790371e+00
  1.634012e+01    1.805668e+00
  1.635600e+01    1.787270e+00
  1.637187e+01    1.805212e+00
  1.638775e+01    1.816339e+00
  1.640362e+01    1.821048e+00
  1.641950e+01    1.803080e+00
  1.643538e+01    1.778456e+00
  1.645125e+01    1.780547e+00
  1.646713e+01    1.780162e+00
  1.648300e+01    1.801411e+00
  1.649888e+01    1.771826e+00
  1.651475e+01    1.728446e+00
  1.653063e+01    1.736345e+00
  1.654650e+01    1.743609e+00
  1.656238e+01    1.723564e+00
  1.657826e+01    1.725343e+00
  1.659413e+01    1.729903e+00
  1.661001e+01    1.728421e+00
  1.662588e+01    1.720738e+00
  1.664176e+01    1.729598e+00
  1.665763e+01    1.743008e+00
  1.667351e+01    1.724316e+00
  1.668938e+01    1.709972e+00
  1.670526e+01    1.695365e+00
  1.672114e+01    1.717174e+00
  1.673701e+01    1.716243e+00
  1.675289e+01    1.708722e+00
  1.676876e+01    1.707434e+00
  1.678464e+01    1.711228e+00
  1.680051e+01    1.722953e+00
  1.681639e+01    1.699395e+00
  1.683226e+01    1.723883e+00
  1.684814e+01    1.717617e+00
  1.686402e+01    1.709026e+00
  1.687989e+01    1.712560e+00
  1.689577e+01    1.685358e+00
  1.691164e+01    1.711194e+00
  1.692752e+01    1.716626e+00
  1.694339e+01    1.706323e+00
  1.695927e+01    1.709319e+00
  1.697514e+01    1.675027e+00
  1.699102e+01    1.686218e+00
  1.700690e+01    1.692112e+00
  1.702277e+01    1.697068e+00
  1.703865e+01    1.670078e+00
  1.705452e+01    1.654327e+00
  1.707040e+01    1.646918e+00
  1.708627e+01    1.643256e+00
  1.710215e+01    1.664795e+00
  1.711802e+01    1.669107e+00
  1.713390e+01    1.650270e+00
  1.714978e+01    1.640503e+00
  1.716565e+01    1.658713e+00
  1.718153e+01    1.644470e+00
  1.719740e+01    1.674843e+00
  1.721328e+01    1.653673e+00
  1.722915e+01    1.628183e+00
  1.724503e+01    1.641243e+00
  1.726091e+01    1.615349e+00
  1.727678e+01    1.601200e+00
  1.729266e+01    1.604365e+00
  1.730853e+01    1.613065e+00
  1.732441e+01    1.602183e+00
  1.734028e+01    1.597010e+00
  1.735616e+01    1.594973e+00
  1.737203e+01    1.596071e+00
  1.738791e+01    1.628669e+00
  1.740379e+01    1.611751e+00
  1.741966e+01    1.611492e+00
  1.743554e+01    1.616491e+00
  1.745141e+01    1.623713e+00
  1.746729e+01    1.632068e+00
  1.748316e+01    1.598872e+00
  1.749904e+01    1.631320e+00
  1.751491e+01    1.638211e+00
  1.753079e+01    1.567737e+00
  1.754667e+01    1.566913e+00
  1.756254e+01    1.578585e+00
  1.757842e+01    1.572056e+00
  1.759429e+01    1.549338e+00
  1.761017e+01    1.562332e+00
  1.762604e+01    1.571807e+00
  1.764192e+01    1.546062e+00
  1.765779e+01    1.551654e+00
  1.767367e+01    1.540757e+00
  1.768955e+01    1.552529e+00
  1.770542e+01    1.549017e+00
  1.772130e+01    1.567120e+00
  1.773717e+01    1.576797e+00
  1.775305e+01    1.552156e+00
  1.776892e+01    1.553738e+00
  1.778480e+01    1.555775e+00
  1.780067e+01    1.550032e+00
  1.781655e+01    1.543528e+00
  1.783243e+01    1.533790e+00
  1.784830e+01    1.538594e+00
  1.786418e+01    1.536681e+00
  1.788005e+01    1.562764e+00
  1.789593e+01    1.564931e+00
  1.791180e+01    1.530621e+00
  1.792768e+01    1.514081e+00
  1.794355e+01    1.509950e+00
  1.795943e+01    1.503299e+00
  1.797531e+01    1.524749e+00
  1.799118e+01    1.529204e+00
  1.800706e+01    1.518074e+00
  1.802293e+01    1.510051e+00
  1.803881e+01    1.493146e+00
  1.805468e+01    1.466296e+00
  1.807056e+01    1.484751e+00
  1.808643e+01    1.498178e+00
  1.810231e+01    1.518150e+00
  1.811819e+01    1.495373e+00
  1.813406e+01    1.515113e+00
  1.814994e+01    1.508981e+00
  1.816581e+01    1.479436e+00
  1.818169e+01    1.473780e+00
  1.819756e+01    1.505539e+00
  1.821344e+01    1.504960e+00
  1.822932e+01    1.482197e+00
  1.824519e+01    1.508824e+00
  1.826107e+01    1.468476e+00
  1.827694e+01    1.475594e+00
  1.829282e+01    1.496678e+00
  1.830869e+01    1.474284e+00
  1.832457e+01    1.452943e+00
  1.834044e+01    1.463613e+00
  1.835632e+01    1.443003e+00
  1.837220e+01    1.447324e+00
  1.838807e+01    1.465672e+00
  1.840395e+01    1.485268e+00
  1.841982e+01    1.502221e+00
  1.843570e+01    1.452382e+00
  1.845157e+01    1.430779e+00
  1.846745e+01    1.413730e+00
  1.848332e+01    1.460495e+00
  1.849920e+01    1.439467e+00
  1.851508e+01    1.409982e+00
  1.853095e+01    1.409172e+00
  1.854683e+01    1.432960e+00
  1.856270e+01    1.399963e+00
  1.857858e+01    1.428548e+00
  1.859445e+01    1.443440e+00
  1.861033e+01    1.459522e+00
  1.862620e+01    1.453206e+00
  1.864208e+01    1.453974e+00
  1.865796e+01    1.412765e+00
  1.867383e+01    1.401282e+00
  1.868971e+01    1.408193e+00
  1.870558e+01    1.412256e+00
  1.872146e+01    1.435272e+00
  1.873733e+01    1.418202e+00
  1.875321e+01    1.406821e+00
  1.876908e+01    1.414855e+00
  1.878496e+01    1.414754e+00
  1.880084e+01    1.390581e+00
  1.881671e+01    1.370550e+00
  1.883259e+01    1.433704e+00
  1.884846e+01    1.437892e+00
  1.886434e+01    1.411183e+00
  1.888021e+01    1.369849e+00
  1.889609e+01    1.383899e+00
  1.891196e+01    1.387141e+00
  1.892784e+01    1.380811e+00
  1.894372e+01    1.380610e+00
  1.895959e+01    1.395770e+00
  1.897547e+01    1.383708e+00
  1.899134e+01    1.363353e+00
  1.900722e+01    1.370014e+00
  1.902309e+01    1.387947e+00
  1.903897e+01    1.389400e+00
  1.905484e+01    1.369436e+00
  1.907072e+01    1.372896e+00
  1.908660e+01    1.382337e+00
  1.910247e+01    1.403093e+00
  1.911835e+01    1.377256e+00
  1.913422e+01    1.359924e+00
  1.915010e+01    1.377512e+00
  1.916597e+01    1.363273e+00
  1.918185e+01    1.374802e+00
  1.919773e+01    1.380306e+00
  1.921360e+01    1.374252e+00
  1.922948e+01    1.343745e+00
  1.924535e+01    1.357882e+00
  1.926123e+01    1.352409e+00
  1.927710e+01    1.352116e+00
  1.929298e+01    1.347248e+00
  1.930885e+01    1.349039e+00
  1.932473e+01    1.379686e+00
  1.934061e+01    1.380504e+00
  1.935648e+01    1.352575e+00
  1.937236e+01    1.348390e+00
  1.938823e+01    1.351706e+00
  1.940411e+01    1.324781e+00
  1.941998e+01    1.337314e+00
  1.943586e+01    1.338094e+00
  1.945173e+01    1.325307e+00
  1.946761e+01    1.318203e+00
  1.948349e+01    1.318164e+00
  1.949936e+01    1.319202e+00
  1.951524e+01    1.327189e+00
  1.953111e+01    1.316027e+00
  1.954699e+01    1.318201e+00
  1.956286e+01    1.333331e+00
  1.957874e+01    1.326762e+00
  1.959461e+01    1.335098e+00
  1.961049e+01    1.327243e+00
  1.962637e+01    1.311769e+00
  1.964224e+01    1.322616e+00
  1.965812e+01    1.316006e+00
  1.967399e+01    1.288226e+00
  1.968987e+01    1.298097e+00
  1.970574e+01    1.317373e+00
  1.972162e+01    1.329630e+00
  1.973749e+01    1.312796e+00
  1.975337e+01    1.301216e+00
  1.976925e+01    1.317234e+00
  1.978512e+01    1.321711e+00
  1.980100e+01    1.286257e+00
  1.981687e+01    1.284991e+00
  1.983275e+01    1.289871e+00
  1.984862e+01    1.323780e+00
  1.986450e+01    1.291236e+00
  1.988037e+01    1.285375e+00
  1.989625e+01    1.329275e+00
  1.991213e+01    1.283362e+00
  1.992800e+01    1.267905e+00
  1.994388e+01    1.228378e+00
  1.995975e+01    1.257706e+00
  1.997563e+01    1.318466e+00
  1.999150e+01    1.310403e+00
  2.000738e+01    1.272450e+00
  2.002325e+01    1.259173e+00
  2.003913e+01    1.284304e+00
  2.005501e+01    1.298503e+00
  2.007088e+01    1.278675e+00
  2.008676e+01    1.277298e+00
  2.010263e+01    1.275394e+00
  2.011851e+01    1.259658e+00
  2.013438e+01    1.239606e+00
  2.015026e+01    1.247486e+00
  2.016614e+01    1.273333e+00
  2.018201e+01    1.249381e+00
  2.019789e+01    1.271121e+00
  2.021376e+01    1.272635e+00
  2.022964e+01    1.265026e+00
  2.024551e+01    1.258953e+00
  2.026139e+01    1.226886e+00
  2.027726e+01    1.258275e+00
  2.029314e+01    1.259314e+00
  2.030902e+01    1.247772e+00
  2.032489e+01    1.273011e+00
  2.034077e+01    1.302425e+00
  2.035664e+01    1.252623e+00
  2.037252e+01    1.273827e+00
  2.038839e+01    1.241214e+00
  2.040427e+01    1.261881e+00
  2.042014e+01    1.252531e+00
  2.043602e+01    1.267705e+00
  2.045190e+01    1.286287e+00
  2.046777e+01    1.252968e+00
  2.048365e+01    1.238068e+00
  2.049952e+01    1.233428e+00
  2.051540e+01    1.226918e+00
  2.053127e+01    1.246226e+00
  2.054715e+01    1.264793e+00
  2.056302e+01    1.251915e+00
  2.057890e+01    1.248872e+00
  2.059478e+01    1.251096e+00
  2.061065e+01    1.245784e+00
  2.062653e+01    1.238379e+00
  2.064240e+01    1.230132e+00
  2.065828e+01    1.252973e+00
  2.067415e+01    1.249907e+00
  2.069003e+01    1.235898e+00
  2.070590e+01    1.226593e+00
  2.072178e+01    1.220292e+00
  2.073766e+01    1.232860e+00
  2.075353e+01    1.217295e+00
  2.076941e+01    1.209632e+00
  2.078528e+01    1.218902e+00
  2.080116e+01    1.225087e+00
  2.081703e+01    1.209188e+00
  2.083291e+01    1.243837e+00
  2.084878e+01    1.233397e+00
  2.086466e+01    1.211935e+00
  2.088054e+01    1.202988e+00
  2.089641e+01    1.204997e+00
  2.091229e+01    1.223126e+00
  2.092816e+01    1.235524e+00
  2.094404e+01    1.232908e+00
  2.095991e+01    1.237530e+00
  2.097579e+01    1.225800e+00
  2.099166e+01    1.220093e+00
  2.100754e+01    1.222990e+00
  2.102342e+01    1.227858e+00
  2.103929e+01    1.225526e+00
  2.105517e+01    1.220777e+00
  2.107104e+01    1.210387e+00
  2.108692e+01    1.216727e+00
  2.110279e+01    1.245284e+00
  2.111867e+01    1.242354e+00
  2.113455e+01    1.246236e+00
  2.115042e+01    1.263037e+00
  2.116630e+01    1.252567e+00
  2.118217e+01    1.248340e+00
  2.119805e+01    1.241634e+00
  2.121392e+01    1.241194e+00
  2.122980e+01    1.251140e+00
  2.124567e+01    1.237198e+00
  2.126155e+01    1.238814e+00
  2.127743e+01    1.260384e+00
  2.129330e+01    1.290225e+00
  2.130918e+01    1.281901e+00
  2.132505e+01    1.247900e+00
  2.134093e+01    1.267973e+00
  2.135680e+01    1.299776e+00
  2.137268e+01    1.290789e+00
  2.138855e+01    1.278461e+00
  2.140443e+01    1.307854e+00
  2.142031e+01    1.343053e+00
  2.143618e+01    1.343007e+00
  2.145206e+01    1.350955e+00
  2.146793e+01    1.382274e+00
  2.148381e+01    1.378707e+00
  2.149968e+01    1.400162e+00
  2.151556e+01    1.429256e+00
  2.153143e+01    1.505058e+00
  2.154731e+01    1.523288e+00
  2.156319e+01    1.571748e+00
  2.157906e+01    1.645928e+00
  2.159494e+01    1.706836e+00
  2.161081e+01    1.770236e+00
  2.162669e+01    1.870483e+00
  2.164256e+01    2.004549e+00
  2.165844e+01    2.145511e+00
  2.167431e+01    2.348022e+00
  2.169019e+01    2.562539e+00
  2.170607e+01    2.856243e+00
  2.172194e+01    3.173353e+00
  2.173782e+01    3.630590e+00
  2.175369e+01    4.102426e+00
  2.176957e+01    4.684342e+00
  2.178544e+01    5.351229e+00
  2.180132e+01    5.985203e+00
  2.181719e+01    6.624675e+00
  2.183307e+01    7.266810e+00
  2.184895e+01    7.961672e+00
  2.186482e+01    8.481249e+00
  2.188070e+01    8.811076e+00
  2.189657e+01    8.932891e+00
  2.191245e+01    8.754179e+00
  2.192832e+01    8.185321e+00
  2.194420e+01    7.387514e+00
  2.196007e+01    6.557145e+00
  2.197595e+01    5.623539e+00
  2.199183e+01    4.770345e+00
  2.200770e+01    4.098165e+00
  2.202358e+01    3.612768e+00
  2.203945e+01    3.170470e+00
  2.205533e+01    2.844499e+00
  2.207120e+01    2.547207e+00
  2.208708e+01    2.370089e+00
  2.210296e+01    2.127288e+00
  2.211883e+01    1.961105e+00
  2.213471e+01    1.845989e+00
  2.215058e+01    1.771661e+00
  2.216646e+01    1.677755e+00
  2.218233e+01    1.601539e+00
  2.219821e+01    1.553896e+00
  2.221408e+01    1.497495e+00
  2.222996e+01    1.449564e+00
  2.224584e+01    1.418706e+00
  2.226171e+01    1.393985e+00
  2.227759e+01    1.351787e+00
  2.229346e+01    1.319484e+00
  2.230934e+01    1.334118e+00
  2.232521e+01    1.310156e+00
  2.234109e+01    1.251021e+00
  2.235696e+01    1.232219e+00
  2.237284e+01    1.240830e+00
  2.238872e+01    1.225621e+00
  2.240459e+01    1.208727e+00
  2.242047e+01    1.177210e+00
  2.243634e+01    1.179859e+00
  2.245222e+01    1.187418e+00
  2.246809e+01    1.157541e+00
  2.248397e+01    1.166021e+00
  2.249984e+01    1.149309e+00
  2.251572e+01    1.169214e+00
  2.253160e+01    1.177071e+00
  2.254747e+01    1.159588e+00
  2.256335e+01    1.135183e+00
  2.257922e+01    1.117757e+00
  2.259510e+01    1.099038e+00
  2.261097e+01    1.096029e+00
  2.262685e+01    1.096242e+00
  2.264272e+01    1.091584e+00
  2.265860e+01    1.105263e+00
  2.267448e+01    1.093809e+00
  2.269035e+01    1.089670e+00
  2.270623e+01    1.062849e+00
  2.272210e+01    1.073198e+00
  2.273798e+01    1.091589e+00
  2.275385e+01    1.089677e+00
  2.276973e+01    1.049731e+00
  2.278560e+01    1.055361e+00
  2.280148e+01    1.059133e+00
  2.281736e+01    1.045141e+00
  2.283323e+01    1.027726e+00
  2.284911e+01    1.047715e+00
  2.286498e+01    1.052245e+00
  2.288086e+01    1.041344e+00
  2.289673e+01    1.020436e+00
  2.291261e+01    1.027805e+00
  2.292848e+01    1.031198e+00
  2.294436e+01    1.057982e+00
  2.296024e+01    1.051512e+00
  2.297611e+01    1.026922e+00
  2.299199e+01    1.037421e+00
  2.300786e+01    1.045023e+00
  2.302374e+01    1.021365e+00
  2.303961e+01    1.002024e+00
  2.305549e+01    1.008151e+00
  2.307137e+01    1.001169e+00
  2.308724e+01    1.012698e+00
  2.310312e+01    1.036482e+00
  2.311899e+01    1.014212e+00
  2.313487e+01    1.003985e+00
  2.315074e+01    9.910037e-01
  2.316662e+01    9.902669e-01
  2.318249e+01    9.887986e-01
  2.319837e+01    1.008149e+00
  2.321425e+01    1.017342e+00
  2.323012e+01    9.993432e-01
  2.324600e+01    9.910700e-01
  2.326187e+01    9.907135e-01
  2.327775e+01    9.869347e-01
  2.329362e+01    9.995241e-01
  2.330950e+01    9.967356e-01
  2.332537e+01    9.794232e-01
  2.334125e+01    9.615879e-01
  2.335713e+01    9.658420e-01
  2.337300e+01    9.763118e-01
  2.338888e+01    9.712149e-01
  2.340475e+01    9.724715e-01
  2.342063e+01    9.880875e-01
  2.343650e+01    9.765458e-01
  2.345238e+01    9.653265e-01
  2.346825e+01    9.662298e-01
  2.348413e+01    9.601384e-01
  2.350001e+01    9.545201e-01
  2.351588e+01    9.592040e-01
  2.353176e+01    9.550221e-01
  2.354763e+01    9.550005e-01
  2.356351e+01    9.472648e-01
  2.357938e+01    9.483476e-01
  2.359526e+01    9.474077e-01
  2.361113e+01    9.641076e-01
  2.362701e+01    9.604379e-01
  2.364289e+01    9.757058e-01
  2.365876e+01    9.331627e-01
  2.367464e+01    9.395632e-01
  2.369051e+01    9.450775e-01
  2.370639e+01    9.361740e-01
  2.372226e+01    9.254932e-01
  2.373814e+01    9.385709e-01
  2.375401e+01    9.319785e-01
  2.376989e+01    9.388086e-01
  2.378577e+01    9.275386e-01
  2.380164e+01    9.250533e-01
  2.381752e+01    9.313889e-01
  2.383339e+01    9.222942e-01
  2.384927e+01    9.219612e-01
  2.386514e+01    9.298534e-01
  2.388102e+01    9.312507e-01
  2.389689e+01    9.221070e-01
  2.391277e+01    9.102375e-01
  2.392865e+01    9.175732e-01
  2.394452e+01    9.151531e-01
  2.396040e+01    9.320692e-01
  2.397627e+01    9.129598e-01
  2.399215e+01    9.118167e-01
  2.400802e+01    8.884766e-01
  2.402390e+01    9.024081e-01
  2.403978e+01    9.157231e-01
  2.405565e+01    8.989373e-01
  2.407153e+01    9.108851e-01
  2.408740e+01    9.046140e-01
  2.410328e+01    8.994107e-01
  2.411915e+01    9.107402e-01
  2.413503e+01    9.165580e-01
  2.415090e+01    8.844067e-01
  2.416678e+01    8.766156e-01
  2.418266e+01    8.845276e-01
  2.419853e+01    8.938132e-01
  2.421441e+01    8.970498e-01
  2.423028e+01    8.747687e-01
  2.424616e+01    8.973825e-01
  2.426203e+01    8.971398e-01
  2.427791e+01    8.973717e-01
  2.429378e+01    9.085120e-01
  2.430966e+01    8.773942e-01
  2.432554e+01    8.866807e-01
  2.434141e+01    9.020542e-01
  2.435729e+01    8.938771e-01
  2.437316e+01    9.005062e-01
  2.438904e+01    9.022610e-01
  2.440491e+01    8.968783e-01
  2.442079e+01    8.811451e-01
  2.443666e+01    8.862588e-01
  2.445254e+01    8.921731e-01
  2.446842e+01    9.040886e-01
  2.448429e+01    9.038768e-01
  2.450017e+01    8.902876e-01
  2.451604e+01    9.106799e-01
  2.453192e+01    9.197889e-01
  2.454779e+01    9.117168e-01
  2.456367e+01    8.810099e-01
  2.457954e+01    8.757102e-01
  2.459542e+01    8.880247e-01
  2.461130e+01    9.079691e-01
  2.462717e+01    9.168690e-01
  2.464305e+01    8.826187e-01
  2.465892e+01    8.786001e-01
  2.467480e+01    8.741761e-01
  2.469067e+01    8.939316e-01
  2.470655e+01    9.007246e-01
  2.472242e+01    8.982898e-01
  2.473830e+01    9.044688e-01
  2.475418e+01    8.965421e-01
  2.477005e+01    8.806372e-01
  2.478593e+01    8.828622e-01
  2.480180e+01    8.855246e-01
  2.481768e+01    9.058049e-01
  2.483355e+01    9.100319e-01
  2.484943e+01    8.972018e-01
  2.486530e+01    9.060636e-01
  2.488118e+01    8.984770e-01
  2.489706e+01    8.990470e-01
  2.491293e+01    8.899567e-01
  2.492881e+01    8.986058e-01
  2.494468e+01    9.102289e-01
  2.496056e+01    9.007925e-01
  2.497643e+01    8.999010e-01
  2.499231e+01    8.995831e-01
  2.500819e+01    9.018108e-01
  2.502406e+01    9.074395e-01
  2.503994e+01    8.959644e-01
  2.505581e+01    9.090412e-01
  2.507169e+01    9.168718e-01
  2.508756e+01    9.168446e-01
  2.510344e+01    9.128734e-01
  2.511931e+01    9.085708e-01
  2.513519e+01    9.179316e-01
  2.515107e+01    9.009093e-01
  2.516694e+01    9.294996e-01
  2.518282e+01    9.474612e-01
  2.519869e+01    9.481227e-01
  2.521457e+01    9.351833e-01
  2.523044e+01    9.213927e-01
  2.524632e+01    9.333891e-01
  2.526219e+01    9.325234e-01
  2.527807e+01    9.540127e-01
  2.529395e+01    9.529189e-01
  2.530982e+01    9.461752e-01
  2.532570e+01    9.693439e-01
  2.534157e+01    9.582790e-01
  2.535745e+01    9.812321e-01
  2.537332e+01    9.778973e-01
  2.538920e+01    9.734215e-01
  2.540507e+01    1.009565e+00
  2.542095e+01    1.026672e+00
  2.543683e+01    9.989971e-01
  2.545270e+01    1.013769e+00
  2.546858e+01    1.045808e+00
  2.548445e+01    1.072562e+00
  2.550033e+01    1.064531e+00
  2.551620e+01    1.085531e+00
  2.553208e+01    1.104187e+00
  2.554795e+01    1.114518e+00
  2.556383e+01    1.142054e+00
  2.557971e+01    1.164301e+00
  2.559558e+01    1.191250e+00
  2.561146e+01    1.227199e+00
  2.562733e+01    1.285177e+00
  2.564321e+01    1.327547e+00
  2.565908e+01    1.386171e+00
  2.567496e+01    1.446975e+00
  2.569083e+01    1.507603e+00
  2.570671e+01    1.613083e+00
  2.572259e+01    1.718640e+00
  2.573846e+01    1.906526e+00
  2.575434e+01    2.074647e+00
  2.577021e+01    2.269408e+00
  2.578609e+01    2.533386e+00
  2.580196e+01    2.874781e+00
  2.581784e+01    3.278090e+00
  2.583371e+01    3.731912e+00
  2.584959e+01    4.228912e+00
  2.586547e+01    4.754276e+00
  2.588134e+01    5.358205e+00
  2.589722e+01    5.937331e+00
  2.591309e+01    6.502110e+00
  2.592897e+01    6.920343e+00
  2.594484e+01    7.154143e+00
  2.596072e+01    7.145835e+00
  2.597660e+01    6.919792e+00
  2.599247e+01    6.521511e+00
  2.600835e+01    5.912710e+00
  2.602422e+01    5.213928e+00
  2.604010e+01    4.546404e+00
  2.605597e+01    3.925374e+00
  2.607185e+01    3.402939e+00
  2.608772e+01    2.966828e+00
  2.610360e+01    2.642240e+00
  2.611948e+01    2.318078e+00
  2.613535e+01    2.101757e+00
  2.615123e+01    1.942290e+00
  2.616710e+01    1.795292e+00
  2.618298e+01    1.685076e+00
  2.619885e+01    1.591975e+00
  2.621473e+01    1.468126e+00
  2.623060e+01    1.374927e+00
  2.624648e+01    1.327292e+00
  2.626236e+01    1.289359e+00
  2.627823e+01    1.247952e+00
  2.629411e+01    1.228069e+00
  2.630998e+01    1.175868e+00
  2.632586e+01    1.144309e+00
  2.634173e+01    1.109733e+00
  2.635761e+01    1.056823e+00
  2.637348e+01    1.075030e+00
  2.638936e+01    1.060560e+00
  2.640524e+01    1.065751e+00
  2.642111e+01    1.049765e+00
  2.643699e+01    1.047329e+00
  2.645286e+01    1.028625e+00
  2.646874e+01    1.025911e+00
  2.648461e+01    1.035372e+00
  2.650049e+01    1.022488e+00
  2.651636e+01    1.000293e+00
  2.653224e+01    9.983147e-01
  2.654812e+01    9.967383e-01
  2.656399e+01    9.956525e-01
  2.657987e+01    9.826837e-01
  2.659574e+01    9.835998e-01
  2.661162e+01    9.784779e-01
  2.662749e+01    9.838495e-01
  2.664337e+01    9.530275e-01
  2.665924e+01    9.608675e-01
  2.667512e+01    9.729708e-01
  2.669100e+01    9.731438e-01
  2.670687e+01    9.687495e-01
  2.672275e+01    9.630660e-01
  2.673862e+01    9.596035e-01
  2.675450e+01    9.677842e-01
  2.677037e+01    9.691246e-01
  2.678625e+01    9.667114e-01
  2.680212e+01    9.909982e-01
  2.681800e+01    9.768263e-01
  2.683388e+01    9.627972e-01
  2.684975e+01    9.701149e-01
  2.686563e+01    9.954163e-01
  2.688150e+01    9.831269e-01
  2.689738e+01    1.005932e+00
  2.691325e+01    1.006894e+00
  2.692913e+01    1.024111e+00
  2.694501e+01    1.022149e+00
  2.696088e+01    1.040510e+00
  2.697676e+01    1.066059e+00
  2.699263e+01    1.086327e+00
  2.700851e+01    1.109788e+00
  2.702438e+01    1.135631e+00
  2.704026e+01    1.193407e+00
  2.705613e+01    1.256328e+00
  2.707201e+01    1.330637e+00
  2.708789e+01    1.426288e+00
  2.710376e+01    1.530997e+00
  2.711964e+01    1.657740e+00
  2.713551e+01    1.778880e+00
  2.715139e+01    1.891234e+00
  2.716726e+01    1.996120e+00
  2.718314e+01    2.087523e+00
  2.719901e+01    2.135217e+00
  2.721489e+01    2.153606e+00
  2.723077e+01    2.162999e+00
  2.724664e+01    2.079741e+00
  2.726252e+01    1.960430e+00
  2.727839e+01    1.809355e+00
  2.729427e+01    1.675215e+00
  2.731014e+01    1.541607e+00
  2.732602e+01    1.442426e+00
  2.734189e+01    1.359721e+00
  2.735777e+01    1.264360e+00
  2.737365e+01    1.214918e+00
  2.738952e+01    1.170203e+00
  2.740540e+01    1.130452e+00
  2.742127e+01    1.097905e+00
  2.743715e+01    1.081058e+00
  2.745302e+01    1.025331e+00
  2.746890e+01    1.009843e+00
  2.748477e+01    1.010572e+00
  2.750065e+01    9.662592e-01
  2.751653e+01    9.580204e-01
  2.753240e+01    9.708889e-01
  2.754828e+01    9.758493e-01
  2.756415e+01    9.627772e-01
  2.758003e+01    9.358200e-01
  2.759590e+01    9.373539e-01
  2.761178e+01    9.207569e-01
  2.762765e+01    9.163637e-01
  2.764353e+01    9.248727e-01
  2.765941e+01    9.151702e-01
  2.767528e+01    9.107991e-01
  2.769116e+01    9.160618e-01
  2.770703e+01    9.001808e-01
  2.772291e+01    9.006047e-01
  2.773878e+01    9.215363e-01
  2.775466e+01    9.160942e-01
  2.777054e+01    8.932813e-01
  2.778641e+01    8.988065e-01
  2.780229e+01    9.187903e-01
  2.781816e+01    9.014506e-01
  2.783404e+01    8.722728e-01
  2.784991e+01    8.780440e-01
  2.786579e+01    8.864262e-01
  2.788166e+01    8.777729e-01
  2.789754e+01    8.704618e-01
  2.791342e+01    8.702685e-01
  2.792929e+01    8.790934e-01
  2.794517e+01    8.609199e-01
  2.796104e+01    8.901599e-01
  2.797692e+01    8.851935e-01
  2.799279e+01    8.595766e-01
  2.800867e+01    8.405378e-01
  2.802454e+01    8.412151e-01
  2.804042e+01    8.732079e-01
  2.805630e+01    8.944788e-01
  2.807217e+01    8.749950e-01
  2.808805e+01    8.516607e-01
  2.810392e+01    8.585566e-01
  2.811980e+01    8.717194e-01
  2.813567e+01    8.659104e-01
  2.815155e+01    8.556881e-01
  2.816742e+01    8.512701e-01
  2.818330e+01    8.777023e-01
  2.819918e+01    8.744314e-01
  2.821505e+01    8.647967e-01
  2.823093e+01    8.511180e-01
  2.824680e+01    8.586521e-01
  2.826268e+01    8.568637e-01
  2.827855e+01    8.692377e-01
  2.829443e+01    8.672676e-01
  2.831030e+01    8.529348e-01
  2.832618e+01    8.520780e-01
  2.834206e+01    8.475035e-01
  2.835793e+01    8.597615e-01
  2.837381e+01    8.696210e-01
  2.838968e+01    8.528653e-01
  2.840556e+01    8.393665e-01
  2.842143e+01    8.535306e-01
  2.843731e+01    8.513799e-01
  2.845318e+01    8.470406e-01
  2.846906e+01    8.599365e-01
  2.848494e+01    8.402787e-01
  2.850081e+01    8.299187e-01
  2.851669e+01    8.516586e-01
  2.853256e+01    8.399938e-01
  2.854844e+01    8.588308e-01
  2.856431e+01    8.341689e-01
  2.858019e+01    8.496510e-01
  2.859606e+01    8.312545e-01
  2.861194e+01    8.322204e-01
  2.862782e+01    8.182596e-01
  2.864369e+01    8.419476e-01
  2.865957e+01    8.456829e-01
  2.867544e+01    8.161738e-01
  2.869132e+01    8.388268e-01
  2.870719e+01    8.581520e-01
  2.872307e+01    8.245001e-01
  2.873895e+01    8.256474e-01
  2.875482e+01    8.223893e-01
  2.877070e+01    8.297901e-01
  2.878657e+01    8.417602e-01
  2.880245e+01    8.179123e-01
  2.881832e+01    8.177570e-01
  2.883420e+01    8.519614e-01
  2.885007e+01    8.620918e-01
  2.886595e+01    8.549975e-01
  2.888183e+01    8.417395e-01
  2.889770e+01    8.295094e-01
  2.891358e+01    8.289561e-01
  2.892945e+01    8.220741e-01
  2.894533e+01    8.263705e-01
  2.896120e+01    8.321514e-01
  2.897708e+01    8.271769e-01
  2.899295e+01    8.260188e-01
  2.900883e+01    8.247181e-01
  2.902471e+01    8.439011e-01
  2.904058e+01    8.246738e-01
  2.905646e+01    8.325351e-01
  2.907233e+01    8.229007e-01
  2.908821e+01    8.131642e-01
  2.910408e+01    8.059072e-01
  2.911996e+01    8.140180e-01
  2.913583e+01    8.272479e-01
  2.915171e+01    8.343713e-01
  2.916759e+01    8.266753e-01
  2.918346e+01    7.972025e-01
  2.919934e+01    8.022652e-01
  2.921521e+01    8.264827e-01
  2.923109e+01    8.299587e-01
  2.924696e+01    8.168135e-01
  2.926284e+01    8.230159e-01
  2.927871e+01    8.006211e-01
  2.929459e+01    8.121554e-01
  2.931047e+01    8.113429e-01
  2.932634e+01    8.110006e-01
  2.934222e+01    8.148814e-01
  2.935809e+01    8.349676e-01
  2.937397e+01    8.157033e-01
  2.938984e+01    8.274140e-01
  2.940572e+01    8.055677e-01
  2.942159e+01    8.129897e-01
  2.943747e+01    7.988144e-01
  2.945335e+01    8.165081e-01
  2.946922e+01    8.293830e-01
  2.948510e+01    8.208041e-01
  2.950097e+01    8.279094e-01
  2.951685e+01    8.137521e-01
  2.953272e+01    8.160414e-01
  2.954860e+01    7.992440e-01
  2.956447e+01    8.042436e-01
  2.958035e+01    8.109612e-01
  2.959623e+01    7.935449e-01
  2.961210e+01    7.885031e-01
  2.962798e+01    7.854845e-01
  2.964385e+01    7.959235e-01
  2.965973e+01    7.965076e-01
  2.967560e+01    8.072154e-01
  2.969148e+01    7.878345e-01
  2.970736e+01    8.063566e-01
  2.972323e+01    8.160560e-01
  2.973911e+01    7.999923e-01
  2.975498e+01    8.073890e-01
  2.977086e+01    8.169680e-01
  2.978673e+01    8.372025e-01
  2.980261e+01    8.225815e-01
  2.981848e+01    8.020921e-01
  2.983436e+01    8.106658e-01
  2.985024e+01    7.936591e-01
  2.986611e+01    7.842238e-01
  2.988199e+01    7.971726e-01
  2.989786e+01    7.928950e-01
  2.991374e+01    8.017625e-01
  2.992961e+01    7.912075e-01
  2.994549e+01    7.893356e-01
  2.996136e+01    7.928875e-01
  2.997724e+01    7.968706e-01
  2.999312e+01    7.903361e-01
  3.000899e+01    8.158157e-01
  3.002487e+01    8.108686e-01
  3.004074e+01    8.165025e-01
  3.005662e+01    8.219882e-01
  3.007249e+01    8.065064e-01
  3.008837e+01    7.889461e-01
  3.010424e+01    7.938684e-01
  3.012012e+01    7.993522e-01
  3.013600e+01    7.954239e-01
  3.015187e+01    7.974002e-01
  3.016775e+01    7.981448e-01
  3.018362e+01    7.898408e-01
  3.019950e+01    7.909908e-01
  3.021537e+01    7.927569e-01
  3.023125e+01    7.978934e-01
  3.024712e+01    7.978248e-01
  3.026300e+01    8.043939e-01
  3.027888e+01    7.943261e-01
  3.029475e+01    7.893597e-01
  3.031063e+01    7.925643e-01
  3.032650e+01    8.059506e-01
  3.034238e+01    8.071610e-01
  3.035825e+01    8.047252e-01
  3.037413e+01    7.796993e-01
  3.039000e+01    7.818268e-01
  3.040588e+01    7.795289e-01
  3.042176e+01    7.948785e-01
  3.043763e+01    8.030254e-01
  3.045351e+01    8.056752e-01
  3.046938e+01    8.087621e-01
  3.048526e+01    8.090103e-01
  3.050113e+01    7.659940e-01
  3.051701e+01    7.659302e-01
  3.053288e+01    7.816412e-01
  3.054876e+01    7.784204e-01
  3.056464e+01    7.694955e-01
  3.058051e+01    7.661986e-01
  3.059639e+01    7.875713e-01
  3.061226e+01    7.709970e-01
  3.062814e+01    7.604607e-01
  3.064401e+01    7.900289e-01
  3.065989e+01    7.732714e-01
  3.067577e+01    7.980129e-01
  3.069164e+01    7.941859e-01
  3.070752e+01    7.877103e-01
  3.072339e+01    7.800094e-01
  3.073927e+01    7.970034e-01
  3.075514e+01    7.812950e-01
  3.077102e+01    7.970561e-01
  3.078689e+01    7.951803e-01
  3.080277e+01    8.024152e-01
  3.081865e+01    7.872619e-01
  3.083452e+01    7.918964e-01
  3.085040e+01    8.002519e-01
  3.086627e+01    7.932491e-01
  3.088215e+01    7.898200e-01
  3.089802e+01    7.963564e-01
  3.091390e+01    7.973660e-01
  3.092977e+01    8.011068e-01
  3.094565e+01    7.882553e-01
  3.096153e+01    7.821932e-01
  3.097740e+01    7.773477e-01
  3.099328e+01    7.780429e-01
  3.100915e+01    7.749181e-01
  3.102503e+01    7.659485e-01
  3.104090e+01    7.865787e-01
  3.105678e+01    7.929808e-01
  3.107265e+01    7.851089e-01
  3.108853e+01    7.910874e-01
  3.110441e+01    7.931100e-01
  3.112028e+01    8.105804e-01
  3.113616e+01    8.013635e-01
  3.115203e+01    7.942755e-01
  3.116791e+01    7.904438e-01
  3.118378e+01    7.900463e-01
  3.119966e+01    8.001699e-01
  3.121553e+01    7.982978e-01
  3.123141e+01    7.903861e-01
  3.124729e+01    8.043836e-01
  3.126316e+01    8.176888e-01
  3.127904e+01    8.147087e-01
  3.129491e+01    8.004872e-01
  3.131079e+01    8.146287e-01
  3.132666e+01    8.166412e-01
  3.134254e+01    8.096470e-01
  3.135841e+01    8.083501e-01
  3.137429e+01    8.199663e-01
  3.139017e+01    8.195805e-01
  3.140604e+01    8.175898e-01
  3.142192e+01    8.264354e-01
  3.143779e+01    7.853612e-01
  3.145367e+01    8.034041e-01
  3.146954e+01    8.166630e-01
  3.148542e+01    8.452334e-01
  3.150129e+01    8.306838e-01
  3.151717e+01    8.293546e-01
  3.153305e+01    8.536438e-01
  3.154892e+01    8.704869e-01
  3.156480e+01    8.707861e-01
  3.158067e+01    8.603909e-01
  3.159655e+01    8.799116e-01
  3.161242e+01    8.941023e-01
  3.162830e+01    9.066547e-01
  3.164418e+01    9.236615e-01
  3.166005e+01    9.194750e-01
  3.167593e+01    9.742564e-01
  3.169180e+01    1.024695e+00
  3.170768e+01    1.012588e+00
  3.172355e+01    1.046517e+00
  3.173943e+01    1.125692e+00
  3.175530e+01    1.201161e+00
  3.177118e+01    1.266153e+00
  3.178706e+01    1.403047e+00
  3.180293e+01    1.485749e+00
  3.181881e+01    1.595471e+00
  3.183468e+01    1.723003e+00
  3.185056e+01    1.882102e+00
  3.186643e+01    1.994512e+00
  3.188231e+01    2.077233e+00
  3.189818e+01    2.099763e+00
  3.191406e+01    2.125708e+00
  3.192994e+01    2.063778e+00
  3.194581e+01    1.965522e+00
  3.196169e+01    1.812373e+00
  3.197756e+01    1.695883e+00
  3.199344e+01    1.539641e+00
  3.200931e+01    1.418794e+00
  3.202519e+01    1.320798e+00
  3.204106e+01    1.223513e+00
  3.205694e+01    1.175195e+00
  3.207282e+01    1.099648e+00
  3.208869e+01    1.043512e+00
  3.210457e+01    9.933361e-01
  3.212044e+01    9.597420e-01
  3.213632e+01    9.106488e-01
  3.215219e+01    9.011380e-01
  3.216807e+01    8.826663e-01
  3.218394e+01    8.640083e-01
  3.219982e+01    8.582239e-01
  3.221570e+01    8.540014e-01
  3.223157e+01    8.536149e-01
  3.224745e+01    8.302845e-01
  3.226332e+01    8.406313e-01
  3.227920e+01    8.330423e-01
  3.229507e+01    8.201153e-01
  3.231095e+01    8.327336e-01
  3.232682e+01    8.159366e-01
  3.234270e+01    8.098758e-01
  3.235858e+01    8.166482e-01
  3.237445e+01    8.016996e-01
  3.239033e+01    8.039979e-01
  3.240620e+01    7.961614e-01
  3.242208e+01    8.087771e-01
  3.243795e+01    7.981233e-01
  3.245383e+01    7.911259e-01
  3.246970e+01    7.790903e-01
  3.248558e+01    7.791815e-01
  3.250146e+01    7.705528e-01
  3.251733e+01    7.814540e-01
  3.253321e+01    7.646115e-01
  3.254908e+01    7.686670e-01
