# == pyFAI calibration ==
# Distance Sample to Detector: 0.3999999939076516 m
# PONI: 9.750e-02, 1.135e-01 m
# Rotations: -0.000175 0.000000 -0.000000 rad
# 
# == Fit2d calibration ==
# Distance Sample-beamCenter: 400.000 mm
# Center: x=1514.000, y=1300.000 pix
# Tilt: 0.010 deg  TiltPlanRot: 0.010 deg
# 
# Detector Detector	 Spline= None	 PixelSize= 7.500e-05, 7.500e-05 m
#    Detector has a mask: False 
#    Detector has a dark current: False 
#    detector has a flat field: False 
# 
# Wavelength: 6.888e-11 m
# Mask applied: user provided
# Dark current applied: False
# Flat field applied: False
# Polarization factor: 0.99
# Normalization factor: 1.0
# --> /home/myspot/data/2024_07_Rosario/Ru-CGO-ex/2024-07-27_003_Ru-CGO-ex_Reaction_dwell_000023_data_000161.dat
#       q_nm^-1             I 
  2.003187e-02    0.000000e+00
  3.590745e-02    0.000000e+00
  5.178302e-02    0.000000e+00
  6.765859e-02    1.391357e-01
  8.353417e-02    3.728580e-01
  9.940974e-02    2.068669e-01
  1.152853e-01    1.436194e-01
  1.311609e-01    5.413684e-02
  1.470365e-01    6.603020e-02
  1.629120e-01    3.496555e-04
  1.787876e-01    5.073420e-02
  1.946632e-01    5.330041e-02
  2.105388e-01    8.294715e-02
  2.264143e-01    3.798322e-02
  2.422899e-01    1.455680e-02
  2.581655e-01    8.541383e-03
  2.740411e-01    0.000000e+00
  2.899166e-01    1.828671e-02
  3.057922e-01    3.666696e-02
  3.216678e-01    3.641030e-02
  3.375433e-01    9.044936e-03
  3.534189e-01    3.508553e-02
  3.692945e-01    1.857209e-02
  3.851701e-01    3.601136e-02
  4.010456e-01    3.385086e-02
  4.169212e-01    2.542913e-02
  4.327968e-01    3.720050e-02
  4.486724e-01    2.330527e-02
  4.645479e-01    3.661542e-02
  4.804235e-01    3.188764e-02
  4.962991e-01    3.762519e-02
  5.121747e-01    3.497676e-02
  5.280502e-01    2.626158e-02
  5.439258e-01    3.618856e-02
  5.598014e-01    4.081945e-02
  5.756770e-01    3.522471e-02
  5.915525e-01    4.446103e-02
  6.074281e-01    8.630670e-02
  6.233037e-01    5.581583e-02
  6.391793e-01    2.189493e-02
  6.550548e-01    3.927271e-02
  6.709304e-01    4.796391e-02
  6.868060e-01    4.638333e-02
  7.026815e-01    2.950687e-02
  7.185571e-01    3.068877e-02
  7.344327e-01    4.770760e-02
  7.503083e-01    4.787838e-02
  7.661838e-01    7.066154e-02
  7.820594e-01    1.349768e-01
  7.979350e-01    1.872309e-01
  8.138106e-01    2.182537e-01
  8.296861e-01    3.643232e-01
  8.455617e-01    3.982473e-01
  8.614373e-01    3.679357e-01
  8.773129e-01    5.269333e-01
  8.931884e-01    6.293968e-01
  9.090640e-01    6.902003e-01
  9.249396e-01    7.679364e-01
  9.408152e-01    8.042524e-01
  9.566907e-01    8.714842e-01
  9.725663e-01    9.613543e-01
  9.884419e-01    1.109229e+00
  1.004317e+00    1.158116e+00
  1.020193e+00    1.274050e+00
  1.036069e+00    1.330656e+00
  1.051944e+00    1.441402e+00
  1.067820e+00    1.452684e+00
  1.083695e+00    1.493070e+00
  1.099571e+00    1.553233e+00
  1.115446e+00    1.518351e+00
  1.131322e+00    1.695930e+00
  1.147198e+00    1.709556e+00
  1.163073e+00    1.682002e+00
  1.178949e+00    1.740321e+00
  1.194824e+00    1.869602e+00
  1.210700e+00    2.044655e+00
  1.226575e+00    2.226385e+00
  1.242451e+00    2.342573e+00
  1.258327e+00    2.457601e+00
  1.274202e+00    2.607037e+00
  1.290078e+00    2.653983e+00
  1.305953e+00    2.751831e+00
  1.321829e+00    2.798164e+00
  1.337705e+00    2.574556e+00
  1.353580e+00    2.609891e+00
  1.369456e+00    2.718392e+00
  1.385331e+00    2.734744e+00
  1.401207e+00    2.825700e+00
  1.417082e+00    2.774312e+00
  1.432958e+00    2.863019e+00
  1.448834e+00    2.899082e+00
  1.464709e+00    2.994287e+00
  1.480585e+00    2.987373e+00
  1.496460e+00    3.169336e+00
  1.512336e+00    3.252249e+00
  1.528211e+00    3.128144e+00
  1.544087e+00    3.095028e+00
  1.559963e+00    3.185863e+00
  1.575838e+00    3.144901e+00
  1.591714e+00    3.228069e+00
  1.607589e+00    3.065035e+00
  1.623465e+00    2.942323e+00
  1.639340e+00    3.129331e+00
  1.655216e+00    3.031994e+00
  1.671092e+00    3.057512e+00
  1.686967e+00    3.123164e+00
  1.702843e+00    2.958494e+00
  1.718718e+00    2.890520e+00
  1.734594e+00    2.913452e+00
  1.750469e+00    3.070819e+00
  1.766345e+00    3.143559e+00
  1.782221e+00    3.055897e+00
  1.798096e+00    2.998914e+00
  1.813972e+00    2.933719e+00
  1.829847e+00    2.931511e+00
  1.845723e+00    2.873851e+00
  1.861598e+00    2.993032e+00
  1.877474e+00    3.016505e+00
  1.893350e+00    3.033307e+00
  1.909225e+00    2.912307e+00
  1.925101e+00    2.890313e+00
  1.940976e+00    3.006166e+00
  1.956852e+00    3.086414e+00
  1.972727e+00    3.054214e+00
  1.988603e+00    2.943766e+00
  2.004479e+00    2.957901e+00
  2.020354e+00    2.974010e+00
  2.036230e+00    3.031840e+00
  2.052105e+00    3.147859e+00
  2.067981e+00    3.066189e+00
  2.083856e+00    2.978609e+00
  2.099732e+00    3.038177e+00
  2.115608e+00    3.030699e+00
  2.131483e+00    3.089514e+00
  2.147359e+00    3.182437e+00
  2.163234e+00    3.205142e+00
  2.179110e+00    3.037849e+00
  2.194985e+00    2.985311e+00
  2.210861e+00    3.033218e+00
  2.226737e+00    3.117074e+00
  2.242612e+00    3.062668e+00
  2.258488e+00    3.041692e+00
  2.274363e+00    3.124935e+00
  2.290239e+00    3.226485e+00
  2.306115e+00    3.148760e+00
  2.321990e+00    3.048154e+00
  2.337866e+00    3.122421e+00
  2.353741e+00    3.042511e+00
  2.369617e+00    3.110034e+00
  2.385492e+00    3.252002e+00
  2.401368e+00    3.121093e+00
  2.417244e+00    3.128437e+00
  2.433119e+00    3.173390e+00
  2.448995e+00    3.144237e+00
  2.464870e+00    3.029682e+00
  2.480746e+00    3.145858e+00
  2.496621e+00    3.220033e+00
  2.512497e+00    3.231930e+00
  2.528373e+00    3.176633e+00
  2.544248e+00    3.130444e+00
  2.560124e+00    3.099670e+00
  2.575999e+00    3.151386e+00
  2.591875e+00    3.187403e+00
  2.607750e+00    3.210390e+00
  2.623626e+00    3.097777e+00
  2.639502e+00    3.101222e+00
  2.655377e+00    3.179317e+00
  2.671253e+00    3.157610e+00
  2.687128e+00    3.184872e+00
  2.703004e+00    3.234465e+00
  2.718879e+00    3.284207e+00
  2.734755e+00    3.208082e+00
  2.750631e+00    3.147705e+00
  2.766506e+00    3.297608e+00
  2.782382e+00    3.381396e+00
  2.798257e+00    3.272738e+00
  2.814133e+00    3.200009e+00
  2.830008e+00    3.236258e+00
  2.845884e+00    3.135710e+00
  2.861760e+00    3.238115e+00
  2.877635e+00    3.257143e+00
  2.893511e+00    3.294327e+00
  2.909386e+00    3.278059e+00
  2.925262e+00    3.251911e+00
  2.941137e+00    3.255952e+00
  2.957013e+00    3.185315e+00
  2.972889e+00    3.152714e+00
  2.988764e+00    3.236863e+00
  3.004640e+00    3.200805e+00
  3.020515e+00    3.220837e+00
  3.036391e+00    3.281637e+00
  3.052266e+00    3.269445e+00
  3.068142e+00    3.329923e+00
  3.084018e+00    3.329489e+00
  3.099893e+00    3.273311e+00
  3.115769e+00    3.277654e+00
  3.131644e+00    3.363535e+00
  3.147520e+00    3.392239e+00
  3.163395e+00    3.381847e+00
  3.179271e+00    3.352166e+00
  3.195147e+00    3.323976e+00
  3.211022e+00    3.234701e+00
  3.226898e+00    3.336997e+00
  3.242773e+00    3.472484e+00
  3.258649e+00    3.379686e+00
  3.274525e+00    3.387973e+00
  3.290400e+00    3.417226e+00
  3.306276e+00    3.388325e+00
  3.322151e+00    3.330251e+00
  3.338027e+00    3.372093e+00
  3.353902e+00    3.400177e+00
  3.369778e+00    3.424590e+00
  3.385654e+00    3.420162e+00
  3.401529e+00    3.364779e+00
  3.417405e+00    3.412885e+00
  3.433280e+00    3.292482e+00
  3.449156e+00    3.345938e+00
  3.465031e+00    3.335397e+00
  3.480907e+00    3.352292e+00
  3.496783e+00    3.364430e+00
  3.512658e+00    3.336526e+00
  3.528534e+00    3.419268e+00
  3.544409e+00    3.457258e+00
  3.560285e+00    3.464739e+00
  3.576160e+00    3.487452e+00
  3.592036e+00    3.406922e+00
  3.607912e+00    3.489252e+00
  3.623787e+00    3.485147e+00
  3.639663e+00    3.495791e+00
  3.655538e+00    3.381525e+00
  3.671414e+00    3.462555e+00
  3.687289e+00    3.526337e+00
  3.703165e+00    3.537827e+00
  3.719041e+00    3.513660e+00
  3.734916e+00    3.413684e+00
  3.750792e+00    3.410406e+00
  3.766667e+00    3.407247e+00
  3.782543e+00    3.505611e+00
  3.798418e+00    3.524110e+00
  3.814294e+00    3.451938e+00
  3.830170e+00    3.367162e+00
  3.846045e+00    3.420012e+00
  3.861921e+00    3.407195e+00
  3.877796e+00    3.435333e+00
  3.893672e+00    3.472678e+00
  3.909547e+00    3.505607e+00
  3.925423e+00    3.524662e+00
  3.941299e+00    3.513992e+00
  3.957174e+00    3.434005e+00
  3.973050e+00    3.529764e+00
  3.988925e+00    3.554303e+00
  4.004801e+00    3.412899e+00
  4.020676e+00    3.460124e+00
  4.036552e+00    3.424678e+00
  4.052428e+00    3.443717e+00
  4.068303e+00    3.552052e+00
  4.084179e+00    3.519937e+00
  4.100054e+00    3.473853e+00
  4.115930e+00    3.540723e+00
  4.131806e+00    3.586384e+00
  4.147681e+00    3.558287e+00
  4.163557e+00    3.583482e+00
  4.179432e+00    3.514757e+00
  4.195308e+00    3.472613e+00
  4.211183e+00    3.526829e+00
  4.227059e+00    3.480955e+00
  4.242935e+00    3.583702e+00
  4.258810e+00    3.560028e+00
  4.274686e+00    3.545655e+00
  4.290561e+00    3.604082e+00
  4.306437e+00    3.564054e+00
  4.322312e+00    3.532834e+00
  4.338188e+00    3.503526e+00
  4.354064e+00    3.505053e+00
  4.369939e+00    3.526060e+00
  4.385815e+00    3.585706e+00
  4.401690e+00    3.579429e+00
  4.417566e+00    3.561934e+00
  4.433441e+00    3.559878e+00
  4.449317e+00    3.603780e+00
  4.465193e+00    3.614663e+00
  4.481068e+00    3.549027e+00
  4.496944e+00    3.611327e+00
  4.512819e+00    3.607654e+00
  4.528695e+00    3.552530e+00
  4.544570e+00    3.572239e+00
  4.560446e+00    3.633267e+00
  4.576322e+00    3.566164e+00
  4.592197e+00    3.590251e+00
  4.608073e+00    3.586573e+00
  4.623948e+00    3.519214e+00
  4.639824e+00    3.516116e+00
  4.655699e+00    3.508429e+00
  4.671575e+00    3.572294e+00
  4.687451e+00    3.522567e+00
  4.703326e+00    3.563608e+00
  4.719202e+00    3.635400e+00
  4.735077e+00    3.650086e+00
  4.750953e+00    3.595952e+00
  4.766828e+00    3.581296e+00
  4.782704e+00    3.533954e+00
  4.798580e+00    3.581510e+00
  4.814455e+00    3.615264e+00
  4.830331e+00    3.653479e+00
  4.846206e+00    3.568041e+00
  4.862082e+00    3.551911e+00
  4.877957e+00    3.510748e+00
  4.893833e+00    3.596085e+00
  4.909709e+00    3.621011e+00
  4.925584e+00    3.673645e+00
  4.941460e+00    3.635670e+00
  4.957335e+00    3.640937e+00
  4.973211e+00    3.702027e+00
  4.989086e+00    3.674387e+00
  5.004962e+00    3.663775e+00
  5.020838e+00    3.539946e+00
  5.036713e+00    3.634071e+00
  5.052589e+00    3.653435e+00
  5.068464e+00    3.576138e+00
  5.084340e+00    3.568529e+00
  5.100216e+00    3.533829e+00
  5.116091e+00    3.589918e+00
  5.131967e+00    3.550928e+00
  5.147842e+00    3.629494e+00
  5.163718e+00    3.620015e+00
  5.179593e+00    3.610920e+00
  5.195469e+00    3.569844e+00
  5.211345e+00    3.615151e+00
  5.227220e+00    3.618265e+00
  5.243096e+00    3.602934e+00
  5.258971e+00    3.674735e+00
  5.274847e+00    3.701365e+00
  5.290722e+00    3.641730e+00
  5.306598e+00    3.653215e+00
  5.322474e+00    3.686243e+00
  5.338349e+00    3.649362e+00
  5.354225e+00    3.677762e+00
  5.370100e+00    3.585031e+00
  5.385976e+00    3.628821e+00
  5.401851e+00    3.618371e+00
  5.417727e+00    3.587525e+00
  5.433603e+00    3.609555e+00
  5.449478e+00    3.601720e+00
  5.465354e+00    3.513083e+00
  5.481229e+00    3.554373e+00
  5.497105e+00    3.593426e+00
  5.512980e+00    3.623006e+00
  5.528856e+00    3.554717e+00
  5.544732e+00    3.578916e+00
  5.560607e+00    3.558701e+00
  5.576483e+00    3.578995e+00
  5.592358e+00    3.593282e+00
  5.608234e+00    3.602184e+00
  5.624109e+00    3.647723e+00
  5.639985e+00    3.629441e+00
  5.655861e+00    3.600593e+00
  5.671736e+00    3.566208e+00
  5.687612e+00    3.521307e+00
  5.703487e+00    3.575005e+00
  5.719363e+00    3.616877e+00
  5.735238e+00    3.538407e+00
  5.751114e+00    3.563252e+00
  5.766990e+00    3.643477e+00
  5.782865e+00    3.552025e+00
  5.798741e+00    3.442954e+00
  5.814616e+00    3.446728e+00
  5.830492e+00    3.474773e+00
  5.846367e+00    3.464122e+00
  5.862243e+00    3.515141e+00
  5.878119e+00    3.537454e+00
  5.893994e+00    3.493580e+00
  5.909870e+00    3.411782e+00
  5.925745e+00    3.562295e+00
  5.941621e+00    3.709919e+00
  5.957497e+00    3.583299e+00
  5.973372e+00    3.450078e+00
  5.989248e+00    3.460025e+00
  6.005123e+00    3.464526e+00
  6.020999e+00    3.526157e+00
  6.036874e+00    3.505228e+00
  6.052750e+00    3.600803e+00
  6.068626e+00    3.525119e+00
  6.084501e+00    3.564005e+00
  6.100377e+00    3.549580e+00
  6.116252e+00    3.528532e+00
  6.132128e+00    3.611651e+00
  6.148003e+00    3.630602e+00
  6.163879e+00    3.577123e+00
  6.179755e+00    3.547312e+00
  6.195630e+00    3.555599e+00
  6.211506e+00    3.540313e+00
  6.227381e+00    3.552470e+00
  6.243257e+00    3.581595e+00
  6.259132e+00    3.592228e+00
  6.275008e+00    3.600336e+00
  6.290884e+00    3.550858e+00
  6.306759e+00    3.560217e+00
  6.322635e+00    3.501579e+00
  6.338510e+00    3.470588e+00
  6.354386e+00    3.542199e+00
  6.370261e+00    3.472824e+00
  6.386137e+00    3.537397e+00
  6.402013e+00    3.585015e+00
  6.417888e+00    3.565657e+00
  6.433764e+00    3.507979e+00
  6.449639e+00    3.552699e+00
  6.465515e+00    3.509668e+00
  6.481390e+00    3.528628e+00
  6.497266e+00    3.455038e+00
  6.513142e+00    3.446050e+00
  6.529017e+00    3.462911e+00
  6.544893e+00    3.500372e+00
  6.560768e+00    3.555248e+00
  6.576644e+00    3.533731e+00
  6.592519e+00    3.576413e+00
  6.608395e+00    3.556322e+00
  6.624271e+00    3.526554e+00
  6.640146e+00    3.470047e+00
  6.656022e+00    3.467159e+00
  6.671897e+00    3.518743e+00
  6.687773e+00    3.539426e+00
  6.703648e+00    3.510789e+00
  6.719524e+00    3.502314e+00
  6.735400e+00    3.470272e+00
  6.751275e+00    3.494534e+00
  6.767151e+00    3.524844e+00
  6.783026e+00    3.518495e+00
  6.798902e+00    3.551351e+00
  6.814777e+00    3.560239e+00
  6.830653e+00    3.536708e+00
  6.846529e+00    3.529810e+00
  6.862404e+00    3.494244e+00
  6.878280e+00    3.495041e+00
  6.894155e+00    3.490030e+00
  6.910031e+00    3.505870e+00
  6.925907e+00    3.587145e+00
  6.941782e+00    3.549382e+00
  6.957658e+00    3.552125e+00
  6.973533e+00    3.522918e+00
  6.989409e+00    3.596733e+00
  7.005284e+00    3.523723e+00
  7.021160e+00    3.513121e+00
  7.037036e+00    3.468554e+00
  7.052911e+00    3.518580e+00
  7.068787e+00    3.480101e+00
  7.084662e+00    3.483856e+00
  7.100538e+00    3.453622e+00
  7.116413e+00    3.462924e+00
  7.132289e+00    3.464891e+00
  7.148165e+00    3.527691e+00
  7.164040e+00    3.553002e+00
  7.179916e+00    3.442203e+00
  7.195791e+00    3.374520e+00
  7.211667e+00    3.386778e+00
  7.227542e+00    3.507892e+00
  7.243418e+00    3.488657e+00
  7.259294e+00    3.510287e+00
  7.275169e+00    3.476940e+00
  7.291045e+00    3.534085e+00
  7.306920e+00    3.533353e+00
  7.322796e+00    3.456890e+00
  7.338671e+00    3.515630e+00
  7.354547e+00    3.496155e+00
  7.370423e+00    3.498236e+00
  7.386298e+00    3.506069e+00
  7.402174e+00    3.484174e+00
  7.418049e+00    3.482148e+00
  7.433925e+00    3.454831e+00
  7.449800e+00    3.535602e+00
  7.465676e+00    3.521806e+00
  7.481552e+00    3.518254e+00
  7.497427e+00    3.516183e+00
  7.513303e+00    3.459682e+00
  7.529178e+00    3.455026e+00
  7.545054e+00    3.470529e+00
  7.560929e+00    3.449356e+00
  7.576805e+00    3.393060e+00
  7.592681e+00    3.387745e+00
  7.608556e+00    3.396231e+00
  7.624432e+00    3.460586e+00
  7.640307e+00    3.444630e+00
  7.656183e+00    3.464719e+00
  7.672058e+00    3.419410e+00
  7.687934e+00    3.420898e+00
  7.703810e+00    3.439032e+00
  7.719685e+00    3.403542e+00
  7.735561e+00    3.434125e+00
  7.751436e+00    3.436918e+00
  7.767312e+00    3.448547e+00
  7.783187e+00    3.428672e+00
  7.799063e+00    3.489411e+00
  7.814939e+00    3.403535e+00
  7.830814e+00    3.377193e+00
  7.846690e+00    3.434639e+00
  7.862565e+00    3.412701e+00
  7.878441e+00    3.441767e+00
  7.894317e+00    3.442816e+00
  7.910192e+00    3.410954e+00
  7.926068e+00    3.484771e+00
  7.941943e+00    3.441446e+00
  7.957819e+00    3.382721e+00
  7.973694e+00    3.358426e+00
  7.989570e+00    3.395545e+00
  8.005446e+00    3.455517e+00
  8.021321e+00    3.433402e+00
  8.037197e+00    3.364536e+00
  8.053072e+00    3.369060e+00
  8.068948e+00    3.398311e+00
  8.084823e+00    3.451350e+00
  8.100699e+00    3.431402e+00
  8.116575e+00    3.429734e+00
  8.132450e+00    3.419299e+00
  8.148326e+00    3.429169e+00
  8.164201e+00    3.474858e+00
  8.180077e+00    3.423988e+00
  8.195952e+00    3.452315e+00
  8.211828e+00    3.447410e+00
  8.227704e+00    3.467028e+00
  8.243579e+00    3.453305e+00
  8.259455e+00    3.335369e+00
  8.275330e+00    3.417659e+00
  8.291206e+00    3.377418e+00
  8.307081e+00    3.283428e+00
  8.322957e+00    3.372857e+00
  8.338833e+00    3.458217e+00
  8.354708e+00    3.381752e+00
  8.370584e+00    3.358360e+00
  8.386459e+00    3.352571e+00
  8.402335e+00    3.325273e+00
  8.418210e+00    3.335980e+00
  8.434086e+00    3.351856e+00
  8.449962e+00    3.358456e+00
  8.465837e+00    3.342393e+00
  8.481713e+00    3.358850e+00
  8.497588e+00    3.322408e+00
  8.513464e+00    3.343006e+00
  8.529339e+00    3.351648e+00
  8.545215e+00    3.340260e+00
  8.561091e+00    3.303470e+00
  8.576966e+00    3.290608e+00
  8.592842e+00    3.349628e+00
  8.608717e+00    3.285199e+00
  8.624593e+00    3.250204e+00
  8.640468e+00    3.341515e+00
  8.656344e+00    3.361223e+00
  8.672220e+00    3.298818e+00
  8.688095e+00    3.321174e+00
  8.703971e+00    3.292320e+00
  8.719846e+00    3.287920e+00
  8.735722e+00    3.310876e+00
  8.751598e+00    3.340530e+00
  8.767473e+00    3.308910e+00
  8.783349e+00    3.273174e+00
  8.799224e+00    3.347972e+00
  8.815100e+00    3.329082e+00
  8.830975e+00    3.246953e+00
  8.846851e+00    3.330253e+00
  8.862727e+00    3.340948e+00
  8.878602e+00    3.302632e+00
  8.894478e+00    3.285188e+00
  8.910353e+00    3.226398e+00
  8.926229e+00    3.201229e+00
  8.942104e+00    3.227770e+00
  8.957980e+00    3.219906e+00
  8.973856e+00    3.256063e+00
  8.989731e+00    3.229812e+00
  9.005607e+00    3.217405e+00
  9.021482e+00    3.243361e+00
  9.037358e+00    3.263225e+00
  9.053233e+00    3.272696e+00
  9.069109e+00    3.250891e+00
  9.084985e+00    3.258595e+00
  9.100860e+00    3.324083e+00
  9.116736e+00    3.350252e+00
  9.132611e+00    3.296821e+00
  9.148487e+00    3.232871e+00
  9.164362e+00    3.189696e+00
  9.180238e+00    3.240931e+00
  9.196114e+00    3.250754e+00
  9.211989e+00    3.209197e+00
  9.227865e+00    3.282082e+00
  9.243740e+00    3.285654e+00
  9.259616e+00    3.206138e+00
  9.275491e+00    3.182199e+00
  9.291367e+00    3.257436e+00
  9.307243e+00    3.277073e+00
  9.323118e+00    3.245417e+00
  9.338994e+00    3.236973e+00
  9.354869e+00    3.206406e+00
  9.370745e+00    3.185263e+00
  9.386620e+00    3.189152e+00
  9.402496e+00    3.213864e+00
  9.418372e+00    3.222375e+00
  9.434247e+00    3.223669e+00
  9.450123e+00    3.216319e+00
  9.465998e+00    3.212066e+00
  9.481874e+00    3.248541e+00
  9.497749e+00    3.254809e+00
  9.513625e+00    3.197474e+00
  9.529501e+00    3.157324e+00
  9.545376e+00    3.174767e+00
  9.561252e+00    3.188108e+00
  9.577127e+00    3.152423e+00
  9.593003e+00    3.200901e+00
  9.608878e+00    3.202448e+00
  9.624754e+00    3.193872e+00
  9.640630e+00    3.195899e+00
  9.656505e+00    3.139031e+00
  9.672381e+00    3.135455e+00
  9.688256e+00    3.116110e+00
  9.704132e+00    3.120868e+00
  9.720008e+00    3.190857e+00
  9.735883e+00    3.192654e+00
  9.751759e+00    3.142142e+00
  9.767634e+00    3.128843e+00
  9.783510e+00    3.161308e+00
  9.799385e+00    3.134514e+00
  9.815261e+00    3.116387e+00
  9.831137e+00    3.111838e+00
  9.847012e+00    3.128855e+00
  9.862888e+00    3.088575e+00
  9.878763e+00    3.084940e+00
  9.894639e+00    3.128346e+00
  9.910514e+00    3.123219e+00
  9.926390e+00    3.032098e+00
  9.942266e+00    3.066832e+00
  9.958141e+00    3.163422e+00
  9.974017e+00    3.160692e+00
  9.989892e+00    3.098713e+00
  1.000577e+01    3.110788e+00
  1.002164e+01    3.107509e+00
  1.003752e+01    3.102879e+00
  1.005339e+01    3.065585e+00
  1.006927e+01    3.099059e+00
  1.008515e+01    3.118928e+00
  1.010102e+01    3.093626e+00
  1.011690e+01    3.057827e+00
  1.013277e+01    3.029165e+00
  1.014865e+01    3.076863e+00
  1.016452e+01    3.089625e+00
  1.018040e+01    3.079221e+00
  1.019627e+01    3.061099e+00
  1.021215e+01    3.064754e+00
  1.022803e+01    3.033158e+00
  1.024390e+01    3.049214e+00
  1.025978e+01    3.095969e+00
  1.027565e+01    3.057652e+00
  1.029153e+01    3.000671e+00
  1.030740e+01    3.022547e+00
  1.032328e+01    3.034639e+00
  1.033915e+01    3.045324e+00
  1.035503e+01    3.050015e+00
  1.037091e+01    3.017606e+00
  1.038678e+01    3.001308e+00
  1.040266e+01    2.952156e+00
  1.041853e+01    2.951921e+00
  1.043441e+01    2.998672e+00
  1.045028e+01    3.046516e+00
  1.046616e+01    3.059824e+00
  1.048204e+01    3.013556e+00
  1.049791e+01    3.012513e+00
  1.051379e+01    2.980996e+00
  1.052966e+01    2.980599e+00
  1.054554e+01    2.989777e+00
  1.056141e+01    3.003751e+00
  1.057729e+01    2.951709e+00
  1.059316e+01    2.946592e+00
  1.060904e+01    2.946852e+00
  1.062492e+01    2.983739e+00
  1.064079e+01    2.971031e+00
  1.065667e+01    2.957654e+00
  1.067254e+01    2.942433e+00
  1.068842e+01    2.955137e+00
  1.070429e+01    2.973046e+00
  1.072017e+01    2.918800e+00
  1.073604e+01    2.901284e+00
  1.075192e+01    2.955069e+00
  1.076780e+01    2.944259e+00
  1.078367e+01    2.967077e+00
  1.079955e+01    3.014837e+00
  1.081542e+01    2.941142e+00
  1.083130e+01    2.858272e+00
  1.084717e+01    2.835498e+00
  1.086305e+01    2.870021e+00
  1.087892e+01    2.895834e+00
  1.089480e+01    2.925052e+00
  1.091068e+01    2.912246e+00
  1.092655e+01    2.872186e+00
  1.094243e+01    2.884633e+00
  1.095830e+01    2.868253e+00
  1.097418e+01    2.859603e+00
  1.099005e+01    2.913676e+00
  1.100593e+01    2.869154e+00
  1.102180e+01    2.914745e+00
  1.103768e+01    2.943254e+00
  1.105356e+01    2.893881e+00
  1.106943e+01    2.881810e+00
  1.108531e+01    2.883091e+00
  1.110118e+01    2.882430e+00
  1.111706e+01    2.883013e+00
  1.113293e+01    2.850265e+00
  1.114881e+01    2.841132e+00
  1.116468e+01    2.869790e+00
  1.118056e+01    2.887995e+00
  1.119644e+01    2.864734e+00
  1.121231e+01    2.853393e+00
  1.122819e+01    2.864409e+00
  1.124406e+01    2.817175e+00
  1.125994e+01    2.789174e+00
  1.127581e+01    2.824236e+00
  1.129169e+01    2.840189e+00
  1.130756e+01    2.865617e+00
  1.132344e+01    2.773181e+00
  1.133932e+01    2.800779e+00
  1.135519e+01    2.796171e+00
  1.137107e+01    2.758446e+00
  1.138694e+01    2.787380e+00
  1.140282e+01    2.782612e+00
  1.141869e+01    2.757544e+00
  1.143457e+01    2.773587e+00
  1.145045e+01    2.750321e+00
  1.146632e+01    2.769648e+00
  1.148220e+01    2.779781e+00
  1.149807e+01    2.773449e+00
  1.151395e+01    2.810646e+00
  1.152982e+01    2.805574e+00
  1.154570e+01    2.833895e+00
  1.156157e+01    2.769511e+00
  1.157745e+01    2.774837e+00
  1.159333e+01    2.784617e+00
  1.160920e+01    2.780429e+00
  1.162508e+01    2.737391e+00
  1.164095e+01    2.765457e+00
  1.165683e+01    2.810178e+00
  1.167270e+01    2.814126e+00
  1.168858e+01    2.821651e+00
  1.170445e+01    2.756605e+00
  1.172033e+01    2.740437e+00
  1.173621e+01    2.744490e+00
  1.175208e+01    2.724058e+00
  1.176796e+01    2.724213e+00
  1.178383e+01    2.725880e+00
  1.179971e+01    2.645960e+00
  1.181558e+01    2.680342e+00
  1.183146e+01    2.667006e+00
  1.184733e+01    2.697558e+00
  1.186321e+01    2.722163e+00
  1.187909e+01    2.745169e+00
  1.189496e+01    2.739621e+00
  1.191084e+01    2.733568e+00
  1.192671e+01    2.719583e+00
  1.194259e+01    2.719449e+00
  1.195846e+01    2.694697e+00
  1.197434e+01    2.708898e+00
  1.199021e+01    2.700261e+00
  1.200609e+01    2.719024e+00
  1.202197e+01    2.775354e+00
  1.203784e+01    2.740646e+00
  1.205372e+01    2.686369e+00
  1.206959e+01    2.642698e+00
  1.208547e+01    2.649965e+00
  1.210134e+01    2.668935e+00
  1.211722e+01    2.650931e+00
  1.213309e+01    2.678829e+00
  1.214897e+01    2.683192e+00
  1.216485e+01    2.743935e+00
  1.218072e+01    2.710120e+00
  1.219660e+01    2.633295e+00
  1.221247e+01    2.654607e+00
  1.222835e+01    2.698958e+00
  1.224422e+01    2.718742e+00
  1.226010e+01    2.700410e+00
  1.227597e+01    2.687001e+00
  1.229185e+01    2.699914e+00
  1.230773e+01    2.638088e+00
  1.232360e+01    2.609142e+00
  1.233948e+01    2.646189e+00
  1.235535e+01    2.674785e+00
  1.237123e+01    2.703768e+00
  1.238710e+01    2.669154e+00
  1.240298e+01    2.686055e+00
  1.241886e+01    2.697807e+00
  1.243473e+01    2.653410e+00
  1.245061e+01    2.655553e+00
  1.246648e+01    2.676886e+00
  1.248236e+01    2.651314e+00
  1.249823e+01    2.692153e+00
  1.251411e+01    2.680476e+00
  1.252998e+01    2.681092e+00
  1.254586e+01    2.686167e+00
  1.256174e+01    2.706561e+00
  1.257761e+01    2.710248e+00
  1.259349e+01    2.712105e+00
  1.260936e+01    2.692392e+00
  1.262524e+01    2.690622e+00
  1.264111e+01    2.704724e+00
  1.265699e+01    2.745863e+00
  1.267286e+01    2.774525e+00
  1.268874e+01    2.796138e+00
  1.270462e+01    2.785286e+00
  1.272049e+01    2.805138e+00
  1.273637e+01    2.816605e+00
  1.275224e+01    2.877222e+00
  1.276812e+01    2.905872e+00
  1.278399e+01    2.911236e+00
  1.279987e+01    2.995874e+00
  1.281574e+01    2.988822e+00
  1.283162e+01    3.052037e+00
  1.284750e+01    3.160451e+00
  1.286337e+01    3.216598e+00
  1.287925e+01    3.310051e+00
  1.289512e+01    3.481472e+00
  1.291100e+01    3.650867e+00
  1.292687e+01    3.800819e+00
  1.294275e+01    4.047859e+00
  1.295862e+01    4.327968e+00
  1.297450e+01    4.743894e+00
  1.299038e+01    5.202653e+00
  1.300625e+01    5.841357e+00
  1.302213e+01    6.627788e+00
  1.303800e+01    7.514898e+00
  1.305388e+01    8.738384e+00
  1.306975e+01    1.004812e+01
  1.308563e+01    1.125372e+01
  1.310150e+01    1.254609e+01
  1.311738e+01    1.362818e+01
  1.313326e+01    1.460970e+01
  1.314913e+01    1.549558e+01
  1.316501e+01    1.616817e+01
  1.318088e+01    1.624735e+01
  1.319676e+01    1.556808e+01
  1.321263e+01    1.428965e+01
  1.322851e+01    1.246733e+01
  1.324438e+01    1.064257e+01
  1.326026e+01    8.978143e+00
  1.327614e+01    7.679290e+00
  1.329201e+01    6.664916e+00
  1.330789e+01    5.832005e+00
  1.332376e+01    5.264965e+00
  1.333964e+01    4.825735e+00
  1.335551e+01    4.378841e+00
  1.337139e+01    4.068309e+00
  1.338727e+01    3.813145e+00
  1.340314e+01    3.583200e+00
  1.341902e+01    3.480561e+00
  1.343489e+01    3.323940e+00
  1.345077e+01    3.192797e+00
  1.346664e+01    3.070152e+00
  1.348252e+01    3.043998e+00
  1.349839e+01    2.972196e+00
  1.351427e+01    2.892527e+00
  1.353015e+01    2.851595e+00
  1.354602e+01    2.779510e+00
  1.356190e+01    2.770630e+00
  1.357777e+01    2.741185e+00
  1.359365e+01    2.696736e+00
  1.360952e+01    2.662411e+00
  1.362540e+01    2.645528e+00
  1.364127e+01    2.575811e+00
  1.365715e+01    2.569092e+00
  1.367303e+01    2.546278e+00
  1.368890e+01    2.525403e+00
  1.370478e+01    2.548565e+00
  1.372065e+01    2.512927e+00
  1.373653e+01    2.519442e+00
  1.375240e+01    2.477170e+00
  1.376828e+01    2.490029e+00
  1.378415e+01    2.488455e+00
  1.380003e+01    2.454235e+00
  1.381591e+01    2.465140e+00
  1.383178e+01    2.418748e+00
  1.384766e+01    2.401687e+00
  1.386353e+01    2.418132e+00
  1.387941e+01    2.394929e+00
  1.389528e+01    2.414371e+00
  1.391116e+01    2.416340e+00
  1.392703e+01    2.407053e+00
  1.394291e+01    2.341809e+00
  1.395879e+01    2.340543e+00
  1.397466e+01    2.349775e+00
  1.399054e+01    2.337127e+00
  1.400641e+01    2.350813e+00
  1.402229e+01    2.313517e+00
  1.403816e+01    2.327714e+00
  1.405404e+01    2.328910e+00
  1.406991e+01    2.320000e+00
  1.408579e+01    2.339305e+00
  1.410167e+01    2.313374e+00
  1.411754e+01    2.302002e+00
  1.413342e+01    2.356191e+00
  1.414929e+01    2.327910e+00
  1.416517e+01    2.274475e+00
  1.418104e+01    2.262538e+00
  1.419692e+01    2.251742e+00
  1.421279e+01    2.259397e+00
  1.422867e+01    2.228781e+00
  1.424455e+01    2.247645e+00
  1.426042e+01    2.244265e+00
  1.427630e+01    2.293158e+00
  1.429217e+01    2.319267e+00
  1.430805e+01    2.221787e+00
  1.432392e+01    2.242038e+00
  1.433980e+01    2.258845e+00
  1.435568e+01    2.254991e+00
  1.437155e+01    2.265157e+00
  1.438743e+01    2.238780e+00
  1.440330e+01    2.226315e+00
  1.441918e+01    2.250797e+00
  1.443505e+01    2.245014e+00
  1.445093e+01    2.237449e+00
  1.446680e+01    2.233882e+00
  1.448268e+01    2.190370e+00
  1.449856e+01    2.246122e+00
  1.451443e+01    2.231159e+00
  1.453031e+01    2.223747e+00
  1.454618e+01    2.239329e+00
  1.456206e+01    2.220014e+00
  1.457793e+01    2.200202e+00
  1.459381e+01    2.196881e+00
  1.460968e+01    2.208218e+00
  1.462556e+01    2.206299e+00
  1.464144e+01    2.209828e+00
  1.465731e+01    2.175728e+00
  1.467319e+01    2.162288e+00
  1.468906e+01    2.170966e+00
  1.470494e+01    2.224704e+00
  1.472081e+01    2.209085e+00
  1.473669e+01    2.196341e+00
  1.475256e+01    2.218764e+00
  1.476844e+01    2.201734e+00
  1.478432e+01    2.198253e+00
  1.480019e+01    2.213227e+00
  1.481607e+01    2.214095e+00
  1.483194e+01    2.199546e+00
  1.484782e+01    2.195144e+00
  1.486369e+01    2.229079e+00
  1.487957e+01    2.236394e+00
  1.489544e+01    2.198352e+00
  1.491132e+01    2.217340e+00
  1.492720e+01    2.270634e+00
  1.494307e+01    2.305948e+00
  1.495895e+01    2.335695e+00
  1.497482e+01    2.312801e+00
  1.499070e+01    2.364840e+00
  1.500657e+01    2.409936e+00
  1.502245e+01    2.553674e+00
  1.503832e+01    2.568076e+00
  1.505420e+01    2.632704e+00
  1.507008e+01    2.766305e+00
  1.508595e+01    2.935274e+00
  1.510183e+01    3.186989e+00
  1.511770e+01    3.445966e+00
  1.513358e+01    3.741762e+00
  1.514945e+01    4.076094e+00
  1.516533e+01    4.485005e+00
  1.518120e+01    4.791582e+00
  1.519708e+01    5.092403e+00
  1.521296e+01    5.312446e+00
  1.522883e+01    5.538875e+00
  1.524471e+01    5.670224e+00
  1.526058e+01    5.676018e+00
  1.527646e+01    5.593483e+00
  1.529233e+01    5.407707e+00
  1.530821e+01    5.090449e+00
  1.532409e+01    4.660690e+00
  1.533996e+01    4.249289e+00
  1.535584e+01    3.823274e+00
  1.537171e+01    3.380867e+00
  1.538759e+01    3.113494e+00
  1.540346e+01    2.914394e+00
  1.541934e+01    2.759850e+00
  1.543521e+01    2.621876e+00
  1.545109e+01    2.486735e+00
  1.546697e+01    2.382933e+00
  1.548284e+01    2.331109e+00
  1.549872e+01    2.327118e+00
  1.551459e+01    2.280605e+00
  1.553047e+01    2.179589e+00
  1.554634e+01    2.123575e+00
  1.556222e+01    2.123323e+00
  1.557809e+01    2.152085e+00
  1.559397e+01    2.129773e+00
  1.560985e+01    2.096347e+00
  1.562572e+01    2.042908e+00
  1.564160e+01    2.049434e+00
  1.565747e+01    2.041846e+00
  1.567335e+01    2.011457e+00
  1.568922e+01    1.973136e+00
  1.570510e+01    1.976839e+00
  1.572097e+01    1.980874e+00
  1.573685e+01    1.938952e+00
  1.575273e+01    1.938803e+00
  1.576860e+01    1.957651e+00
  1.578448e+01    1.907400e+00
  1.580035e+01    1.903141e+00
  1.581623e+01    1.904814e+00
  1.583210e+01    1.905741e+00
  1.584798e+01    1.909054e+00
  1.586385e+01    1.910344e+00
  1.587973e+01    1.928718e+00
  1.589561e+01    1.884755e+00
  1.591148e+01    1.871963e+00
  1.592736e+01    1.886752e+00
  1.594323e+01    1.896785e+00
  1.595911e+01    1.885330e+00
  1.597498e+01    1.848285e+00
  1.599086e+01    1.859077e+00
  1.600673e+01    1.891922e+00
  1.602261e+01    1.859062e+00
  1.603849e+01    1.846688e+00
  1.605436e+01    1.844324e+00
  1.607024e+01    1.848002e+00
  1.608611e+01    1.826683e+00
  1.610199e+01    1.817355e+00
  1.611786e+01    1.825064e+00
  1.613374e+01    1.824493e+00
  1.614961e+01    1.839299e+00
  1.616549e+01    1.833157e+00
  1.618137e+01    1.834540e+00
  1.619724e+01    1.812235e+00
  1.621312e+01    1.787296e+00
  1.622899e+01    1.814132e+00
  1.624487e+01    1.826296e+00
  1.626074e+01    1.790708e+00
  1.627662e+01    1.813356e+00
  1.629250e+01    1.782684e+00
  1.630837e+01    1.793333e+00
  1.632425e+01    1.796153e+00
  1.634012e+01    1.778876e+00
  1.635600e+01    1.788028e+00
  1.637187e+01    1.745856e+00
  1.638775e+01    1.763790e+00
  1.640362e+01    1.775518e+00
  1.641950e+01    1.758767e+00
  1.643538e+01    1.784501e+00
  1.645125e+01    1.774269e+00
  1.646713e+01    1.709090e+00
  1.648300e+01    1.709585e+00
  1.649888e+01    1.703935e+00
  1.651475e+01    1.733194e+00
  1.653063e+01    1.745234e+00
  1.654650e+01    1.767768e+00
  1.656238e+01    1.726505e+00
  1.657826e+01    1.718256e+00
  1.659413e+01    1.730124e+00
  1.661001e+01    1.733198e+00
  1.662588e+01    1.710970e+00
  1.664176e+01    1.735361e+00
  1.665763e+01    1.714411e+00
  1.667351e+01    1.711955e+00
  1.668938e+01    1.722559e+00
  1.670526e+01    1.681619e+00
  1.672114e+01    1.693533e+00
  1.673701e+01    1.713000e+00
  1.675289e+01    1.707819e+00
  1.676876e+01    1.691679e+00
  1.678464e+01    1.688689e+00
  1.680051e+01    1.722907e+00
  1.681639e+01    1.689003e+00
  1.683226e+01    1.682394e+00
  1.684814e+01    1.689198e+00
  1.686402e+01    1.697307e+00
  1.687989e+01    1.682603e+00
  1.689577e+01    1.662755e+00
  1.691164e+01    1.662538e+00
  1.692752e+01    1.646663e+00
  1.694339e+01    1.696985e+00
  1.695927e+01    1.684605e+00
  1.697514e+01    1.672933e+00
  1.699102e+01    1.677231e+00
  1.700690e+01    1.659861e+00
  1.702277e+01    1.679813e+00
  1.703865e+01    1.634771e+00
  1.705452e+01    1.613075e+00
  1.707040e+01    1.658790e+00
  1.708627e+01    1.624601e+00
  1.710215e+01    1.632722e+00
  1.711802e+01    1.648437e+00
  1.713390e+01    1.637429e+00
  1.714978e+01    1.603342e+00
  1.716565e+01    1.604607e+00
  1.718153e+01    1.625216e+00
  1.719740e+01    1.650904e+00
  1.721328e+01    1.620628e+00
  1.722915e+01    1.606885e+00
  1.724503e+01    1.620432e+00
  1.726091e+01    1.654325e+00
  1.727678e+01    1.634547e+00
  1.729266e+01    1.585253e+00
  1.730853e+01    1.589858e+00
  1.732441e+01    1.557099e+00
  1.734028e+01    1.571162e+00
  1.735616e+01    1.592301e+00
  1.737203e+01    1.581650e+00
  1.738791e+01    1.563704e+00
  1.740379e+01    1.557562e+00
  1.741966e+01    1.585696e+00
  1.743554e+01    1.562169e+00
  1.745141e+01    1.577760e+00
  1.746729e+01    1.585534e+00
  1.748316e+01    1.572022e+00
  1.749904e+01    1.559796e+00
  1.751491e+01    1.558684e+00
  1.753079e+01    1.574390e+00
  1.754667e+01    1.546910e+00
  1.756254e+01    1.559523e+00
  1.757842e+01    1.584437e+00
  1.759429e+01    1.579650e+00
  1.761017e+01    1.579587e+00
  1.762604e+01    1.586530e+00
  1.764192e+01    1.576306e+00
  1.765779e+01    1.559570e+00
  1.767367e+01    1.545865e+00
  1.768955e+01    1.520248e+00
  1.770542e+01    1.521304e+00
  1.772130e+01    1.538155e+00
  1.773717e+01    1.531126e+00
  1.775305e+01    1.546053e+00
  1.776892e+01    1.538959e+00
  1.778480e+01    1.536493e+00
  1.780067e+01    1.522459e+00
  1.781655e+01    1.529999e+00
  1.783243e+01    1.526994e+00
  1.784830e+01    1.536846e+00
  1.786418e+01    1.505304e+00
  1.788005e+01    1.511697e+00
  1.789593e+01    1.538615e+00
  1.791180e+01    1.491982e+00
  1.792768e+01    1.460183e+00
  1.794355e+01    1.496348e+00
  1.795943e+01    1.512102e+00
  1.797531e+01    1.506160e+00
  1.799118e+01    1.538441e+00
  1.800706e+01    1.541847e+00
  1.802293e+01    1.531302e+00
  1.803881e+01    1.482801e+00
  1.805468e+01    1.488503e+00
  1.807056e+01    1.480307e+00
  1.808643e+01    1.485851e+00
  1.810231e+01    1.511019e+00
  1.811819e+01    1.511485e+00
  1.813406e+01    1.501133e+00
  1.814994e+01    1.479819e+00
  1.816581e+01    1.457334e+00
  1.818169e+01    1.466141e+00
  1.819756e+01    1.482044e+00
  1.821344e+01    1.491337e+00
  1.822932e+01    1.498475e+00
  1.824519e+01    1.482474e+00
  1.826107e+01    1.482127e+00
  1.827694e+01    1.447019e+00
  1.829282e+01    1.465665e+00
  1.830869e+01    1.462770e+00
  1.832457e+01    1.467525e+00
  1.834044e+01    1.435689e+00
  1.835632e+01    1.424525e+00
  1.837220e+01    1.439878e+00
  1.838807e+01    1.417680e+00
  1.840395e+01    1.432401e+00
  1.841982e+01    1.449469e+00
  1.843570e+01    1.437504e+00
  1.845157e+01    1.451861e+00
  1.846745e+01    1.464679e+00
  1.848332e+01    1.442840e+00
  1.849920e+01    1.454502e+00
  1.851508e+01    1.445798e+00
  1.853095e+01    1.432172e+00
  1.854683e+01    1.450966e+00
  1.856270e+01    1.422667e+00
  1.857858e+01    1.423432e+00
  1.859445e+01    1.422844e+00
  1.861033e+01    1.441122e+00
  1.862620e+01    1.418770e+00
  1.864208e+01    1.411770e+00
  1.865796e+01    1.403025e+00
  1.867383e+01    1.414477e+00
  1.868971e+01    1.413761e+00
  1.870558e+01    1.388547e+00
  1.872146e+01    1.397744e+00
  1.873733e+01    1.394397e+00
  1.875321e+01    1.392975e+00
  1.876908e+01    1.386768e+00
  1.878496e+01    1.396300e+00
  1.880084e+01    1.415262e+00
  1.881671e+01    1.397414e+00
  1.883259e+01    1.392512e+00
  1.884846e+01    1.396657e+00
  1.886434e+01    1.380702e+00
  1.888021e+01    1.375915e+00
  1.889609e+01    1.392417e+00
  1.891196e+01    1.409073e+00
  1.892784e+01    1.385174e+00
  1.894372e+01    1.347878e+00
  1.895959e+01    1.362258e+00
  1.897547e+01    1.377787e+00
  1.899134e+01    1.364375e+00
  1.900722e+01    1.355966e+00
  1.902309e+01    1.376759e+00
  1.903897e+01    1.402604e+00
  1.905484e+01    1.370719e+00
  1.907072e+01    1.356268e+00
  1.908660e+01    1.370303e+00
  1.910247e+01    1.373310e+00
  1.911835e+01    1.371438e+00
  1.913422e+01    1.375218e+00
  1.915010e+01    1.357299e+00
  1.916597e+01    1.392884e+00
  1.918185e+01    1.366091e+00
  1.919773e+01    1.387130e+00
  1.921360e+01    1.363342e+00
  1.922948e+01    1.324147e+00
  1.924535e+01    1.365028e+00
  1.926123e+01    1.370253e+00
  1.927710e+01    1.370915e+00
  1.929298e+01    1.385265e+00
  1.930885e+01    1.356201e+00
  1.932473e+01    1.350476e+00
  1.934061e+01    1.349079e+00
  1.935648e+01    1.324357e+00
  1.937236e+01    1.346657e+00
  1.938823e+01    1.343294e+00
  1.940411e+01    1.337054e+00
  1.941998e+01    1.324844e+00
  1.943586e+01    1.359392e+00
  1.945173e+01    1.383044e+00
  1.946761e+01    1.370171e+00
  1.948349e+01    1.326257e+00
  1.949936e+01    1.327152e+00
  1.951524e+01    1.323764e+00
  1.953111e+01    1.312552e+00
  1.954699e+01    1.330468e+00
  1.956286e+01    1.329183e+00
  1.957874e+01    1.299270e+00
  1.959461e+01    1.327015e+00
  1.961049e+01    1.337637e+00
  1.962637e+01    1.303580e+00
  1.964224e+01    1.291168e+00
  1.965812e+01    1.290915e+00
  1.967399e+01    1.294721e+00
  1.968987e+01    1.289455e+00
  1.970574e+01    1.319568e+00
  1.972162e+01    1.302068e+00
  1.973749e+01    1.318843e+00
  1.975337e+01    1.295332e+00
  1.976925e+01    1.298003e+00
  1.978512e+01    1.314389e+00
  1.980100e+01    1.314214e+00
  1.981687e+01    1.298130e+00
  1.983275e+01    1.301774e+00
  1.984862e+01    1.314631e+00
  1.986450e+01    1.273140e+00
  1.988037e+01    1.286673e+00
  1.989625e+01    1.300074e+00
  1.991213e+01    1.285552e+00
  1.992800e+01    1.253569e+00
  1.994388e+01    1.284955e+00
  1.995975e+01    1.304656e+00
  1.997563e+01    1.286701e+00
  1.999150e+01    1.303200e+00
  2.000738e+01    1.294319e+00
  2.002325e+01    1.278332e+00
  2.003913e+01    1.269278e+00
  2.005501e+01    1.279688e+00
  2.007088e+01    1.263559e+00
  2.008676e+01    1.281576e+00
  2.010263e+01    1.281407e+00
  2.011851e+01    1.279561e+00
  2.013438e+01    1.284557e+00
  2.015026e+01    1.271647e+00
  2.016614e+01    1.258631e+00
  2.018201e+01    1.259343e+00
  2.019789e+01    1.224925e+00
  2.021376e+01    1.219620e+00
  2.022964e+01    1.246903e+00
  2.024551e+01    1.247513e+00
  2.026139e+01    1.276061e+00
  2.027726e+01    1.261630e+00
  2.029314e+01    1.252079e+00
  2.030902e+01    1.217625e+00
  2.032489e+01    1.238821e+00
  2.034077e+01    1.245300e+00
  2.035664e+01    1.218945e+00
  2.037252e+01    1.222788e+00
  2.038839e+01    1.244251e+00
  2.040427e+01    1.257071e+00
  2.042014e+01    1.240583e+00
  2.043602e+01    1.225084e+00
  2.045190e+01    1.199764e+00
  2.046777e+01    1.201286e+00
  2.048365e+01    1.240260e+00
  2.049952e+01    1.226806e+00
  2.051540e+01    1.221350e+00
  2.053127e+01    1.202204e+00
  2.054715e+01    1.201402e+00
  2.056302e+01    1.227619e+00
  2.057890e+01    1.240847e+00
  2.059478e+01    1.225143e+00
  2.061065e+01    1.237257e+00
  2.062653e+01    1.208626e+00
  2.064240e+01    1.209986e+00
  2.065828e+01    1.223538e+00
  2.067415e+01    1.204008e+00
  2.069003e+01    1.218742e+00
  2.070590e+01    1.202514e+00
  2.072178e+01    1.202225e+00
  2.073766e+01    1.208045e+00
  2.075353e+01    1.236679e+00
  2.076941e+01    1.226274e+00
  2.078528e+01    1.203951e+00
  2.080116e+01    1.199129e+00
  2.081703e+01    1.205473e+00
  2.083291e+01    1.218655e+00
  2.084878e+01    1.204335e+00
  2.086466e+01    1.213476e+00
  2.088054e+01    1.216909e+00
  2.089641e+01    1.216762e+00
  2.091229e+01    1.241004e+00
  2.092816e+01    1.228961e+00
  2.094404e+01    1.184623e+00
  2.095991e+01    1.208079e+00
  2.097579e+01    1.223586e+00
  2.099166e+01    1.222929e+00
  2.100754e+01    1.227886e+00
  2.102342e+01    1.206511e+00
  2.103929e+01    1.213667e+00
  2.105517e+01    1.204605e+00
  2.107104e+01    1.206295e+00
  2.108692e+01    1.199121e+00
  2.110279e+01    1.209328e+00
  2.111867e+01    1.220091e+00
  2.113455e+01    1.219728e+00
  2.115042e+01    1.229223e+00
  2.116630e+01    1.221841e+00
  2.118217e+01    1.221114e+00
  2.119805e+01    1.223584e+00
  2.121392e+01    1.239869e+00
  2.122980e+01    1.224023e+00
  2.124567e+01    1.214095e+00
  2.126155e+01    1.220943e+00
  2.127743e+01    1.211652e+00
  2.129330e+01    1.234536e+00
  2.130918e+01    1.262404e+00
  2.132505e+01    1.262362e+00
  2.134093e+01    1.249476e+00
  2.135680e+01    1.259276e+00
  2.137268e+01    1.269962e+00
  2.138855e+01    1.289752e+00
  2.140443e+01    1.304570e+00
  2.142031e+01    1.312063e+00
  2.143618e+01    1.318862e+00
  2.145206e+01    1.352035e+00
  2.146793e+01    1.346509e+00
  2.148381e+01    1.345755e+00
  2.149968e+01    1.388283e+00
  2.151556e+01    1.410133e+00
  2.153143e+01    1.470906e+00
  2.154731e+01    1.508056e+00
  2.156319e+01    1.563591e+00
  2.157906e+01    1.633183e+00
  2.159494e+01    1.692218e+00
  2.161081e+01    1.742365e+00
  2.162669e+01    1.823450e+00
  2.164256e+01    1.949423e+00
  2.165844e+01    2.091656e+00
  2.167431e+01    2.265433e+00
  2.169019e+01    2.469815e+00
  2.170607e+01    2.690260e+00
  2.172194e+01    3.027635e+00
  2.173782e+01    3.453777e+00
  2.175369e+01    3.940345e+00
  2.176957e+01    4.518286e+00
  2.178544e+01    5.083982e+00
  2.180132e+01    5.727481e+00
  2.181719e+01    6.400249e+00
  2.183307e+01    7.062683e+00
  2.184895e+01    7.690029e+00
  2.186482e+01    8.251057e+00
  2.188070e+01    8.685626e+00
  2.189657e+01    8.787279e+00
  2.191245e+01    8.641933e+00
  2.192832e+01    8.247409e+00
  2.194420e+01    7.488854e+00
  2.196007e+01    6.555094e+00
  2.197595e+01    5.675452e+00
  2.199183e+01    4.875526e+00
  2.200770e+01    4.203558e+00
  2.202358e+01    3.649887e+00
  2.203945e+01    3.180098e+00
  2.205533e+01    2.845072e+00
  2.207120e+01    2.574393e+00
  2.208708e+01    2.296738e+00
  2.210296e+01    2.126679e+00
  2.211883e+01    1.959453e+00
  2.213471e+01    1.818293e+00
  2.215058e+01    1.749132e+00
  2.216646e+01    1.689263e+00
  2.218233e+01    1.614665e+00
  2.219821e+01    1.522651e+00
  2.221408e+01    1.458339e+00
  2.222996e+01    1.445085e+00
  2.224584e+01    1.378930e+00
  2.226171e+01    1.365865e+00
  2.227759e+01    1.346121e+00
  2.229346e+01    1.309823e+00
  2.230934e+01    1.279290e+00
  2.232521e+01    1.255455e+00
  2.234109e+01    1.263144e+00
  2.235696e+01    1.241172e+00
  2.237284e+01    1.207115e+00
  2.238872e+01    1.187522e+00
  2.240459e+01    1.190132e+00
  2.242047e+01    1.200987e+00
  2.243634e+01    1.149981e+00
  2.245222e+01    1.161665e+00
  2.246809e+01    1.155640e+00
  2.248397e+01    1.147009e+00
  2.249984e+01    1.145829e+00
  2.251572e+01    1.126695e+00
  2.253160e+01    1.121022e+00
  2.254747e+01    1.112399e+00
  2.256335e+01    1.108299e+00
  2.257922e+01    1.107750e+00
  2.259510e+01    1.102162e+00
  2.261097e+01    1.084631e+00
  2.262685e+01    1.076193e+00
  2.264272e+01    1.067808e+00
  2.265860e+01    1.079426e+00
  2.267448e+01    1.075266e+00
  2.269035e+01    1.096450e+00
  2.270623e+01    1.080333e+00
  2.272210e+01    1.059424e+00
  2.273798e+01    1.044606e+00
  2.275385e+01    1.021494e+00
  2.276973e+01    1.033826e+00
  2.278560e+01    1.060370e+00
  2.280148e+01    1.037392e+00
  2.281736e+01    1.037200e+00
  2.283323e+01    1.017188e+00
  2.284911e+01    1.063222e+00
  2.286498e+01    1.052739e+00
  2.288086e+01    1.051546e+00
  2.289673e+01    1.028971e+00
  2.291261e+01    1.026210e+00
  2.292848e+01    1.015955e+00
  2.294436e+01    1.002402e+00
  2.296024e+01    1.019533e+00
  2.297611e+01    1.023408e+00
  2.299199e+01    1.058973e+00
  2.300786e+01    1.033361e+00
  2.302374e+01    1.006645e+00
  2.303961e+01    1.006764e+00
  2.305549e+01    9.855235e-01
  2.307137e+01    1.012994e+00
  2.308724e+01    9.935904e-01
  2.310312e+01    9.894838e-01
  2.311899e+01    9.868833e-01
  2.313487e+01    9.927126e-01
  2.315074e+01    9.859140e-01
  2.316662e+01    9.958009e-01
  2.318249e+01    9.899150e-01
  2.319837e+01    1.002756e+00
  2.321425e+01    1.015883e+00
  2.323012e+01    9.963559e-01
  2.324600e+01    9.888969e-01
  2.326187e+01    9.795413e-01
  2.327775e+01    9.740673e-01
  2.329362e+01    9.651102e-01
  2.330950e+01    9.757861e-01
  2.332537e+01    9.744978e-01
  2.334125e+01    9.809288e-01
  2.335713e+01    9.549594e-01
  2.337300e+01    9.541429e-01
  2.338888e+01    9.685044e-01
  2.340475e+01    9.597480e-01
  2.342063e+01    9.735117e-01
  2.343650e+01    9.720309e-01
  2.345238e+01    9.775517e-01
  2.346825e+01    9.684700e-01
  2.348413e+01    9.435197e-01
  2.350001e+01    9.577044e-01
  2.351588e+01    9.482079e-01
  2.353176e+01    9.451398e-01
  2.354763e+01    9.530357e-01
  2.356351e+01    9.498031e-01
  2.357938e+01    9.609488e-01
  2.359526e+01    9.470930e-01
  2.361113e+01    9.471155e-01
  2.362701e+01    9.617081e-01
  2.364289e+01    9.745840e-01
  2.365876e+01    9.505531e-01
  2.367464e+01    9.590564e-01
  2.369051e+01    9.412505e-01
  2.370639e+01    9.243696e-01
  2.372226e+01    9.286749e-01
  2.373814e+01    9.318317e-01
  2.375401e+01    9.297185e-01
  2.376989e+01    9.088281e-01
  2.378577e+01    9.164707e-01
  2.380164e+01    8.895257e-01
  2.381752e+01    8.920594e-01
  2.383339e+01    9.192743e-01
  2.384927e+01    9.098850e-01
  2.386514e+01    9.136098e-01
  2.388102e+01    9.160236e-01
  2.389689e+01    9.147437e-01
  2.391277e+01    9.220079e-01
  2.392865e+01    9.118418e-01
  2.394452e+01    9.306266e-01
  2.396040e+01    9.102058e-01
  2.397627e+01    8.970516e-01
  2.399215e+01    8.939464e-01
  2.400802e+01    8.916630e-01
  2.402390e+01    9.129993e-01
  2.403978e+01    8.905367e-01
  2.405565e+01    8.743938e-01
  2.407153e+01    8.758911e-01
  2.408740e+01    9.033170e-01
  2.410328e+01    9.015326e-01
  2.411915e+01    8.783786e-01
  2.413503e+01    9.073728e-01
  2.415090e+01    8.988198e-01
  2.416678e+01    8.752626e-01
  2.418266e+01    8.661062e-01
  2.419853e+01    8.580858e-01
  2.421441e+01    8.504195e-01
  2.423028e+01    8.743716e-01
  2.424616e+01    8.672369e-01
  2.426203e+01    9.092357e-01
  2.427791e+01    8.971153e-01
  2.429378e+01    8.773284e-01
  2.430966e+01    8.851264e-01
  2.432554e+01    8.914059e-01
  2.434141e+01    8.720270e-01
  2.435729e+01    8.790582e-01
  2.437316e+01    8.938345e-01
  2.438904e+01    8.971985e-01
  2.440491e+01    8.853537e-01
  2.442079e+01    8.815998e-01
  2.443666e+01    8.907206e-01
  2.445254e+01    8.749127e-01
  2.446842e+01    8.718228e-01
  2.448429e+01    8.872958e-01
  2.450017e+01    9.024523e-01
  2.451604e+01    8.889639e-01
  2.453192e+01    8.752856e-01
  2.454779e+01    8.826088e-01
  2.456367e+01    8.767273e-01
  2.457954e+01    8.636498e-01
  2.459542e+01    8.812204e-01
  2.461130e+01    8.964169e-01
  2.462717e+01    8.951793e-01
  2.464305e+01    8.923484e-01
  2.465892e+01    8.936530e-01
  2.467480e+01    9.017866e-01
  2.469067e+01    8.827929e-01
  2.470655e+01    8.832871e-01
  2.472242e+01    8.844063e-01
  2.473830e+01    8.988130e-01
  2.475418e+01    8.899462e-01
  2.477005e+01    8.744711e-01
  2.478593e+01    8.752497e-01
  2.480180e+01    8.785555e-01
  2.481768e+01    8.840299e-01
  2.483355e+01    8.736051e-01
  2.484943e+01    8.922015e-01
  2.486530e+01    8.910764e-01
  2.488118e+01    8.838747e-01
  2.489706e+01    8.740486e-01
  2.491293e+01    8.929826e-01
  2.492881e+01    8.965371e-01
  2.494468e+01    9.066983e-01
  2.496056e+01    8.893712e-01
  2.497643e+01    9.054007e-01
  2.499231e+01    8.999987e-01
  2.500819e+01    8.911546e-01
  2.502406e+01    8.826927e-01
  2.503994e+01    8.830191e-01
  2.505581e+01    9.093528e-01
  2.507169e+01    9.124293e-01
  2.508756e+01    8.929080e-01
  2.510344e+01    9.065806e-01
  2.511931e+01    8.800668e-01
  2.513519e+01    8.715301e-01
  2.515107e+01    8.981287e-01
  2.516694e+01    9.110424e-01
  2.518282e+01    9.103122e-01
  2.519869e+01    9.195855e-01
  2.521457e+01    9.209679e-01
  2.523044e+01    9.200940e-01
  2.524632e+01    9.095088e-01
  2.526219e+01    9.022385e-01
  2.527807e+01    9.283543e-01
  2.529395e+01    9.491348e-01
  2.530982e+01    9.432257e-01
  2.532570e+01    9.364203e-01
  2.534157e+01    9.625266e-01
  2.535745e+01    9.791667e-01
  2.537332e+01    9.607461e-01
  2.538920e+01    9.461055e-01
  2.540507e+01    9.610714e-01
  2.542095e+01    9.838925e-01
  2.543683e+01    1.005388e+00
  2.545270e+01    1.008861e+00
  2.546858e+01    1.005298e+00
  2.548445e+01    1.019516e+00
  2.550033e+01    1.028825e+00
  2.551620e+01    1.070617e+00
  2.553208e+01    1.088838e+00
  2.554795e+01    1.087679e+00
  2.556383e+01    1.137490e+00
  2.557971e+01    1.157779e+00
  2.559558e+01    1.168235e+00
  2.561146e+01    1.198313e+00
  2.562733e+01    1.248145e+00
  2.564321e+01    1.302074e+00
  2.565908e+01    1.328185e+00
  2.567496e+01    1.395718e+00
  2.569083e+01    1.470453e+00
  2.570671e+01    1.589201e+00
  2.572259e+01    1.669772e+00
  2.573846e+01    1.784196e+00
  2.575434e+01    1.946380e+00
  2.577021e+01    2.183686e+00
  2.578609e+01    2.424745e+00
  2.580196e+01    2.762685e+00
  2.581784e+01    3.122507e+00
  2.583371e+01    3.542295e+00
  2.584959e+01    4.002465e+00
  2.586547e+01    4.555590e+00
  2.588134e+01    5.102703e+00
  2.589722e+01    5.698771e+00
  2.591309e+01    6.192846e+00
  2.592897e+01    6.630443e+00
  2.594484e+01    6.895926e+00
  2.596072e+01    6.990854e+00
  2.597660e+01    6.876477e+00
  2.599247e+01    6.473981e+00
  2.600835e+01    5.991000e+00
  2.602422e+01    5.317827e+00
  2.604010e+01    4.599514e+00
  2.605597e+01    4.014913e+00
  2.607185e+01    3.460207e+00
  2.608772e+01    3.030303e+00
  2.610360e+01    2.674220e+00
  2.611948e+01    2.391719e+00
  2.613535e+01    2.161675e+00
  2.615123e+01    1.950641e+00
  2.616710e+01    1.779950e+00
  2.618298e+01    1.654404e+00
  2.619885e+01    1.549237e+00
  2.621473e+01    1.490905e+00
  2.623060e+01    1.391670e+00
  2.624648e+01    1.310466e+00
  2.626236e+01    1.304520e+00
  2.627823e+01    1.251308e+00
  2.629411e+01    1.207465e+00
  2.630998e+01    1.181719e+00
  2.632586e+01    1.136057e+00
  2.634173e+01    1.117302e+00
  2.635761e+01    1.068575e+00
  2.637348e+01    1.053745e+00
  2.638936e+01    1.069613e+00
  2.640524e+01    1.060215e+00
  2.642111e+01    1.052229e+00
  2.643699e+01    1.041587e+00
  2.645286e+01    1.020958e+00
  2.646874e+01    9.972105e-01
  2.648461e+01    1.002015e+00
  2.650049e+01    9.794943e-01
  2.651636e+01    9.943233e-01
  2.653224e+01    9.855399e-01
  2.654812e+01    9.925298e-01
  2.656399e+01    9.782247e-01
  2.657987e+01    9.752417e-01
  2.659574e+01    9.865663e-01
  2.661162e+01    9.573212e-01
  2.662749e+01    9.741192e-01
  2.664337e+01    9.551597e-01
  2.665924e+01    9.505110e-01
  2.667512e+01    9.571973e-01
  2.669100e+01    9.705461e-01
  2.670687e+01    9.433836e-01
  2.672275e+01    9.422939e-01
  2.673862e+01    9.487218e-01
  2.675450e+01    9.599659e-01
  2.677037e+01    9.722561e-01
  2.678625e+01    9.601959e-01
  2.680212e+01    9.515934e-01
  2.681800e+01    9.639284e-01
  2.683388e+01    9.643103e-01
  2.684975e+01    9.834606e-01
  2.686563e+01    9.984369e-01
  2.688150e+01    9.665931e-01
  2.689738e+01    9.813251e-01
  2.691325e+01    9.815336e-01
  2.692913e+01    9.867696e-01
  2.694501e+01    1.017715e+00
  2.696088e+01    1.035191e+00
  2.697676e+01    1.049126e+00
  2.699263e+01    1.077756e+00
  2.700851e+01    1.073597e+00
  2.702438e+01    1.124360e+00
  2.704026e+01    1.187226e+00
  2.705613e+01    1.252962e+00
  2.707201e+01    1.276790e+00
  2.708789e+01    1.369478e+00
  2.710376e+01    1.509238e+00
  2.711964e+01    1.609857e+00
  2.713551e+01    1.693490e+00
  2.715139e+01    1.804757e+00
  2.716726e+01    1.908874e+00
  2.718314e+01    2.031196e+00
  2.719901e+01    2.116998e+00
  2.721489e+01    2.138138e+00
  2.723077e+01    2.158992e+00
  2.724664e+01    2.102140e+00
  2.726252e+01    1.966023e+00
  2.727839e+01    1.811562e+00
  2.729427e+01    1.716014e+00
  2.731014e+01    1.580987e+00
  2.732602e+01    1.478016e+00
  2.734189e+01    1.356782e+00
  2.735777e+01    1.280153e+00
  2.737365e+01    1.219643e+00
  2.738952e+01    1.169587e+00
  2.740540e+01    1.115222e+00
  2.742127e+01    1.093368e+00
  2.743715e+01    1.066451e+00
  2.745302e+01    1.038816e+00
  2.746890e+01    1.022661e+00
  2.748477e+01    9.987376e-01
  2.750065e+01    9.773427e-01
  2.751653e+01    9.535778e-01
  2.753240e+01    9.365553e-01
  2.754828e+01    9.546444e-01
  2.756415e+01    9.535993e-01
  2.758003e+01    9.498824e-01
  2.759590e+01    9.280071e-01
  2.761178e+01    9.146391e-01
  2.762765e+01    9.060005e-01
  2.764353e+01    9.061871e-01
  2.765941e+01    9.025878e-01
  2.767528e+01    9.054849e-01
  2.769116e+01    9.019333e-01
  2.770703e+01    8.860380e-01
  2.772291e+01    8.967896e-01
  2.773878e+01    8.953448e-01
  2.775466e+01    8.737537e-01
  2.777054e+01    8.849020e-01
  2.778641e+01    8.628571e-01
  2.780229e+01    8.617044e-01
  2.781816e+01    8.666562e-01
  2.783404e+01    8.676120e-01
  2.784991e+01    8.930366e-01
  2.786579e+01    8.798851e-01
  2.788166e+01    8.799214e-01
  2.789754e+01    8.770176e-01
  2.791342e+01    8.829061e-01
  2.792929e+01    8.718150e-01
  2.794517e+01    8.710898e-01
  2.796104e+01    8.893812e-01
  2.797692e+01    8.714455e-01
  2.799279e+01    8.501892e-01
  2.800867e+01    8.591213e-01
  2.802454e+01    8.479932e-01
  2.804042e+01    8.744361e-01
  2.805630e+01    8.594735e-01
  2.807217e+01    8.578722e-01
  2.808805e+01    8.428267e-01
  2.810392e+01    8.491205e-01
  2.811980e+01    8.652989e-01
  2.813567e+01    8.573856e-01
  2.815155e+01    8.576780e-01
  2.816742e+01    8.671177e-01
  2.818330e+01    8.565124e-01
  2.819918e+01    8.588108e-01
  2.821505e+01    8.562860e-01
  2.823093e+01    8.712668e-01
  2.824680e+01    8.629883e-01
  2.826268e+01    8.401416e-01
  2.827855e+01    8.370577e-01
  2.829443e+01    8.561186e-01
  2.831030e+01    8.463676e-01
  2.832618e+01    8.464296e-01
  2.834206e+01    8.383228e-01
  2.835793e+01    8.444904e-01
  2.837381e+01    8.361926e-01
  2.838968e+01    8.609356e-01
  2.840556e+01    8.268656e-01
  2.842143e+01    8.156183e-01
  2.843731e+01    8.358812e-01
  2.845318e+01    8.365325e-01
  2.846906e+01    8.170493e-01
  2.848494e+01    8.160845e-01
  2.850081e+01    8.364226e-01
  2.851669e+01    8.188666e-01
  2.853256e+01    8.290319e-01
  2.854844e+01    8.122872e-01
  2.856431e+01    8.236643e-01
  2.858019e+01    8.255696e-01
  2.859606e+01    8.286811e-01
  2.861194e+01    8.312953e-01
  2.862782e+01    8.144588e-01
  2.864369e+01    8.259913e-01
  2.865957e+01    8.189139e-01
  2.867544e+01    8.400127e-01
  2.869132e+01    8.346950e-01
  2.870719e+01    8.273541e-01
  2.872307e+01    8.420067e-01
  2.873895e+01    8.459504e-01
  2.875482e+01    8.312562e-01
  2.877070e+01    8.266411e-01
  2.878657e+01    8.425825e-01
  2.880245e+01    8.194763e-01
  2.881832e+01    8.108554e-01
  2.883420e+01    8.357533e-01
  2.885007e+01    8.320989e-01
  2.886595e+01    8.326445e-01
  2.888183e+01    8.266021e-01
  2.889770e+01    8.108229e-01
  2.891358e+01    8.041673e-01
  2.892945e+01    8.078372e-01
  2.894533e+01    7.980830e-01
  2.896120e+01    7.907234e-01
  2.897708e+01    7.941408e-01
  2.899295e+01    8.145825e-01
  2.900883e+01    8.217903e-01
  2.902471e+01    8.114724e-01
  2.904058e+01    8.043761e-01
  2.905646e+01    7.926469e-01
  2.907233e+01    8.097826e-01
  2.908821e+01    8.117823e-01
  2.910408e+01    8.038399e-01
  2.911996e+01    8.202175e-01
  2.913583e+01    8.017146e-01
  2.915171e+01    7.823252e-01
  2.916759e+01    8.251902e-01
  2.918346e+01    8.070452e-01
  2.919934e+01    7.961285e-01
  2.921521e+01    7.906533e-01
  2.923109e+01    7.936864e-01
  2.924696e+01    8.059149e-01
  2.926284e+01    8.208033e-01
  2.927871e+01    8.209979e-01
  2.929459e+01    7.953307e-01
  2.931047e+01    7.934852e-01
  2.932634e+01    7.958099e-01
  2.934222e+01    8.075714e-01
  2.935809e+01    8.140282e-01
  2.937397e+01    7.962171e-01
  2.938984e+01    7.939570e-01
  2.940572e+01    8.122607e-01
  2.942159e+01    8.008522e-01
  2.943747e+01    7.917711e-01
  2.945335e+01    8.181846e-01
  2.946922e+01    7.817909e-01
  2.948510e+01    8.015004e-01
  2.950097e+01    7.912974e-01
  2.951685e+01    7.684363e-01
  2.953272e+01    7.903533e-01
  2.954860e+01    8.139578e-01
  2.956447e+01    7.985160e-01
  2.958035e+01    7.816064e-01
  2.959623e+01    8.042292e-01
  2.961210e+01    7.984962e-01
  2.962798e+01    8.132915e-01
  2.964385e+01    7.929841e-01
  2.965973e+01    7.851293e-01
  2.967560e+01    7.832417e-01
  2.969148e+01    7.895362e-01
  2.970736e+01    8.012845e-01
  2.972323e+01    7.925002e-01
  2.973911e+01    7.882829e-01
  2.975498e+01    7.943823e-01
  2.977086e+01    7.876077e-01
  2.978673e+01    8.152651e-01
  2.980261e+01    7.923506e-01
  2.981848e+01    7.810988e-01
  2.983436e+01    7.772350e-01
  2.985024e+01    7.780176e-01
  2.986611e+01    7.981279e-01
  2.988199e+01    7.999648e-01
  2.989786e+01    7.710826e-01
  2.991374e+01    7.810267e-01
  2.992961e+01    7.992657e-01
  2.994549e+01    7.842206e-01
  2.996136e+01    7.957039e-01
  2.997724e+01    8.225174e-01
  2.999312e+01    8.171138e-01
  3.000899e+01    8.111508e-01
  3.002487e+01    8.170930e-01
  3.004074e+01    8.050488e-01
  3.005662e+01    8.134008e-01
  3.007249e+01    7.960950e-01
  3.008837e+01    8.118017e-01
  3.010424e+01    7.980037e-01
  3.012012e+01    8.213463e-01
  3.013600e+01    7.926325e-01
  3.015187e+01    7.811819e-01
  3.016775e+01    7.918366e-01
  3.018362e+01    8.088583e-01
  3.019950e+01    8.049668e-01
  3.021537e+01    7.750765e-01
  3.023125e+01    7.776621e-01
  3.024712e+01    7.774948e-01
  3.026300e+01    7.937993e-01
  3.027888e+01    7.812712e-01
  3.029475e+01    7.705266e-01
  3.031063e+01    7.813240e-01
  3.032650e+01    7.765833e-01
  3.034238e+01    7.774219e-01
  3.035825e+01    7.725652e-01
  3.037413e+01    7.680234e-01
  3.039000e+01    7.820815e-01
  3.040588e+01    7.993771e-01
  3.042176e+01    7.892321e-01
  3.043763e+01    7.692724e-01
  3.045351e+01    7.712845e-01
  3.046938e+01    7.982286e-01
  3.048526e+01    8.055476e-01
  3.050113e+01    7.917542e-01
  3.051701e+01    7.805242e-01
  3.053288e+01    7.695642e-01
  3.054876e+01    7.593365e-01
  3.056464e+01    7.837515e-01
  3.058051e+01    7.567033e-01
  3.059639e+01    7.579982e-01
  3.061226e+01    7.790416e-01
  3.062814e+01    7.958973e-01
  3.064401e+01    7.732545e-01
  3.065989e+01    7.590270e-01
  3.067577e+01    7.780209e-01
  3.069164e+01    7.972713e-01
  3.070752e+01    7.828555e-01
  3.072339e+01    7.894334e-01
  3.073927e+01    7.773436e-01
  3.075514e+01    7.553359e-01
  3.077102e+01    7.575280e-01
  3.078689e+01    7.660057e-01
  3.080277e+01    7.944269e-01
  3.081865e+01    7.975121e-01
  3.083452e+01    7.692279e-01
  3.085040e+01    7.771274e-01
  3.086627e+01    8.038321e-01
  3.088215e+01    7.861185e-01
  3.089802e+01    7.799467e-01
  3.091390e+01    7.755044e-01
  3.092977e+01    7.580958e-01
  3.094565e+01    7.840500e-01
  3.096153e+01    7.841895e-01
  3.097740e+01    7.852021e-01
  3.099328e+01    7.634073e-01
  3.100915e+01    7.783109e-01
  3.102503e+01    7.637615e-01
  3.104090e+01    7.740139e-01
  3.105678e+01    7.788571e-01
  3.107265e+01    7.683169e-01
  3.108853e+01    7.772012e-01
  3.110441e+01    8.007601e-01
  3.112028e+01    7.764808e-01
  3.113616e+01    7.725892e-01
  3.115203e+01    7.750579e-01
  3.116791e+01    7.756293e-01
  3.118378e+01    7.750388e-01
  3.119966e+01    7.744316e-01
  3.121553e+01    7.894445e-01
  3.123141e+01    7.788174e-01
  3.124729e+01    7.851951e-01
  3.126316e+01    7.771494e-01
  3.127904e+01    7.977196e-01
  3.129491e+01    7.960642e-01
  3.131079e+01    7.777826e-01
  3.132666e+01    7.953110e-01
  3.134254e+01    7.896655e-01
  3.135841e+01    7.882250e-01
  3.137429e+01    8.045564e-01
  3.139017e+01    7.992624e-01
  3.140604e+01    8.126942e-01
  3.142192e+01    8.198948e-01
  3.143779e+01    8.063232e-01
  3.145367e+01    8.208855e-01
  3.146954e+01    8.349035e-01
  3.148542e+01    8.212531e-01
  3.150129e+01    8.278837e-01
  3.151717e+01    8.227257e-01
  3.153305e+01    8.321657e-01
  3.154892e+01    8.401145e-01
  3.156480e+01    8.473101e-01
  3.158067e+01    8.767672e-01
  3.159655e+01    8.790885e-01
  3.161242e+01    8.811504e-01
  3.162830e+01    8.873136e-01
  3.164418e+01    8.984450e-01
  3.166005e+01    9.212034e-01
  3.167593e+01    9.437009e-01
  3.169180e+01    9.686903e-01
  3.170768e+01    1.023662e+00
  3.172355e+01    1.040688e+00
  3.173943e+01    1.105789e+00
  3.175530e+01    1.184263e+00
  3.177118e+01    1.230562e+00
  3.178706e+01    1.311109e+00
  3.180293e+01    1.408854e+00
  3.181881e+01    1.520684e+00
  3.183468e+01    1.663403e+00
  3.185056e+01    1.794863e+00
  3.186643e+01    1.950974e+00
  3.188231e+01    2.027306e+00
  3.189818e+01    2.084069e+00
  3.191406e+01    2.066546e+00
  3.192994e+01    2.020308e+00
  3.194581e+01    1.938459e+00
  3.196169e+01    1.857687e+00
  3.197756e+01    1.700312e+00
  3.199344e+01    1.541108e+00
  3.200931e+01    1.427323e+00
  3.202519e+01    1.339847e+00
  3.204106e+01    1.234191e+00
  3.205694e+01    1.163704e+00
  3.207282e+01    1.110211e+00
  3.208869e+01    1.020315e+00
  3.210457e+01    1.034122e+00
  3.212044e+01    9.776219e-01
  3.213632e+01    9.078751e-01
  3.215219e+01    8.855324e-01
  3.216807e+01    8.909110e-01
  3.218394e+01    8.776807e-01
  3.219982e+01    8.527285e-01
  3.221570e+01    8.457484e-01
  3.223157e+01    8.620479e-01
  3.224745e+01    8.587933e-01
  3.226332e+01    8.084053e-01
  3.227920e+01    7.987893e-01
  3.229507e+01    8.078044e-01
  3.231095e+01    8.062733e-01
  3.232682e+01    7.916909e-01
  3.234270e+01    7.984121e-01
  3.235858e+01    7.966032e-01
  3.237445e+01    7.970676e-01
  3.239033e+01    7.848326e-01
  3.240620e+01    7.946123e-01
  3.242208e+01    7.987543e-01
  3.243795e+01    7.947206e-01
  3.245383e+01    7.827086e-01
  3.246970e+01    7.769065e-01
  3.248558e+01    7.635471e-01
  3.250146e+01    7.648544e-01
  3.251733e+01    7.889619e-01
  3.253321e+01    7.797787e-01
  3.254908e+01    7.614356e-01
