# == pyFAI calibration ==
# Distance Sample to Detector: 0.3999999939076516 m
# PONI: 9.750e-02, 1.135e-01 m
# Rotations: -0.000175 0.000000 -0.000000 rad
# 
# == Fit2d calibration ==
# Distance Sample-beamCenter: 400.000 mm
# Center: x=1514.000, y=1300.000 pix
# Tilt: 0.010 deg  TiltPlanRot: 0.010 deg
# 
# Detector Detector	 Spline= None	 PixelSize= 7.500e-05, 7.500e-05 m
#    Detector has a mask: False 
#    Detector has a dark current: False 
#    detector has a flat field: False 
# 
# Wavelength: 6.888e-11 m
# Mask applied: user provided
# Dark current applied: False
# Flat field applied: False
# Polarization factor: 0.99
# Normalization factor: 1.0
# --> /home/myspot/data/2024_07_Rosario/Ru-CGO-ex/2024-07-27_003_Ru-CGO-ex_Reaction_dwell_000023_data_000102.dat
#       q_nm^-1             I 
  2.003187e-02    7.712225e-02
  3.590745e-02    6.421505e-02
  5.178302e-02    5.341410e-02
  6.765859e-02    1.786580e-01
  8.353417e-02    2.451538e-01
  9.940974e-02    1.493450e-01
  1.152853e-01    7.857692e-02
  1.311609e-01    4.970067e-02
  1.470365e-01    1.988251e-02
  1.629120e-01    6.333160e-02
  1.787876e-01    9.486096e-02
  1.946632e-01    6.280170e-02
  2.105388e-01    1.732239e-02
  2.264143e-01    0.000000e+00
  2.422899e-01    0.000000e+00
  2.581655e-01    2.137455e-02
  2.740411e-01    3.608106e-02
  2.899166e-01    5.495965e-02
  3.057922e-01    3.353256e-02
  3.216678e-01    3.917865e-02
  3.375433e-01    6.736539e-02
  3.534189e-01    2.888963e-02
  3.692945e-01    4.359457e-02
  3.851701e-01    3.633553e-02
  4.010456e-01    2.021946e-02
  4.169212e-01    4.070324e-02
  4.327968e-01    6.128588e-02
  4.486724e-01    6.434953e-02
  4.645479e-01    4.983752e-02
  4.804235e-01    2.808180e-02
  4.962991e-01    2.907812e-02
  5.121747e-01    3.540735e-02
  5.280502e-01    2.941011e-02
  5.439258e-01    4.878242e-02
  5.598014e-01    6.892160e-03
  5.756770e-01    3.412475e-02
  5.915525e-01    5.192417e-02
  6.074281e-01    2.653894e-02
  6.233037e-01    4.847677e-02
  6.391793e-01    5.552604e-02
  6.550548e-01    4.169211e-02
  6.709304e-01    4.304028e-02
  6.868060e-01    4.348542e-02
  7.026815e-01    4.457593e-02
  7.185571e-01    3.375513e-02
  7.344327e-01    3.920411e-02
  7.503083e-01    4.432790e-02
  7.661838e-01    7.448710e-02
  7.820594e-01    1.287073e-01
  7.979350e-01    1.454275e-01
  8.138106e-01    2.348635e-01
  8.296861e-01    2.685755e-01
  8.455617e-01    2.856967e-01
  8.614373e-01    3.894326e-01
  8.773129e-01    4.288592e-01
  8.931884e-01    5.000840e-01
  9.090640e-01    6.085568e-01
  9.249396e-01    8.187829e-01
  9.408152e-01    9.602181e-01
  9.566907e-01    9.846404e-01
  9.725663e-01    1.047833e+00
  9.884419e-01    1.130885e+00
  1.004317e+00    1.211221e+00
  1.020193e+00    1.222796e+00
  1.036069e+00    1.338457e+00
  1.051944e+00    1.398573e+00
  1.067820e+00    1.482053e+00
  1.083695e+00    1.550424e+00
  1.099571e+00    1.563798e+00
  1.115446e+00    1.541802e+00
  1.131322e+00    1.629726e+00
  1.147198e+00    1.593515e+00
  1.163073e+00    1.595378e+00
  1.178949e+00    1.758157e+00
  1.194824e+00    1.892093e+00
  1.210700e+00    1.987731e+00
  1.226575e+00    2.127204e+00
  1.242451e+00    2.254993e+00
  1.258327e+00    2.421609e+00
  1.274202e+00    2.639797e+00
  1.290078e+00    2.686087e+00
  1.305953e+00    2.490329e+00
  1.321829e+00    2.759375e+00
  1.337705e+00    2.758987e+00
  1.353580e+00    2.763076e+00
  1.369456e+00    2.822225e+00
  1.385331e+00    2.809055e+00
  1.401207e+00    2.750499e+00
  1.417082e+00    2.910604e+00
  1.432958e+00    2.940614e+00
  1.448834e+00    2.951786e+00
  1.464709e+00    3.034570e+00
  1.480585e+00    3.055808e+00
  1.496460e+00    3.028577e+00
  1.512336e+00    3.077510e+00
  1.528211e+00    3.234918e+00
  1.544087e+00    3.264656e+00
  1.559963e+00    3.213122e+00
  1.575838e+00    3.197586e+00
  1.591714e+00    3.210842e+00
  1.607589e+00    3.111212e+00
  1.623465e+00    3.114345e+00
  1.639340e+00    3.197290e+00
  1.655216e+00    3.148123e+00
  1.671092e+00    3.062926e+00
  1.686967e+00    3.133136e+00
  1.702843e+00    3.208780e+00
  1.718718e+00    3.141390e+00
  1.734594e+00    3.036694e+00
  1.750469e+00    3.090493e+00
  1.766345e+00    3.078069e+00
  1.782221e+00    3.167965e+00
  1.798096e+00    3.165887e+00
  1.813972e+00    3.119587e+00
  1.829847e+00    3.128806e+00
  1.845723e+00    3.228519e+00
  1.861598e+00    3.147272e+00
  1.877474e+00    3.158879e+00
  1.893350e+00    3.051192e+00
  1.909225e+00    3.127792e+00
  1.925101e+00    3.027757e+00
  1.940976e+00    3.061739e+00
  1.956852e+00    3.121402e+00
  1.972727e+00    3.218949e+00
  1.988603e+00    3.211033e+00
  2.004479e+00    3.052258e+00
  2.020354e+00    3.122550e+00
  2.036230e+00    3.142505e+00
  2.052105e+00    3.184146e+00
  2.067981e+00    3.183603e+00
  2.083856e+00    3.159055e+00
  2.099732e+00    3.104043e+00
  2.115608e+00    3.135568e+00
  2.131483e+00    3.085049e+00
  2.147359e+00    3.025886e+00
  2.163234e+00    3.136042e+00
  2.179110e+00    3.125811e+00
  2.194985e+00    3.057171e+00
  2.210861e+00    2.977031e+00
  2.226737e+00    3.025335e+00
  2.242612e+00    3.035843e+00
  2.258488e+00    3.047683e+00
  2.274363e+00    3.104906e+00
  2.290239e+00    3.084816e+00
  2.306115e+00    3.090540e+00
  2.321990e+00    3.159008e+00
  2.337866e+00    3.070887e+00
  2.353741e+00    3.084420e+00
  2.369617e+00    3.022648e+00
  2.385492e+00    3.033175e+00
  2.401368e+00    3.155767e+00
  2.417244e+00    3.257206e+00
  2.433119e+00    3.269134e+00
  2.448995e+00    3.131181e+00
  2.464870e+00    3.164503e+00
  2.480746e+00    3.115470e+00
  2.496621e+00    3.216691e+00
  2.512497e+00    3.269293e+00
  2.528373e+00    3.206165e+00
  2.544248e+00    3.288182e+00
  2.560124e+00    3.259301e+00
  2.575999e+00    3.253367e+00
  2.591875e+00    3.290127e+00
  2.607750e+00    3.360349e+00
  2.623626e+00    3.300155e+00
  2.639502e+00    3.203407e+00
  2.655377e+00    3.079399e+00
  2.671253e+00    3.102650e+00
  2.687128e+00    3.160553e+00
  2.703004e+00    3.133955e+00
  2.718879e+00    3.247707e+00
  2.734755e+00    3.338485e+00
  2.750631e+00    3.255947e+00
  2.766506e+00    3.301296e+00
  2.782382e+00    3.248266e+00
  2.798257e+00    3.255248e+00
  2.814133e+00    3.319260e+00
  2.830008e+00    3.317905e+00
  2.845884e+00    3.195916e+00
  2.861760e+00    3.267854e+00
  2.877635e+00    3.329187e+00
  2.893511e+00    3.355204e+00
  2.909386e+00    3.369333e+00
  2.925262e+00    3.290909e+00
  2.941137e+00    3.256443e+00
  2.957013e+00    3.314677e+00
  2.972889e+00    3.271225e+00
  2.988764e+00    3.234872e+00
  3.004640e+00    3.266522e+00
  3.020515e+00    3.242795e+00
  3.036391e+00    3.295174e+00
  3.052266e+00    3.312048e+00
  3.068142e+00    3.308415e+00
  3.084018e+00    3.322821e+00
  3.099893e+00    3.281987e+00
  3.115769e+00    3.346292e+00
  3.131644e+00    3.377679e+00
  3.147520e+00    3.350321e+00
  3.163395e+00    3.377543e+00
  3.179271e+00    3.463054e+00
  3.195147e+00    3.447626e+00
  3.211022e+00    3.338128e+00
  3.226898e+00    3.387070e+00
  3.242773e+00    3.367240e+00
  3.258649e+00    3.348474e+00
  3.274525e+00    3.475566e+00
  3.290400e+00    3.401030e+00
  3.306276e+00    3.291451e+00
  3.322151e+00    3.320004e+00
  3.338027e+00    3.454597e+00
  3.353902e+00    3.415780e+00
  3.369778e+00    3.389526e+00
  3.385654e+00    3.465403e+00
  3.401529e+00    3.457017e+00
  3.417405e+00    3.521398e+00
  3.433280e+00    3.460293e+00
  3.449156e+00    3.412312e+00
  3.465031e+00    3.436284e+00
  3.480907e+00    3.345939e+00
  3.496783e+00    3.455682e+00
  3.512658e+00    3.411813e+00
  3.528534e+00    3.327768e+00
  3.544409e+00    3.357592e+00
  3.560285e+00    3.366672e+00
  3.576160e+00    3.483037e+00
  3.592036e+00    3.422512e+00
  3.607912e+00    3.377306e+00
  3.623787e+00    3.492305e+00
  3.639663e+00    3.490604e+00
  3.655538e+00    3.493847e+00
  3.671414e+00    3.540658e+00
  3.687289e+00    3.504080e+00
  3.703165e+00    3.554843e+00
  3.719041e+00    3.520264e+00
  3.734916e+00    3.524665e+00
  3.750792e+00    3.501222e+00
  3.766667e+00    3.452310e+00
  3.782543e+00    3.528961e+00
  3.798418e+00    3.496890e+00
  3.814294e+00    3.528858e+00
  3.830170e+00    3.462395e+00
  3.846045e+00    3.420885e+00
  3.861921e+00    3.550028e+00
  3.877796e+00    3.612129e+00
  3.893672e+00    3.554462e+00
  3.909547e+00    3.513304e+00
  3.925423e+00    3.401695e+00
  3.941299e+00    3.441182e+00
  3.957174e+00    3.466155e+00
  3.973050e+00    3.437354e+00
  3.988925e+00    3.498198e+00
  4.004801e+00    3.429400e+00
  4.020676e+00    3.491599e+00
  4.036552e+00    3.586244e+00
  4.052428e+00    3.603644e+00
  4.068303e+00    3.558623e+00
  4.084179e+00    3.542364e+00
  4.100054e+00    3.528456e+00
  4.115930e+00    3.554929e+00
  4.131806e+00    3.456916e+00
  4.147681e+00    3.479311e+00
  4.163557e+00    3.508217e+00
  4.179432e+00    3.491496e+00
  4.195308e+00    3.443913e+00
  4.211183e+00    3.475013e+00
  4.227059e+00    3.533194e+00
  4.242935e+00    3.571202e+00
  4.258810e+00    3.572808e+00
  4.274686e+00    3.596237e+00
  4.290561e+00    3.559204e+00
  4.306437e+00    3.607808e+00
  4.322312e+00    3.626859e+00
  4.338188e+00    3.502193e+00
  4.354064e+00    3.618974e+00
  4.369939e+00    3.627229e+00
  4.385815e+00    3.568546e+00
  4.401690e+00    3.581015e+00
  4.417566e+00    3.614728e+00
  4.433441e+00    3.638663e+00
  4.449317e+00    3.544080e+00
  4.465193e+00    3.579058e+00
  4.481068e+00    3.528889e+00
  4.496944e+00    3.453725e+00
  4.512819e+00    3.496566e+00
  4.528695e+00    3.497465e+00
  4.544570e+00    3.566911e+00
  4.560446e+00    3.580278e+00
  4.576322e+00    3.607145e+00
  4.592197e+00    3.665067e+00
  4.608073e+00    3.662467e+00
  4.623948e+00    3.650503e+00
  4.639824e+00    3.631622e+00
  4.655699e+00    3.685117e+00
  4.671575e+00    3.685891e+00
  4.687451e+00    3.716156e+00
  4.703326e+00    3.624427e+00
  4.719202e+00    3.585650e+00
  4.735077e+00    3.670850e+00
  4.750953e+00    3.710581e+00
  4.766828e+00    3.665852e+00
  4.782704e+00    3.587493e+00
  4.798580e+00    3.663154e+00
  4.814455e+00    3.633417e+00
  4.830331e+00    3.578961e+00
  4.846206e+00    3.597215e+00
  4.862082e+00    3.690123e+00
  4.877957e+00    3.694866e+00
  4.893833e+00    3.693598e+00
  4.909709e+00    3.684276e+00
  4.925584e+00    3.650975e+00
  4.941460e+00    3.623139e+00
  4.957335e+00    3.583661e+00
  4.973211e+00    3.591107e+00
  4.989086e+00    3.532056e+00
  5.004962e+00    3.647310e+00
  5.020838e+00    3.648373e+00
  5.036713e+00    3.698512e+00
  5.052589e+00    3.528186e+00
  5.068464e+00    3.645097e+00
  5.084340e+00    3.733610e+00
  5.100216e+00    3.722036e+00
  5.116091e+00    3.618182e+00
  5.131967e+00    3.568911e+00
  5.147842e+00    3.598978e+00
  5.163718e+00    3.618349e+00
  5.179593e+00    3.527915e+00
  5.195469e+00    3.590247e+00
  5.211345e+00    3.685363e+00
  5.227220e+00    3.673594e+00
  5.243096e+00    3.588024e+00
  5.258971e+00    3.571402e+00
  5.274847e+00    3.584205e+00
  5.290722e+00    3.508667e+00
  5.306598e+00    3.590460e+00
  5.322474e+00    3.685891e+00
  5.338349e+00    3.702853e+00
  5.354225e+00    3.589125e+00
  5.370100e+00    3.709898e+00
  5.385976e+00    3.709921e+00
  5.401851e+00    3.611020e+00
  5.417727e+00    3.620630e+00
  5.433603e+00    3.635601e+00
  5.449478e+00    3.634876e+00
  5.465354e+00    3.609813e+00
  5.481229e+00    3.562739e+00
  5.497105e+00    3.569360e+00
  5.512980e+00    3.566407e+00
  5.528856e+00    3.663851e+00
  5.544732e+00    3.644870e+00
  5.560607e+00    3.687888e+00
  5.576483e+00    3.682485e+00
  5.592358e+00    3.619759e+00
  5.608234e+00    3.626385e+00
  5.624109e+00    3.625554e+00
  5.639985e+00    3.585125e+00
  5.655861e+00    3.565514e+00
  5.671736e+00    3.555970e+00
  5.687612e+00    3.587465e+00
  5.703487e+00    3.685172e+00
  5.719363e+00    3.552929e+00
  5.735238e+00    3.515179e+00
  5.751114e+00    3.629242e+00
  5.766990e+00    3.622800e+00
  5.782865e+00    3.547423e+00
  5.798741e+00    3.566687e+00
  5.814616e+00    3.582110e+00
  5.830492e+00    3.619469e+00
  5.846367e+00    3.594938e+00
  5.862243e+00    3.635043e+00
  5.878119e+00    3.576341e+00
  5.893994e+00    3.580239e+00
  5.909870e+00    3.609373e+00
  5.925745e+00    3.567042e+00
  5.941621e+00    3.600199e+00
  5.957497e+00    3.503124e+00
  5.973372e+00    3.553420e+00
  5.989248e+00    3.524221e+00
  6.005123e+00    3.564445e+00
  6.020999e+00    3.486329e+00
  6.036874e+00    3.500546e+00
  6.052750e+00    3.546587e+00
  6.068626e+00    3.586506e+00
  6.084501e+00    3.577638e+00
  6.100377e+00    3.506937e+00
  6.116252e+00    3.595874e+00
  6.132128e+00    3.584648e+00
  6.148003e+00    3.592785e+00
  6.163879e+00    3.659415e+00
  6.179755e+00    3.619636e+00
  6.195630e+00    3.461667e+00
  6.211506e+00    3.538072e+00
  6.227381e+00    3.525908e+00
  6.243257e+00    3.540867e+00
  6.259132e+00    3.558355e+00
  6.275008e+00    3.541372e+00
  6.290884e+00    3.526126e+00
  6.306759e+00    3.540472e+00
  6.322635e+00    3.520150e+00
  6.338510e+00    3.524003e+00
  6.354386e+00    3.559450e+00
  6.370261e+00    3.560625e+00
  6.386137e+00    3.603664e+00
  6.402013e+00    3.629968e+00
  6.417888e+00    3.486831e+00
  6.433764e+00    3.519622e+00
  6.449639e+00    3.616951e+00
  6.465515e+00    3.538835e+00
  6.481390e+00    3.483308e+00
  6.497266e+00    3.459205e+00
  6.513142e+00    3.521496e+00
  6.529017e+00    3.555264e+00
  6.544893e+00    3.570190e+00
  6.560768e+00    3.564749e+00
  6.576644e+00    3.580817e+00
  6.592519e+00    3.562078e+00
  6.608395e+00    3.546668e+00
  6.624271e+00    3.537988e+00
  6.640146e+00    3.569923e+00
  6.656022e+00    3.601427e+00
  6.671897e+00    3.527655e+00
  6.687773e+00    3.614213e+00
  6.703648e+00    3.583371e+00
  6.719524e+00    3.540350e+00
  6.735400e+00    3.542794e+00
  6.751275e+00    3.519929e+00
  6.767151e+00    3.552888e+00
  6.783026e+00    3.640729e+00
  6.798902e+00    3.479070e+00
  6.814777e+00    3.501075e+00
  6.830653e+00    3.550044e+00
  6.846529e+00    3.554291e+00
  6.862404e+00    3.554663e+00
  6.878280e+00    3.510969e+00
  6.894155e+00    3.503423e+00
  6.910031e+00    3.574614e+00
  6.925907e+00    3.583112e+00
  6.941782e+00    3.582925e+00
  6.957658e+00    3.546351e+00
  6.973533e+00    3.590899e+00
  6.989409e+00    3.611830e+00
  7.005284e+00    3.499316e+00
  7.021160e+00    3.523499e+00
  7.037036e+00    3.551696e+00
  7.052911e+00    3.502278e+00
  7.068787e+00    3.502397e+00
  7.084662e+00    3.490176e+00
  7.100538e+00    3.563958e+00
  7.116413e+00    3.468699e+00
  7.132289e+00    3.447030e+00
  7.148165e+00    3.478492e+00
  7.164040e+00    3.471956e+00
  7.179916e+00    3.503384e+00
  7.195791e+00    3.573304e+00
  7.211667e+00    3.496314e+00
  7.227542e+00    3.440960e+00
  7.243418e+00    3.545530e+00
  7.259294e+00    3.514774e+00
  7.275169e+00    3.448870e+00
  7.291045e+00    3.434265e+00
  7.306920e+00    3.486227e+00
  7.322796e+00    3.468423e+00
  7.338671e+00    3.510082e+00
  7.354547e+00    3.478346e+00
  7.370423e+00    3.494948e+00
  7.386298e+00    3.408707e+00
  7.402174e+00    3.492683e+00
  7.418049e+00    3.530168e+00
  7.433925e+00    3.520503e+00
  7.449800e+00    3.542237e+00
  7.465676e+00    3.520095e+00
  7.481552e+00    3.539771e+00
  7.497427e+00    3.529886e+00
  7.513303e+00    3.484002e+00
  7.529178e+00    3.473246e+00
  7.545054e+00    3.456077e+00
  7.560929e+00    3.448927e+00
  7.576805e+00    3.475250e+00
  7.592681e+00    3.474630e+00
  7.608556e+00    3.484586e+00
  7.624432e+00    3.490261e+00
  7.640307e+00    3.486131e+00
  7.656183e+00    3.435014e+00
  7.672058e+00    3.438761e+00
  7.687934e+00    3.456775e+00
  7.703810e+00    3.475965e+00
  7.719685e+00    3.424814e+00
  7.735561e+00    3.454993e+00
  7.751436e+00    3.437289e+00
  7.767312e+00    3.427777e+00
  7.783187e+00    3.356549e+00
  7.799063e+00    3.375409e+00
  7.814939e+00    3.369535e+00
  7.830814e+00    3.380053e+00
  7.846690e+00    3.378814e+00
  7.862565e+00    3.420637e+00
  7.878441e+00    3.426681e+00
  7.894317e+00    3.438633e+00
  7.910192e+00    3.412656e+00
  7.926068e+00    3.467835e+00
  7.941943e+00    3.379214e+00
  7.957819e+00    3.389623e+00
  7.973694e+00    3.443479e+00
  7.989570e+00    3.430906e+00
  8.005446e+00    3.356189e+00
  8.021321e+00    3.338448e+00
  8.037197e+00    3.358137e+00
  8.053072e+00    3.396204e+00
  8.068948e+00    3.429321e+00
  8.084823e+00    3.458842e+00
  8.100699e+00    3.513436e+00
  8.116575e+00    3.475626e+00
  8.132450e+00    3.457467e+00
  8.148326e+00    3.446747e+00
  8.164201e+00    3.417779e+00
  8.180077e+00    3.462060e+00
  8.195952e+00    3.462662e+00
  8.211828e+00    3.465243e+00
  8.227704e+00    3.438976e+00
  8.243579e+00    3.461023e+00
  8.259455e+00    3.454429e+00
  8.275330e+00    3.425969e+00
  8.291206e+00    3.469452e+00
  8.307081e+00    3.433294e+00
  8.322957e+00    3.384690e+00
  8.338833e+00    3.401510e+00
  8.354708e+00    3.434732e+00
  8.370584e+00    3.427200e+00
  8.386459e+00    3.431721e+00
  8.402335e+00    3.355428e+00
  8.418210e+00    3.422935e+00
  8.434086e+00    3.405537e+00
  8.449962e+00    3.442961e+00
  8.465837e+00    3.407163e+00
  8.481713e+00    3.399959e+00
  8.497588e+00    3.409219e+00
  8.513464e+00    3.377605e+00
  8.529339e+00    3.347464e+00
  8.545215e+00    3.377421e+00
  8.561091e+00    3.367203e+00
  8.576966e+00    3.370425e+00
  8.592842e+00    3.339118e+00
  8.608717e+00    3.323115e+00
  8.624593e+00    3.326128e+00
  8.640468e+00    3.359102e+00
  8.656344e+00    3.346526e+00
  8.672220e+00    3.317764e+00
  8.688095e+00    3.304421e+00
  8.703971e+00    3.298599e+00
  8.719846e+00    3.365655e+00
  8.735722e+00    3.338032e+00
  8.751598e+00    3.326664e+00
  8.767473e+00    3.262278e+00
  8.783349e+00    3.266974e+00
  8.799224e+00    3.368407e+00
  8.815100e+00    3.307684e+00
  8.830975e+00    3.332859e+00
  8.846851e+00    3.288393e+00
  8.862727e+00    3.295933e+00
  8.878602e+00    3.261411e+00
  8.894478e+00    3.297631e+00
  8.910353e+00    3.269993e+00
  8.926229e+00    3.279774e+00
  8.942104e+00    3.328629e+00
  8.957980e+00    3.311941e+00
  8.973856e+00    3.282564e+00
  8.989731e+00    3.296333e+00
  9.005607e+00    3.239460e+00
  9.021482e+00    3.231532e+00
  9.037358e+00    3.297247e+00
  9.053233e+00    3.222311e+00
  9.069109e+00    3.257370e+00
  9.084985e+00    3.278167e+00
  9.100860e+00    3.248378e+00
  9.116736e+00    3.234042e+00
  9.132611e+00    3.236878e+00
  9.148487e+00    3.268273e+00
  9.164362e+00    3.268054e+00
  9.180238e+00    3.326341e+00
  9.196114e+00    3.252702e+00
  9.211989e+00    3.274653e+00
  9.227865e+00    3.304416e+00
  9.243740e+00    3.310281e+00
  9.259616e+00    3.295913e+00
  9.275491e+00    3.238291e+00
  9.291367e+00    3.198844e+00
  9.307243e+00    3.261566e+00
  9.323118e+00    3.274562e+00
  9.338994e+00    3.231277e+00
  9.354869e+00    3.215248e+00
  9.370745e+00    3.198844e+00
  9.386620e+00    3.171422e+00
  9.402496e+00    3.172867e+00
  9.418372e+00    3.192805e+00
  9.434247e+00    3.228040e+00
  9.450123e+00    3.224481e+00
  9.465998e+00    3.203359e+00
  9.481874e+00    3.113310e+00
  9.497749e+00    3.180727e+00
  9.513625e+00    3.232759e+00
  9.529501e+00    3.211524e+00
  9.545376e+00    3.255558e+00
  9.561252e+00    3.230590e+00
  9.577127e+00    3.221317e+00
  9.593003e+00    3.148218e+00
  9.608878e+00    3.104468e+00
  9.624754e+00    3.210268e+00
  9.640630e+00    3.212419e+00
  9.656505e+00    3.209858e+00
  9.672381e+00    3.181137e+00
  9.688256e+00    3.196429e+00
  9.704132e+00    3.211619e+00
  9.720008e+00    3.162435e+00
  9.735883e+00    3.110244e+00
  9.751759e+00    3.120389e+00
  9.767634e+00    3.148320e+00
  9.783510e+00    3.178666e+00
  9.799385e+00    3.152451e+00
  9.815261e+00    3.069394e+00
  9.831137e+00    3.048705e+00
  9.847012e+00    3.032199e+00
  9.862888e+00    3.237094e+00
  9.878763e+00    3.195521e+00
  9.894639e+00    3.102526e+00
  9.910514e+00    3.113445e+00
  9.926390e+00    3.089426e+00
  9.942266e+00    3.069560e+00
  9.958141e+00    3.088062e+00
  9.974017e+00    3.103156e+00
  9.989892e+00    3.084268e+00
  1.000577e+01    3.107007e+00
  1.002164e+01    3.123244e+00
  1.003752e+01    3.100505e+00
  1.005339e+01    3.076331e+00
  1.006927e+01    3.096791e+00
  1.008515e+01    3.083219e+00
  1.010102e+01    3.020007e+00
  1.011690e+01    3.023962e+00
  1.013277e+01    3.106267e+00
  1.014865e+01    3.086769e+00
  1.016452e+01    3.094293e+00
  1.018040e+01    3.061625e+00
  1.019627e+01    3.079494e+00
  1.021215e+01    3.116144e+00
  1.022803e+01    3.084342e+00
  1.024390e+01    3.004928e+00
  1.025978e+01    3.037191e+00
  1.027565e+01    3.027009e+00
  1.029153e+01    3.036236e+00
  1.030740e+01    3.073348e+00
  1.032328e+01    3.013782e+00
  1.033915e+01    3.051255e+00
  1.035503e+01    3.064188e+00
  1.037091e+01    3.033618e+00
  1.038678e+01    3.062921e+00
  1.040266e+01    3.120543e+00
  1.041853e+01    3.064530e+00
  1.043441e+01    3.022804e+00
  1.045028e+01    3.060120e+00
  1.046616e+01    3.053018e+00
  1.048204e+01    3.020548e+00
  1.049791e+01    3.046279e+00
  1.051379e+01    3.012578e+00
  1.052966e+01    3.017558e+00
  1.054554e+01    3.010091e+00
  1.056141e+01    3.029509e+00
  1.057729e+01    2.998629e+00
  1.059316e+01    2.946122e+00
  1.060904e+01    2.971929e+00
  1.062492e+01    2.923375e+00
  1.064079e+01    2.916190e+00
  1.065667e+01    2.954028e+00
  1.067254e+01    2.992193e+00
  1.068842e+01    2.990300e+00
  1.070429e+01    2.967351e+00
  1.072017e+01    2.977989e+00
  1.073604e+01    2.965774e+00
  1.075192e+01    2.920479e+00
  1.076780e+01    2.923642e+00
  1.078367e+01    2.961686e+00
  1.079955e+01    2.929525e+00
  1.081542e+01    2.892188e+00
  1.083130e+01    2.925764e+00
  1.084717e+01    2.970835e+00
  1.086305e+01    2.993851e+00
  1.087892e+01    2.910299e+00
  1.089480e+01    2.903859e+00
  1.091068e+01    2.922282e+00
  1.092655e+01    2.907621e+00
  1.094243e+01    2.875673e+00
  1.095830e+01    2.885910e+00
  1.097418e+01    2.907146e+00
  1.099005e+01    2.896984e+00
  1.100593e+01    2.884677e+00
  1.102180e+01    2.886946e+00
  1.103768e+01    2.865372e+00
  1.105356e+01    2.879941e+00
  1.106943e+01    2.858223e+00
  1.108531e+01    2.910994e+00
  1.110118e+01    2.916490e+00
  1.111706e+01    2.906620e+00
  1.113293e+01    2.867867e+00
  1.114881e+01    2.842338e+00
  1.116468e+01    2.814338e+00
  1.118056e+01    2.827522e+00
  1.119644e+01    2.907043e+00
  1.121231e+01    2.883087e+00
  1.122819e+01    2.801300e+00
  1.124406e+01    2.837527e+00
  1.125994e+01    2.892459e+00
  1.127581e+01    2.884423e+00
  1.129169e+01    2.839072e+00
  1.130756e+01    2.832967e+00
  1.132344e+01    2.872123e+00
  1.133932e+01    2.867729e+00
  1.135519e+01    2.858607e+00
  1.137107e+01    2.852064e+00
  1.138694e+01    2.844200e+00
  1.140282e+01    2.794900e+00
  1.141869e+01    2.753625e+00
  1.143457e+01    2.822504e+00
  1.145045e+01    2.839103e+00
  1.146632e+01    2.834330e+00
  1.148220e+01    2.784455e+00
  1.149807e+01    2.779846e+00
  1.151395e+01    2.806662e+00
  1.152982e+01    2.826133e+00
  1.154570e+01    2.818076e+00
  1.156157e+01    2.784284e+00
  1.157745e+01    2.775668e+00
  1.159333e+01    2.732186e+00
  1.160920e+01    2.767612e+00
  1.162508e+01    2.767020e+00
  1.164095e+01    2.744911e+00
  1.165683e+01    2.768845e+00
  1.167270e+01    2.779019e+00
  1.168858e+01    2.773158e+00
  1.170445e+01    2.806506e+00
  1.172033e+01    2.818254e+00
  1.173621e+01    2.768552e+00
  1.175208e+01    2.733830e+00
  1.176796e+01    2.697065e+00
  1.178383e+01    2.727327e+00
  1.179971e+01    2.731912e+00
  1.181558e+01    2.740612e+00
  1.183146e+01    2.775858e+00
  1.184733e+01    2.765730e+00
  1.186321e+01    2.728667e+00
  1.187909e+01    2.746766e+00
  1.189496e+01    2.794936e+00
  1.191084e+01    2.766537e+00
  1.192671e+01    2.739496e+00
  1.194259e+01    2.657175e+00
  1.195846e+01    2.686650e+00
  1.197434e+01    2.688139e+00
  1.199021e+01    2.679816e+00
  1.200609e+01    2.693906e+00
  1.202197e+01    2.642707e+00
  1.203784e+01    2.691039e+00
  1.205372e+01    2.737137e+00
  1.206959e+01    2.714663e+00
  1.208547e+01    2.687674e+00
  1.210134e+01    2.676955e+00
  1.211722e+01    2.710605e+00
  1.213309e+01    2.711490e+00
  1.214897e+01    2.693270e+00
  1.216485e+01    2.694819e+00
  1.218072e+01    2.675464e+00
  1.219660e+01    2.676873e+00
  1.221247e+01    2.677823e+00
  1.222835e+01    2.681197e+00
  1.224422e+01    2.687988e+00
  1.226010e+01    2.685139e+00
  1.227597e+01    2.759216e+00
  1.229185e+01    2.693581e+00
  1.230773e+01    2.710181e+00
  1.232360e+01    2.730780e+00
  1.233948e+01    2.730720e+00
  1.235535e+01    2.718318e+00
  1.237123e+01    2.673095e+00
  1.238710e+01    2.669095e+00
  1.240298e+01    2.703311e+00
  1.241886e+01    2.676787e+00
  1.243473e+01    2.740846e+00
  1.245061e+01    2.753311e+00
  1.246648e+01    2.703415e+00
  1.248236e+01    2.685441e+00
  1.249823e+01    2.662210e+00
  1.251411e+01    2.686699e+00
  1.252998e+01    2.706503e+00
  1.254586e+01    2.757613e+00
  1.256174e+01    2.752926e+00
  1.257761e+01    2.717054e+00
  1.259349e+01    2.717110e+00
  1.260936e+01    2.760021e+00
  1.262524e+01    2.796916e+00
  1.264111e+01    2.818641e+00
  1.265699e+01    2.792670e+00
  1.267286e+01    2.818906e+00
  1.268874e+01    2.796201e+00
  1.270462e+01    2.792434e+00
  1.272049e+01    2.823365e+00
  1.273637e+01    2.876493e+00
  1.275224e+01    2.881543e+00
  1.276812e+01    2.932990e+00
  1.278399e+01    2.947231e+00
  1.279987e+01    2.964951e+00
  1.281574e+01    3.031704e+00
  1.283162e+01    3.149578e+00
  1.284750e+01    3.231986e+00
  1.286337e+01    3.275620e+00
  1.287925e+01    3.364440e+00
  1.289512e+01    3.471569e+00
  1.291100e+01    3.602541e+00
  1.292687e+01    3.771787e+00
  1.294275e+01    3.991734e+00
  1.295862e+01    4.341642e+00
  1.297450e+01    4.735751e+00
  1.299038e+01    5.254271e+00
  1.300625e+01    5.886204e+00
  1.302213e+01    6.746065e+00
  1.303800e+01    7.735107e+00
  1.305388e+01    8.817787e+00
  1.306975e+01    1.011616e+01
  1.308563e+01    1.149236e+01
  1.310150e+01    1.270811e+01
  1.311738e+01    1.390773e+01
  1.313326e+01    1.492735e+01
  1.314913e+01    1.571626e+01
  1.316501e+01    1.621857e+01
  1.318088e+01    1.625700e+01
  1.319676e+01    1.574223e+01
  1.321263e+01    1.434396e+01
  1.322851e+01    1.241621e+01
  1.324438e+01    1.069999e+01
  1.326026e+01    9.031588e+00
  1.327614e+01    7.837657e+00
  1.329201e+01    6.804392e+00
  1.330789e+01    5.949324e+00
  1.332376e+01    5.343755e+00
  1.333964e+01    4.805039e+00
  1.335551e+01    4.420457e+00
  1.337139e+01    4.109447e+00
  1.338727e+01    3.878590e+00
  1.340314e+01    3.647720e+00
  1.341902e+01    3.485800e+00
  1.343489e+01    3.354324e+00
  1.345077e+01    3.231068e+00
  1.346664e+01    3.164851e+00
  1.348252e+01    3.025238e+00
  1.349839e+01    2.918399e+00
  1.351427e+01    2.895818e+00
  1.353015e+01    2.827365e+00
  1.354602e+01    2.788902e+00
  1.356190e+01    2.740063e+00
  1.357777e+01    2.737688e+00
  1.359365e+01    2.732809e+00
  1.360952e+01    2.711785e+00
  1.362540e+01    2.639303e+00
  1.364127e+01    2.610471e+00
  1.365715e+01    2.615230e+00
  1.367303e+01    2.622985e+00
  1.368890e+01    2.608370e+00
  1.370478e+01    2.546684e+00
  1.372065e+01    2.516429e+00
  1.373653e+01    2.551446e+00
  1.375240e+01    2.516563e+00
  1.376828e+01    2.476089e+00
  1.378415e+01    2.487237e+00
  1.380003e+01    2.512461e+00
  1.381591e+01    2.472031e+00
  1.383178e+01    2.446862e+00
  1.384766e+01    2.413441e+00
  1.386353e+01    2.467945e+00
  1.387941e+01    2.482495e+00
  1.389528e+01    2.452858e+00
  1.391116e+01    2.457895e+00
  1.392703e+01    2.435599e+00
  1.394291e+01    2.395195e+00
  1.395879e+01    2.430266e+00
  1.397466e+01    2.411206e+00
  1.399054e+01    2.368271e+00
  1.400641e+01    2.349954e+00
  1.402229e+01    2.349153e+00
  1.403816e+01    2.378853e+00
  1.405404e+01    2.347803e+00
  1.406991e+01    2.327160e+00
  1.408579e+01    2.345001e+00
  1.410167e+01    2.302356e+00
  1.411754e+01    2.289742e+00
  1.413342e+01    2.296515e+00
  1.414929e+01    2.312050e+00
  1.416517e+01    2.265070e+00
  1.418104e+01    2.294517e+00
  1.419692e+01    2.274863e+00
  1.421279e+01    2.295386e+00
  1.422867e+01    2.291340e+00
  1.424455e+01    2.277689e+00
  1.426042e+01    2.230784e+00
  1.427630e+01    2.248121e+00
  1.429217e+01    2.246739e+00
  1.430805e+01    2.227282e+00
  1.432392e+01    2.238623e+00
  1.433980e+01    2.246457e+00
  1.435568e+01    2.250275e+00
  1.437155e+01    2.184122e+00
  1.438743e+01    2.185787e+00
  1.440330e+01    2.208673e+00
  1.441918e+01    2.233907e+00
  1.443505e+01    2.220570e+00
  1.445093e+01    2.221226e+00
  1.446680e+01    2.256700e+00
  1.448268e+01    2.220880e+00
  1.449856e+01    2.208130e+00
  1.451443e+01    2.233850e+00
  1.453031e+01    2.210325e+00
  1.454618e+01    2.230992e+00
  1.456206e+01    2.224141e+00
  1.457793e+01    2.203574e+00
  1.459381e+01    2.203928e+00
  1.460968e+01    2.200094e+00
  1.462556e+01    2.218728e+00
  1.464144e+01    2.233491e+00
  1.465731e+01    2.206584e+00
  1.467319e+01    2.202255e+00
  1.468906e+01    2.161958e+00
  1.470494e+01    2.205751e+00
  1.472081e+01    2.227682e+00
  1.473669e+01    2.221057e+00
  1.475256e+01    2.159661e+00
  1.476844e+01    2.156842e+00
  1.478432e+01    2.146194e+00
  1.480019e+01    2.188935e+00
  1.481607e+01    2.215273e+00
  1.483194e+01    2.218862e+00
  1.484782e+01    2.227725e+00
  1.486369e+01    2.188722e+00
  1.487957e+01    2.174272e+00
  1.489544e+01    2.233691e+00
  1.491132e+01    2.253500e+00
  1.492720e+01    2.317321e+00
  1.494307e+01    2.295576e+00
  1.495895e+01    2.335962e+00
  1.497482e+01    2.374502e+00
  1.499070e+01    2.379176e+00
  1.500657e+01    2.406137e+00
  1.502245e+01    2.520799e+00
  1.503832e+01    2.575567e+00
  1.505420e+01    2.702824e+00
  1.507008e+01    2.821998e+00
  1.508595e+01    3.036203e+00
  1.510183e+01    3.245697e+00
  1.511770e+01    3.471613e+00
  1.513358e+01    3.718158e+00
  1.514945e+01    4.142407e+00
  1.516533e+01    4.471146e+00
  1.518120e+01    4.815008e+00
  1.519708e+01    5.138682e+00
  1.521296e+01    5.356466e+00
  1.522883e+01    5.589612e+00
  1.524471e+01    5.778344e+00
  1.526058e+01    5.825859e+00
  1.527646e+01    5.708297e+00
  1.529233e+01    5.433592e+00
  1.530821e+01    5.102589e+00
  1.532409e+01    4.614668e+00
  1.533996e+01    4.208748e+00
  1.535584e+01    3.813351e+00
  1.537171e+01    3.391898e+00
  1.538759e+01    3.088094e+00
  1.540346e+01    2.918813e+00
  1.541934e+01    2.811128e+00
  1.543521e+01    2.626526e+00
  1.545109e+01    2.471547e+00
  1.546697e+01    2.419318e+00
  1.548284e+01    2.350479e+00
  1.549872e+01    2.292374e+00
  1.551459e+01    2.269847e+00
  1.553047e+01    2.206241e+00
  1.554634e+01    2.166656e+00
  1.556222e+01    2.148908e+00
  1.557809e+01    2.144396e+00
  1.559397e+01    2.094447e+00
  1.560985e+01    2.086340e+00
  1.562572e+01    2.042656e+00
  1.564160e+01    2.047789e+00
  1.565747e+01    2.048846e+00
  1.567335e+01    2.069388e+00
  1.568922e+01    2.051228e+00
  1.570510e+01    1.990100e+00
  1.572097e+01    1.973302e+00
  1.573685e+01    2.000918e+00
  1.575273e+01    1.976832e+00
  1.576860e+01    1.970790e+00
  1.578448e+01    1.968284e+00
  1.580035e+01    1.960495e+00
  1.581623e+01    1.969764e+00
  1.583210e+01    1.921311e+00
  1.584798e+01    1.939045e+00
  1.586385e+01    1.874191e+00
  1.587973e+01    1.910292e+00
  1.589561e+01    1.935740e+00
  1.591148e+01    1.908433e+00
  1.592736e+01    1.879093e+00
  1.594323e+01    1.883878e+00
  1.595911e+01    1.892107e+00
  1.597498e+01    1.885754e+00
  1.599086e+01    1.851751e+00
  1.600673e+01    1.835931e+00
  1.602261e+01    1.851380e+00
  1.603849e+01    1.816104e+00
  1.605436e+01    1.825111e+00
  1.607024e+01    1.815635e+00
  1.608611e+01    1.836516e+00
  1.610199e+01    1.812123e+00
  1.611786e+01    1.845523e+00
  1.613374e+01    1.844288e+00
  1.614961e+01    1.843892e+00
  1.616549e+01    1.836459e+00
  1.618137e+01    1.824379e+00
  1.619724e+01    1.819140e+00
  1.621312e+01    1.839719e+00
  1.622899e+01    1.855958e+00
  1.624487e+01    1.830606e+00
  1.626074e+01    1.780699e+00
  1.627662e+01    1.748784e+00
  1.629250e+01    1.819832e+00
  1.630837e+01    1.822517e+00
  1.632425e+01    1.808522e+00
  1.634012e+01    1.787935e+00
  1.635600e+01    1.782779e+00
  1.637187e+01    1.773163e+00
  1.638775e+01    1.763330e+00
  1.640362e+01    1.783416e+00
  1.641950e+01    1.769488e+00
  1.643538e+01    1.766217e+00
  1.645125e+01    1.788578e+00
  1.646713e+01    1.731167e+00
  1.648300e+01    1.736507e+00
  1.649888e+01    1.727743e+00
  1.651475e+01    1.737004e+00
  1.653063e+01    1.757724e+00
  1.654650e+01    1.750056e+00
  1.656238e+01    1.734495e+00
  1.657826e+01    1.736052e+00
  1.659413e+01    1.759186e+00
  1.661001e+01    1.735654e+00
  1.662588e+01    1.731515e+00
  1.664176e+01    1.732630e+00
  1.665763e+01    1.743249e+00
  1.667351e+01    1.745974e+00
  1.668938e+01    1.728570e+00
  1.670526e+01    1.717446e+00
  1.672114e+01    1.737952e+00
  1.673701e+01    1.702982e+00
  1.675289e+01    1.690532e+00
  1.676876e+01    1.733764e+00
  1.678464e+01    1.701991e+00
  1.680051e+01    1.694537e+00
  1.681639e+01    1.706516e+00
  1.683226e+01    1.717090e+00
  1.684814e+01    1.732100e+00
  1.686402e+01    1.679898e+00
  1.687989e+01    1.685384e+00
  1.689577e+01    1.696104e+00
  1.691164e+01    1.701344e+00
  1.692752e+01    1.704183e+00
  1.694339e+01    1.684770e+00
  1.695927e+01    1.683205e+00
  1.697514e+01    1.699709e+00
  1.699102e+01    1.658540e+00
  1.700690e+01    1.681266e+00
  1.702277e+01    1.687971e+00
  1.703865e+01    1.668563e+00
  1.705452e+01    1.652813e+00
  1.707040e+01    1.642367e+00
  1.708627e+01    1.624776e+00
  1.710215e+01    1.621545e+00
  1.711802e+01    1.613231e+00
  1.713390e+01    1.625639e+00
  1.714978e+01    1.632195e+00
  1.716565e+01    1.663429e+00
  1.718153e+01    1.682778e+00
  1.719740e+01    1.616210e+00
  1.721328e+01    1.611397e+00
  1.722915e+01    1.619274e+00
  1.724503e+01    1.614323e+00
  1.726091e+01    1.616667e+00
  1.727678e+01    1.619293e+00
  1.729266e+01    1.644761e+00
  1.730853e+01    1.680205e+00
  1.732441e+01    1.662767e+00
  1.734028e+01    1.612607e+00
  1.735616e+01    1.588881e+00
  1.737203e+01    1.612069e+00
  1.738791e+01    1.623358e+00
  1.740379e+01    1.616604e+00
  1.741966e+01    1.619072e+00
  1.743554e+01    1.595012e+00
  1.745141e+01    1.563218e+00
  1.746729e+01    1.557788e+00
  1.748316e+01    1.578923e+00
  1.749904e+01    1.565549e+00
  1.751491e+01    1.583883e+00
  1.753079e+01    1.597012e+00
  1.754667e+01    1.563507e+00
  1.756254e+01    1.582636e+00
  1.757842e+01    1.589410e+00
  1.759429e+01    1.605061e+00
  1.761017e+01    1.599889e+00
  1.762604e+01    1.578608e+00
  1.764192e+01    1.536076e+00
  1.765779e+01    1.522474e+00
  1.767367e+01    1.550259e+00
  1.768955e+01    1.552871e+00
  1.770542e+01    1.565540e+00
  1.772130e+01    1.563255e+00
  1.773717e+01    1.571891e+00
  1.775305e+01    1.545424e+00
  1.776892e+01    1.529474e+00
  1.778480e+01    1.551686e+00
  1.780067e+01    1.556484e+00
  1.781655e+01    1.550526e+00
  1.783243e+01    1.562529e+00
  1.784830e+01    1.520925e+00
  1.786418e+01    1.537671e+00
  1.788005e+01    1.561338e+00
  1.789593e+01    1.534694e+00
  1.791180e+01    1.489500e+00
  1.792768e+01    1.492117e+00
  1.794355e+01    1.488695e+00
  1.795943e+01    1.497205e+00
  1.797531e+01    1.518520e+00
  1.799118e+01    1.492304e+00
  1.800706e+01    1.507115e+00
  1.802293e+01    1.534869e+00
  1.803881e+01    1.509551e+00
  1.805468e+01    1.512430e+00
  1.807056e+01    1.498791e+00
  1.808643e+01    1.493511e+00
  1.810231e+01    1.496533e+00
  1.811819e+01    1.494330e+00
  1.813406e+01    1.505714e+00
  1.814994e+01    1.494339e+00
  1.816581e+01    1.481056e+00
  1.818169e+01    1.497184e+00
  1.819756e+01    1.487013e+00
  1.821344e+01    1.455117e+00
  1.822932e+01    1.455945e+00
  1.824519e+01    1.470512e+00
  1.826107e+01    1.470938e+00
  1.827694e+01    1.468164e+00
  1.829282e+01    1.469661e+00
  1.830869e+01    1.443557e+00
  1.832457e+01    1.453720e+00
  1.834044e+01    1.475806e+00
  1.835632e+01    1.454614e+00
  1.837220e+01    1.462075e+00
  1.838807e+01    1.452144e+00
  1.840395e+01    1.488359e+00
  1.841982e+01    1.466946e+00
  1.843570e+01    1.482100e+00
  1.845157e+01    1.459932e+00
  1.846745e+01    1.449635e+00
  1.848332e+01    1.440667e+00
  1.849920e+01    1.434013e+00
  1.851508e+01    1.430820e+00
  1.853095e+01    1.458720e+00
  1.854683e+01    1.447379e+00
  1.856270e+01    1.409459e+00
  1.857858e+01    1.434601e+00
  1.859445e+01    1.421964e+00
  1.861033e+01    1.427137e+00
  1.862620e+01    1.415138e+00
  1.864208e+01    1.428605e+00
  1.865796e+01    1.440551e+00
  1.867383e+01    1.449542e+00
  1.868971e+01    1.413916e+00
  1.870558e+01    1.417574e+00
  1.872146e+01    1.399938e+00
  1.873733e+01    1.435010e+00
  1.875321e+01    1.428337e+00
  1.876908e+01    1.417766e+00
  1.878496e+01    1.398294e+00
  1.880084e+01    1.387748e+00
  1.881671e+01    1.376892e+00
  1.883259e+01    1.396324e+00
  1.884846e+01    1.445427e+00
  1.886434e+01    1.403881e+00
  1.888021e+01    1.419074e+00
  1.889609e+01    1.398506e+00
  1.891196e+01    1.397892e+00
  1.892784e+01    1.379697e+00
  1.894372e+01    1.376139e+00
  1.895959e+01    1.382207e+00
  1.897547e+01    1.369285e+00
  1.899134e+01    1.377038e+00
  1.900722e+01    1.382138e+00
  1.902309e+01    1.417818e+00
  1.903897e+01    1.415680e+00
  1.905484e+01    1.393415e+00
  1.907072e+01    1.389857e+00
  1.908660e+01    1.342715e+00
  1.910247e+01    1.357477e+00
  1.911835e+01    1.345964e+00
  1.913422e+01    1.357064e+00
  1.915010e+01    1.385003e+00
  1.916597e+01    1.359766e+00
  1.918185e+01    1.357440e+00
  1.919773e+01    1.362490e+00
  1.921360e+01    1.375221e+00
  1.922948e+01    1.364465e+00
  1.924535e+01    1.358247e+00
  1.926123e+01    1.365040e+00
  1.927710e+01    1.361183e+00
  1.929298e+01    1.354806e+00
  1.930885e+01    1.355725e+00
  1.932473e+01    1.342344e+00
  1.934061e+01    1.320744e+00
  1.935648e+01    1.339809e+00
  1.937236e+01    1.362748e+00
  1.938823e+01    1.344574e+00
  1.940411e+01    1.318858e+00
  1.941998e+01    1.318830e+00
  1.943586e+01    1.326327e+00
  1.945173e+01    1.343374e+00
  1.946761e+01    1.363474e+00
  1.948349e+01    1.342304e+00
  1.949936e+01    1.349853e+00
  1.951524e+01    1.369447e+00
  1.953111e+01    1.372079e+00
  1.954699e+01    1.331285e+00
  1.956286e+01    1.323190e+00
  1.957874e+01    1.362730e+00
  1.959461e+01    1.324413e+00
  1.961049e+01    1.330803e+00
  1.962637e+01    1.330259e+00
  1.964224e+01    1.306447e+00
  1.965812e+01    1.342900e+00
  1.967399e+01    1.321505e+00
  1.968987e+01    1.310689e+00
  1.970574e+01    1.304953e+00
  1.972162e+01    1.297967e+00
  1.973749e+01    1.305995e+00
  1.975337e+01    1.312797e+00
  1.976925e+01    1.307315e+00
  1.978512e+01    1.303926e+00
  1.980100e+01    1.301605e+00
  1.981687e+01    1.289271e+00
  1.983275e+01    1.284055e+00
  1.984862e+01    1.302166e+00
  1.986450e+01    1.289956e+00
  1.988037e+01    1.293125e+00
  1.989625e+01    1.291512e+00
  1.991213e+01    1.264599e+00
  1.992800e+01    1.285338e+00
  1.994388e+01    1.266309e+00
  1.995975e+01    1.268778e+00
  1.997563e+01    1.299989e+00
  1.999150e+01    1.288602e+00
  2.000738e+01    1.281867e+00
  2.002325e+01    1.268420e+00
  2.003913e+01    1.270213e+00
  2.005501e+01    1.275937e+00
  2.007088e+01    1.267590e+00
  2.008676e+01    1.255192e+00
  2.010263e+01    1.272308e+00
  2.011851e+01    1.264733e+00
  2.013438e+01    1.245923e+00
  2.015026e+01    1.265163e+00
  2.016614e+01    1.302974e+00
  2.018201e+01    1.273652e+00
  2.019789e+01    1.259018e+00
  2.021376e+01    1.248420e+00
  2.022964e+01    1.265043e+00
  2.024551e+01    1.255170e+00
  2.026139e+01    1.247555e+00
  2.027726e+01    1.247130e+00
  2.029314e+01    1.231929e+00
  2.030902e+01    1.247523e+00
  2.032489e+01    1.270159e+00
  2.034077e+01    1.238478e+00
  2.035664e+01    1.237395e+00
  2.037252e+01    1.256957e+00
  2.038839e+01    1.268308e+00
  2.040427e+01    1.282323e+00
  2.042014e+01    1.252249e+00
  2.043602e+01    1.244360e+00
  2.045190e+01    1.251887e+00
  2.046777e+01    1.254117e+00
  2.048365e+01    1.237354e+00
  2.049952e+01    1.222303e+00
  2.051540e+01    1.228066e+00
  2.053127e+01    1.239729e+00
  2.054715e+01    1.230165e+00
  2.056302e+01    1.219059e+00
  2.057890e+01    1.214314e+00
  2.059478e+01    1.248038e+00
  2.061065e+01    1.255334e+00
  2.062653e+01    1.244510e+00
  2.064240e+01    1.236457e+00
  2.065828e+01    1.209838e+00
  2.067415e+01    1.240334e+00
  2.069003e+01    1.237814e+00
  2.070590e+01    1.224928e+00
  2.072178e+01    1.230659e+00
  2.073766e+01    1.219568e+00
  2.075353e+01    1.222315e+00
  2.076941e+01    1.215966e+00
  2.078528e+01    1.240436e+00
  2.080116e+01    1.217929e+00
  2.081703e+01    1.215273e+00
  2.083291e+01    1.224679e+00
  2.084878e+01    1.243175e+00
  2.086466e+01    1.236225e+00
  2.088054e+01    1.254940e+00
  2.089641e+01    1.243801e+00
  2.091229e+01    1.238852e+00
  2.092816e+01    1.223075e+00
  2.094404e+01    1.200298e+00
  2.095991e+01    1.232743e+00
  2.097579e+01    1.221766e+00
  2.099166e+01    1.210054e+00
  2.100754e+01    1.208005e+00
  2.102342e+01    1.226629e+00
  2.103929e+01    1.232625e+00
  2.105517e+01    1.220645e+00
  2.107104e+01    1.221084e+00
  2.108692e+01    1.202473e+00
  2.110279e+01    1.199420e+00
  2.111867e+01    1.217905e+00
  2.113455e+01    1.245563e+00
  2.115042e+01    1.232214e+00
  2.116630e+01    1.234800e+00
  2.118217e+01    1.222973e+00
  2.119805e+01    1.216658e+00
  2.121392e+01    1.242136e+00
  2.122980e+01    1.250349e+00
  2.124567e+01    1.269739e+00
  2.126155e+01    1.259591e+00
  2.127743e+01    1.246248e+00
  2.129330e+01    1.246309e+00
  2.130918e+01    1.269833e+00
  2.132505e+01    1.291561e+00
  2.134093e+01    1.290490e+00
  2.135680e+01    1.281610e+00
  2.137268e+01    1.269635e+00
  2.138855e+01    1.297479e+00
  2.140443e+01    1.320608e+00
  2.142031e+01    1.351666e+00
  2.143618e+01    1.346759e+00
  2.145206e+01    1.347713e+00
  2.146793e+01    1.371874e+00
  2.148381e+01    1.396101e+00
  2.149968e+01    1.421583e+00
  2.151556e+01    1.452200e+00
  2.153143e+01    1.475354e+00
  2.154731e+01    1.505292e+00
  2.156319e+01    1.555772e+00
  2.157906e+01    1.602320e+00
  2.159494e+01    1.685127e+00
  2.161081e+01    1.771253e+00
  2.162669e+01    1.858563e+00
  2.164256e+01    1.978397e+00
  2.165844e+01    2.134066e+00
  2.167431e+01    2.294447e+00
  2.169019e+01    2.514222e+00
  2.170607e+01    2.735847e+00
  2.172194e+01    3.074500e+00
  2.173782e+01    3.529641e+00
  2.175369e+01    3.975422e+00
  2.176957e+01    4.540092e+00
  2.178544e+01    5.200480e+00
  2.180132e+01    5.805535e+00
  2.181719e+01    6.472365e+00
  2.183307e+01    7.127565e+00
  2.184895e+01    7.774850e+00
  2.186482e+01    8.348613e+00
  2.188070e+01    8.770758e+00
  2.189657e+01    8.947371e+00
  2.191245e+01    8.855123e+00
  2.192832e+01    8.348587e+00
  2.194420e+01    7.552344e+00
  2.196007e+01    6.618783e+00
  2.197595e+01    5.732905e+00
  2.199183e+01    4.876433e+00
  2.200770e+01    4.155855e+00
  2.202358e+01    3.632887e+00
  2.203945e+01    3.192075e+00
  2.205533e+01    2.859869e+00
  2.207120e+01    2.587683e+00
  2.208708e+01    2.367358e+00
  2.210296e+01    2.171088e+00
  2.211883e+01    2.031617e+00
  2.213471e+01    1.919657e+00
  2.215058e+01    1.776634e+00
  2.216646e+01    1.714258e+00
  2.218233e+01    1.625618e+00
  2.219821e+01    1.543425e+00
  2.221408e+01    1.502527e+00
  2.222996e+01    1.461009e+00
  2.224584e+01    1.424844e+00
  2.226171e+01    1.347415e+00
  2.227759e+01    1.326174e+00
  2.229346e+01    1.304325e+00
  2.230934e+01    1.267036e+00
  2.232521e+01    1.266101e+00
  2.234109e+01    1.260571e+00
  2.235696e+01    1.245895e+00
  2.237284e+01    1.242335e+00
  2.238872e+01    1.215933e+00
  2.240459e+01    1.189082e+00
  2.242047e+01    1.175007e+00
  2.243634e+01    1.159645e+00
  2.245222e+01    1.153717e+00
  2.246809e+01    1.147221e+00
  2.248397e+01    1.155128e+00
  2.249984e+01    1.152570e+00
  2.251572e+01    1.150436e+00
  2.253160e+01    1.155408e+00
  2.254747e+01    1.146155e+00
  2.256335e+01    1.136664e+00
  2.257922e+01    1.114406e+00
  2.259510e+01    1.120372e+00
  2.261097e+01    1.120657e+00
  2.262685e+01    1.089597e+00
  2.264272e+01    1.077438e+00
  2.265860e+01    1.092665e+00
  2.267448e+01    1.083171e+00
  2.269035e+01    1.084031e+00
  2.270623e+01    1.084320e+00
  2.272210e+01    1.081264e+00
  2.273798e+01    1.079715e+00
  2.275385e+01    1.062047e+00
  2.276973e+01    1.063762e+00
  2.278560e+01    1.077354e+00
  2.280148e+01    1.066431e+00
  2.281736e+01    1.060191e+00
  2.283323e+01    1.053972e+00
  2.284911e+01    1.059211e+00
  2.286498e+01    1.037093e+00
  2.288086e+01    1.046095e+00
  2.289673e+01    1.060738e+00
  2.291261e+01    1.048842e+00
  2.292848e+01    1.053512e+00
  2.294436e+01    1.036193e+00
  2.296024e+01    1.026963e+00
  2.297611e+01    1.007270e+00
  2.299199e+01    1.034516e+00
  2.300786e+01    1.020956e+00
  2.302374e+01    1.021173e+00
  2.303961e+01    1.038020e+00
  2.305549e+01    1.006529e+00
  2.307137e+01    9.952322e-01
  2.308724e+01    1.015981e+00
  2.310312e+01    9.916300e-01
  2.311899e+01    1.001064e+00
  2.313487e+01    1.014255e+00
  2.315074e+01    9.926204e-01
  2.316662e+01    9.986258e-01
  2.318249e+01    9.842000e-01
  2.319837e+01    9.806104e-01
  2.321425e+01    1.004085e+00
  2.323012e+01    1.009194e+00
  2.324600e+01    9.961815e-01
  2.326187e+01    9.884428e-01
  2.327775e+01    9.955453e-01
  2.329362e+01    9.929338e-01
  2.330950e+01    9.907926e-01
  2.332537e+01    9.810180e-01
  2.334125e+01    9.690862e-01
  2.335713e+01    9.723057e-01
  2.337300e+01    9.561340e-01
  2.338888e+01    9.703414e-01
  2.340475e+01    9.738993e-01
  2.342063e+01    9.740714e-01
  2.343650e+01    9.708264e-01
  2.345238e+01    9.714783e-01
  2.346825e+01    9.712687e-01
  2.348413e+01    9.715731e-01
  2.350001e+01    9.615538e-01
  2.351588e+01    9.620886e-01
  2.353176e+01    9.541896e-01
  2.354763e+01    9.782376e-01
  2.356351e+01    9.532101e-01
  2.357938e+01    9.499021e-01
  2.359526e+01    9.591736e-01
  2.361113e+01    9.558538e-01
  2.362701e+01    9.518459e-01
  2.364289e+01    9.600028e-01
  2.365876e+01    9.636371e-01
  2.367464e+01    9.449485e-01
  2.369051e+01    9.414076e-01
  2.370639e+01    9.359394e-01
  2.372226e+01    9.352422e-01
  2.373814e+01    9.174200e-01
  2.375401e+01    9.231920e-01
  2.376989e+01    9.145274e-01
  2.378577e+01    8.993074e-01
  2.380164e+01    9.171153e-01
  2.381752e+01    9.147768e-01
  2.383339e+01    8.993030e-01
  2.384927e+01    9.093953e-01
  2.386514e+01    9.107078e-01
  2.388102e+01    9.137525e-01
  2.389689e+01    9.171870e-01
  2.391277e+01    8.917993e-01
  2.392865e+01    8.950473e-01
  2.394452e+01    8.908300e-01
  2.396040e+01    8.954407e-01
  2.397627e+01    9.114705e-01
  2.399215e+01    9.039026e-01
  2.400802e+01    9.027423e-01
  2.402390e+01    9.066199e-01
  2.403978e+01    9.107266e-01
  2.405565e+01    9.181964e-01
  2.407153e+01    9.055556e-01
  2.408740e+01    8.962160e-01
  2.410328e+01    8.859559e-01
  2.411915e+01    8.881424e-01
  2.413503e+01    8.683056e-01
  2.415090e+01    8.789523e-01
  2.416678e+01    8.875023e-01
  2.418266e+01    8.875900e-01
  2.419853e+01    8.900839e-01
  2.421441e+01    8.606209e-01
  2.423028e+01    8.576018e-01
  2.424616e+01    8.587009e-01
  2.426203e+01    8.950098e-01
  2.427791e+01    9.020549e-01
  2.429378e+01    8.952372e-01
  2.430966e+01    8.858150e-01
  2.432554e+01    9.053435e-01
  2.434141e+01    8.897291e-01
  2.435729e+01    8.806126e-01
  2.437316e+01    8.828137e-01
  2.438904e+01    8.767298e-01
  2.440491e+01    8.695673e-01
  2.442079e+01    8.699862e-01
  2.443666e+01    8.706346e-01
  2.445254e+01    8.913507e-01
  2.446842e+01    8.939219e-01
  2.448429e+01    8.974609e-01
  2.450017e+01    8.859820e-01
  2.451604e+01    8.881351e-01
  2.453192e+01    8.863819e-01
  2.454779e+01    8.870981e-01
  2.456367e+01    8.831096e-01
  2.457954e+01    8.715423e-01
  2.459542e+01    8.930163e-01
  2.461130e+01    8.957550e-01
  2.462717e+01    8.883637e-01
  2.464305e+01    8.687593e-01
  2.465892e+01    9.055401e-01
  2.467480e+01    8.980042e-01
  2.469067e+01    8.837039e-01
  2.470655e+01    8.712686e-01
  2.472242e+01    8.635257e-01
  2.473830e+01    8.840187e-01
  2.475418e+01    8.936278e-01
  2.477005e+01    8.909294e-01
  2.478593e+01    8.994228e-01
  2.480180e+01    8.856993e-01
  2.481768e+01    9.026868e-01
  2.483355e+01    9.025370e-01
  2.484943e+01    9.049929e-01
  2.486530e+01    8.830863e-01
  2.488118e+01    9.044003e-01
  2.489706e+01    8.616127e-01
  2.491293e+01    8.738642e-01
  2.492881e+01    9.008920e-01
  2.494468e+01    9.003036e-01
  2.496056e+01    8.816213e-01
  2.497643e+01    8.827969e-01
  2.499231e+01    9.016877e-01
  2.500819e+01    9.290881e-01
  2.502406e+01    9.137641e-01
  2.503994e+01    9.056420e-01
  2.505581e+01    8.933203e-01
  2.507169e+01    9.031730e-01
  2.508756e+01    8.856181e-01
  2.510344e+01    9.012874e-01
  2.511931e+01    8.728531e-01
  2.513519e+01    8.814180e-01
  2.515107e+01    8.999401e-01
  2.516694e+01    9.071949e-01
  2.518282e+01    9.141483e-01
  2.519869e+01    9.287333e-01
  2.521457e+01    9.212145e-01
  2.523044e+01    9.215229e-01
  2.524632e+01    9.390326e-01
  2.526219e+01    9.397886e-01
  2.527807e+01    9.412783e-01
  2.529395e+01    9.375003e-01
  2.530982e+01    9.508052e-01
  2.532570e+01    9.577029e-01
  2.534157e+01    9.584314e-01
  2.535745e+01    9.602427e-01
  2.537332e+01    9.668967e-01
  2.538920e+01    9.683397e-01
  2.540507e+01    9.926289e-01
  2.542095e+01    1.000007e+00
  2.543683e+01    1.008844e+00
  2.545270e+01    1.028955e+00
  2.546858e+01    1.057655e+00
  2.548445e+01    1.041873e+00
  2.550033e+01    1.053853e+00
  2.551620e+01    1.074533e+00
  2.553208e+01    1.074667e+00
  2.554795e+01    1.089854e+00
  2.556383e+01    1.132084e+00
  2.557971e+01    1.157594e+00
  2.559558e+01    1.189613e+00
  2.561146e+01    1.214001e+00
  2.562733e+01    1.254883e+00
  2.564321e+01    1.307934e+00
  2.565908e+01    1.349017e+00
  2.567496e+01    1.419538e+00
  2.569083e+01    1.510120e+00
  2.570671e+01    1.587120e+00
  2.572259e+01    1.711560e+00
  2.573846e+01    1.857277e+00
  2.575434e+01    2.017511e+00
  2.577021e+01    2.254351e+00
  2.578609e+01    2.456554e+00
  2.580196e+01    2.791387e+00
  2.581784e+01    3.165248e+00
  2.583371e+01    3.619293e+00
  2.584959e+01    4.124544e+00
  2.586547e+01    4.636456e+00
  2.588134e+01    5.202460e+00
  2.589722e+01    5.817947e+00
  2.591309e+01    6.331720e+00
  2.592897e+01    6.796751e+00
  2.594484e+01    7.064168e+00
  2.596072e+01    7.099070e+00
  2.597660e+01    6.982061e+00
  2.599247e+01    6.616158e+00
  2.600835e+01    6.027976e+00
  2.602422e+01    5.272770e+00
  2.604010e+01    4.664798e+00
  2.605597e+01    4.009392e+00
  2.607185e+01    3.444301e+00
  2.608772e+01    3.017919e+00
  2.610360e+01    2.676604e+00
  2.611948e+01    2.394966e+00
  2.613535e+01    2.164223e+00
  2.615123e+01    1.947027e+00
  2.616710e+01    1.795455e+00
  2.618298e+01    1.679115e+00
  2.619885e+01    1.592288e+00
  2.621473e+01    1.487316e+00
  2.623060e+01    1.401440e+00
  2.624648e+01    1.363701e+00
  2.626236e+01    1.299926e+00
  2.627823e+01    1.241507e+00
  2.629411e+01    1.201847e+00
  2.630998e+01    1.181238e+00
  2.632586e+01    1.138897e+00
  2.634173e+01    1.130306e+00
  2.635761e+01    1.120916e+00
  2.637348e+01    1.068209e+00
  2.638936e+01    1.059021e+00
  2.640524e+01    1.045004e+00
  2.642111e+01    1.026236e+00
  2.643699e+01    1.021105e+00
  2.645286e+01    1.014400e+00
  2.646874e+01    1.040206e+00
  2.648461e+01    1.041051e+00
  2.650049e+01    1.016455e+00
  2.651636e+01    1.014112e+00
  2.653224e+01    1.001084e+00
  2.654812e+01    9.905421e-01
  2.656399e+01    9.941325e-01
  2.657987e+01    1.014242e+00
  2.659574e+01    9.814540e-01
  2.661162e+01    9.946160e-01
  2.662749e+01    1.000153e+00
  2.664337e+01    9.890217e-01
  2.665924e+01    9.880090e-01
  2.667512e+01    9.836255e-01
  2.669100e+01    9.706745e-01
  2.670687e+01    9.786735e-01
  2.672275e+01    9.978701e-01
  2.673862e+01    9.603726e-01
  2.675450e+01    9.461893e-01
  2.677037e+01    9.624685e-01
  2.678625e+01    9.588375e-01
  2.680212e+01    9.681647e-01
  2.681800e+01    9.816944e-01
  2.683388e+01    9.771492e-01
  2.684975e+01    9.692775e-01
  2.686563e+01    9.878913e-01
  2.688150e+01    1.008407e+00
  2.689738e+01    9.971599e-01
  2.691325e+01    1.021618e+00
  2.692913e+01    1.014280e+00
  2.694501e+01    1.012851e+00
  2.696088e+01    1.033385e+00
  2.697676e+01    1.046828e+00
  2.699263e+01    1.046812e+00
  2.700851e+01    1.112690e+00
  2.702438e+01    1.124706e+00
  2.704026e+01    1.186350e+00
  2.705613e+01    1.273717e+00
  2.707201e+01    1.369508e+00
  2.708789e+01    1.414142e+00
  2.710376e+01    1.447933e+00
  2.711964e+01    1.592727e+00
  2.713551e+01    1.712920e+00
  2.715139e+01    1.852042e+00
  2.716726e+01    1.959403e+00
  2.718314e+01    2.090822e+00
  2.719901e+01    2.161763e+00
  2.721489e+01    2.182036e+00
  2.723077e+01    2.140278e+00
  2.724664e+01    2.083497e+00
  2.726252e+01    1.957457e+00
  2.727839e+01    1.845241e+00
  2.729427e+01    1.704075e+00
  2.731014e+01    1.578076e+00
  2.732602e+01    1.444620e+00
  2.734189e+01    1.373201e+00
  2.735777e+01    1.319293e+00
  2.737365e+01    1.223355e+00
  2.738952e+01    1.156114e+00
  2.740540e+01    1.107018e+00
  2.742127e+01    1.088245e+00
  2.743715e+01    1.066896e+00
  2.745302e+01    1.042942e+00
  2.746890e+01    1.015023e+00
  2.748477e+01    9.759498e-01
  2.750065e+01    9.694234e-01
  2.751653e+01    9.567968e-01
  2.753240e+01    9.556117e-01
  2.754828e+01    9.200434e-01
  2.756415e+01    9.264475e-01
  2.758003e+01    9.321392e-01
  2.759590e+01    9.317863e-01
  2.761178e+01    9.003024e-01
  2.762765e+01    9.093125e-01
  2.764353e+01    9.191455e-01
  2.765941e+01    9.417328e-01
  2.767528e+01    9.080120e-01
  2.769116e+01    8.920704e-01
  2.770703e+01    8.874485e-01
  2.772291e+01    9.008247e-01
  2.773878e+01    9.014168e-01
  2.775466e+01    8.958864e-01
  2.777054e+01    8.936949e-01
  2.778641e+01    8.837533e-01
  2.780229e+01    8.803238e-01
  2.781816e+01    8.697169e-01
  2.783404e+01    8.858120e-01
  2.784991e+01    8.715198e-01
  2.786579e+01    8.892614e-01
  2.788166e+01    8.796682e-01
  2.789754e+01    8.743969e-01
  2.791342e+01    8.710372e-01
  2.792929e+01    8.786395e-01
  2.794517e+01    8.821627e-01
  2.796104e+01    8.612624e-01
  2.797692e+01    8.683183e-01
  2.799279e+01    8.628049e-01
  2.800867e+01    8.573116e-01
  2.802454e+01    8.401503e-01
  2.804042e+01    8.577223e-01
  2.805630e+01    8.601653e-01
  2.807217e+01    8.583802e-01
  2.808805e+01    8.643289e-01
  2.810392e+01    8.644343e-01
  2.811980e+01    8.637011e-01
  2.813567e+01    8.765434e-01
  2.815155e+01    8.458241e-01
  2.816742e+01    8.493799e-01
  2.818330e+01    8.515207e-01
  2.819918e+01    8.523478e-01
  2.821505e+01    8.439658e-01
  2.823093e+01    8.413366e-01
  2.824680e+01    8.769813e-01
  2.826268e+01    8.538607e-01
  2.827855e+01    8.779905e-01
  2.829443e+01    8.611838e-01
  2.831030e+01    8.429220e-01
  2.832618e+01    8.561071e-01
  2.834206e+01    8.588961e-01
  2.835793e+01    8.347585e-01
  2.837381e+01    8.449668e-01
  2.838968e+01    8.441730e-01
  2.840556e+01    8.475641e-01
  2.842143e+01    8.420639e-01
  2.843731e+01    8.443052e-01
  2.845318e+01    8.582676e-01
  2.846906e+01    8.782405e-01
  2.848494e+01    8.398101e-01
  2.850081e+01    8.312362e-01
  2.851669e+01    8.601153e-01
  2.853256e+01    8.371180e-01
  2.854844e+01    8.151724e-01
  2.856431e+01    8.122248e-01
  2.858019e+01    7.953635e-01
  2.859606e+01    8.415169e-01
  2.861194e+01    8.391586e-01
  2.862782e+01    8.393461e-01
  2.864369e+01    8.399968e-01
  2.865957e+01    8.348535e-01
  2.867544e+01    8.167902e-01
  2.869132e+01    8.411980e-01
  2.870719e+01    8.357280e-01
  2.872307e+01    8.486789e-01
  2.873895e+01    8.566036e-01
  2.875482e+01    8.445527e-01
  2.877070e+01    8.295560e-01
  2.878657e+01    8.327036e-01
  2.880245e+01    8.324162e-01
  2.881832e+01    8.381991e-01
  2.883420e+01    8.251840e-01
  2.885007e+01    8.118925e-01
  2.886595e+01    8.274769e-01
  2.888183e+01    8.386343e-01
  2.889770e+01    8.216624e-01
  2.891358e+01    8.361534e-01
  2.892945e+01    8.486293e-01
  2.894533e+01    8.434767e-01
  2.896120e+01    8.364115e-01
  2.897708e+01    8.492820e-01
  2.899295e+01    8.392608e-01
  2.900883e+01    8.182148e-01
  2.902471e+01    8.050525e-01
  2.904058e+01    8.009564e-01
  2.905646e+01    8.125681e-01
  2.907233e+01    8.317246e-01
  2.908821e+01    8.143396e-01
  2.910408e+01    8.191748e-01
  2.911996e+01    8.178890e-01
  2.913583e+01    8.147508e-01
  2.915171e+01    8.258890e-01
  2.916759e+01    8.160979e-01
  2.918346e+01    8.160760e-01
  2.919934e+01    8.179059e-01
  2.921521e+01    8.057079e-01
  2.923109e+01    8.096619e-01
  2.924696e+01    7.822929e-01
  2.926284e+01    7.730687e-01
  2.927871e+01    8.006669e-01
  2.929459e+01    8.291882e-01
  2.931047e+01    7.860677e-01
  2.932634e+01    7.969337e-01
  2.934222e+01    8.060275e-01
  2.935809e+01    8.030430e-01
  2.937397e+01    7.985038e-01
  2.938984e+01    8.098525e-01
  2.940572e+01    8.140182e-01
  2.942159e+01    7.984847e-01
  2.943747e+01    8.233347e-01
  2.945335e+01    7.972714e-01
  2.946922e+01    8.001891e-01
  2.948510e+01    7.937562e-01
  2.950097e+01    7.958087e-01
  2.951685e+01    8.138694e-01
  2.953272e+01    8.000737e-01
  2.954860e+01    7.998258e-01
  2.956447e+01    7.971191e-01
  2.958035e+01    7.911854e-01
  2.959623e+01    8.063707e-01
  2.961210e+01    8.116255e-01
  2.962798e+01    8.029453e-01
  2.964385e+01    7.957517e-01
  2.965973e+01    7.880889e-01
  2.967560e+01    7.974187e-01
  2.969148e+01    8.114950e-01
  2.970736e+01    8.054168e-01
  2.972323e+01    8.171359e-01
  2.973911e+01    8.107864e-01
  2.975498e+01    8.058095e-01
  2.977086e+01    7.951584e-01
  2.978673e+01    7.836245e-01
  2.980261e+01    7.949865e-01
  2.981848e+01    8.034866e-01
  2.983436e+01    7.922930e-01
  2.985024e+01    7.680671e-01
  2.986611e+01    7.816832e-01
  2.988199e+01    7.846470e-01
  2.989786e+01    7.696521e-01
  2.991374e+01    7.939740e-01
  2.992961e+01    8.029830e-01
  2.994549e+01    7.870908e-01
  2.996136e+01    7.924284e-01
  2.997724e+01    8.130234e-01
  2.999312e+01    8.088751e-01
  3.000899e+01    8.128078e-01
  3.002487e+01    8.136587e-01
  3.004074e+01    8.015335e-01
  3.005662e+01    8.120869e-01
  3.007249e+01    8.216766e-01
  3.008837e+01    8.113669e-01
  3.010424e+01    8.193499e-01
  3.012012e+01    8.233904e-01
  3.013600e+01    8.129842e-01
  3.015187e+01    7.871113e-01
  3.016775e+01    7.874379e-01
  3.018362e+01    7.847688e-01
  3.019950e+01    7.930107e-01
  3.021537e+01    7.996445e-01
  3.023125e+01    7.911598e-01
  3.024712e+01    7.803007e-01
  3.026300e+01    7.963822e-01
  3.027888e+01    7.729009e-01
  3.029475e+01    7.821831e-01
  3.031063e+01    7.807664e-01
  3.032650e+01    7.739277e-01
  3.034238e+01    7.591219e-01
  3.035825e+01    7.698542e-01
  3.037413e+01    7.867165e-01
  3.039000e+01    7.755465e-01
  3.040588e+01    7.776694e-01
  3.042176e+01    7.913920e-01
  3.043763e+01    7.980660e-01
  3.045351e+01    7.781643e-01
  3.046938e+01    7.858972e-01
  3.048526e+01    7.937195e-01
  3.050113e+01    7.784125e-01
  3.051701e+01    7.648877e-01
  3.053288e+01    7.635220e-01
  3.054876e+01    7.751910e-01
  3.056464e+01    7.722631e-01
  3.058051e+01    7.631125e-01
  3.059639e+01    7.655458e-01
  3.061226e+01    7.919126e-01
  3.062814e+01    7.978365e-01
  3.064401e+01    7.708823e-01
  3.065989e+01    7.549564e-01
  3.067577e+01    7.609971e-01
  3.069164e+01    7.935703e-01
  3.070752e+01    7.667960e-01
  3.072339e+01    7.692765e-01
  3.073927e+01    7.791763e-01
  3.075514e+01    7.739494e-01
  3.077102e+01    7.744067e-01
  3.078689e+01    7.713518e-01
  3.080277e+01    7.683601e-01
  3.081865e+01    7.584276e-01
  3.083452e+01    7.747954e-01
  3.085040e+01    7.651156e-01
  3.086627e+01    7.704762e-01
  3.088215e+01    7.582065e-01
  3.089802e+01    7.777668e-01
  3.091390e+01    8.086137e-01
  3.092977e+01    8.067942e-01
  3.094565e+01    8.005427e-01
  3.096153e+01    7.894243e-01
  3.097740e+01    7.854681e-01
  3.099328e+01    7.652431e-01
  3.100915e+01    7.619957e-01
  3.102503e+01    7.794911e-01
  3.104090e+01    7.853825e-01
  3.105678e+01    7.975720e-01
  3.107265e+01    8.042022e-01
  3.108853e+01    7.986950e-01
  3.110441e+01    7.968428e-01
  3.112028e+01    7.851402e-01
  3.113616e+01    7.871224e-01
  3.115203e+01    8.116087e-01
  3.116791e+01    8.114527e-01
  3.118378e+01    7.849762e-01
  3.119966e+01    7.740721e-01
  3.121553e+01    7.655795e-01
  3.123141e+01    7.972606e-01
  3.124729e+01    8.033003e-01
  3.126316e+01    7.845678e-01
  3.127904e+01    7.849522e-01
  3.129491e+01    7.714726e-01
  3.131079e+01    7.940983e-01
  3.132666e+01    7.921752e-01
  3.134254e+01    7.689738e-01
  3.135841e+01    7.988399e-01
  3.137429e+01    7.833339e-01
  3.139017e+01    8.165420e-01
  3.140604e+01    8.121248e-01
  3.142192e+01    8.025181e-01
  3.143779e+01    7.866632e-01
  3.145367e+01    8.103192e-01
  3.146954e+01    8.162670e-01
  3.148542e+01    8.295836e-01
  3.150129e+01    8.369479e-01
  3.151717e+01    8.469120e-01
  3.153305e+01    8.400758e-01
  3.154892e+01    8.358611e-01
  3.156480e+01    8.408616e-01
  3.158067e+01    8.736282e-01
  3.159655e+01    8.740597e-01
  3.161242e+01    9.003307e-01
  3.162830e+01    9.074407e-01
  3.164418e+01    9.289367e-01
  3.166005e+01    9.538066e-01
  3.167593e+01    9.536746e-01
  3.169180e+01    1.005521e+00
  3.170768e+01    1.022067e+00
  3.172355e+01    1.066934e+00
  3.173943e+01    1.134690e+00
  3.175530e+01    1.184402e+00
  3.177118e+01    1.242396e+00
  3.178706e+01    1.352682e+00
  3.180293e+01    1.443537e+00
  3.181881e+01    1.571671e+00
  3.183468e+01    1.720789e+00
  3.185056e+01    1.825776e+00
  3.186643e+01    1.929993e+00
  3.188231e+01    2.060845e+00
  3.189818e+01    2.103172e+00
  3.191406e+01    2.123143e+00
  3.192994e+01    2.037784e+00
  3.194581e+01    1.950189e+00
  3.196169e+01    1.812149e+00
  3.197756e+01    1.646434e+00
  3.199344e+01    1.549771e+00
  3.200931e+01    1.459936e+00
  3.202519e+01    1.317361e+00
  3.204106e+01    1.225507e+00
  3.205694e+01    1.153779e+00
  3.207282e+01    1.075759e+00
  3.208869e+01    1.055038e+00
  3.210457e+01    1.001626e+00
  3.212044e+01    9.646651e-01
  3.213632e+01    9.523883e-01
  3.215219e+01    9.197324e-01
  3.216807e+01    8.844303e-01
  3.218394e+01    8.922477e-01
  3.219982e+01    8.887504e-01
  3.221570e+01    8.477131e-01
  3.223157e+01    8.387992e-01
  3.224745e+01    8.281287e-01
  3.226332e+01    8.070346e-01
  3.227920e+01    8.229433e-01
  3.229507e+01    8.407873e-01
  3.231095e+01    8.282538e-01
  3.232682e+01    8.147529e-01
  3.234270e+01    7.950205e-01
  3.235858e+01    7.861003e-01
  3.237445e+01    7.955101e-01
  3.239033e+01    7.795965e-01
  3.240620e+01    7.633240e-01
  3.242208e+01    7.903594e-01
  3.243795e+01    7.882593e-01
  3.245383e+01    7.961392e-01
  3.246970e+01    7.886470e-01
  3.248558e+01    7.761347e-01
  3.250146e+01    7.649936e-01
  3.251733e+01    7.583272e-01
  3.253321e+01    7.618691e-01
  3.254908e+01    7.597982e-01
