# == pyFAI calibration ==
# Distance Sample to Detector: 0.3999999939076516 m
# PONI: 9.750e-02, 1.135e-01 m
# Rotations: -0.000175 0.000000 -0.000000 rad
# 
# == Fit2d calibration ==
# Distance Sample-beamCenter: 400.000 mm
# Center: x=1514.000, y=1300.000 pix
# Tilt: 0.010 deg  TiltPlanRot: 0.010 deg
# 
# Detector Detector	 Spline= None	 PixelSize= 7.500e-05, 7.500e-05 m
#    Detector has a mask: False 
#    Detector has a dark current: False 
#    detector has a flat field: False 
# 
# Wavelength: 6.888e-11 m
# Mask applied: user provided
# Dark current applied: False
# Flat field applied: False
# Polarization factor: 0.99
# Normalization factor: 1.0
# --> /home/myspot/data/2024_07_Rosario/Ru-CGO-ex/2024-07-27_003_Ru-CGO-ex_Reaction_dwell_000023_data_000017.dat
#       q_nm^-1             I 
  2.003187e-02    7.711873e-02
  3.590745e-02    1.358135e-01
  5.178302e-02    4.982200e-02
  6.765859e-02    7.934329e-02
  8.353417e-02    8.296737e-02
  9.940974e-02    5.271573e-02
  1.152853e-01    8.322357e-02
  1.311609e-01    6.056806e-02
  1.470365e-01    5.933005e-02
  1.629120e-01    3.275348e-02
  1.787876e-01    2.795898e-02
  1.946632e-01    5.747554e-02
  2.105388e-01    6.527758e-02
  2.264143e-01    7.106233e-02
  2.422899e-01    2.724900e-02
  2.581655e-01    3.417150e-02
  2.740411e-01    6.194936e-02
  2.899166e-01    3.914028e-02
  3.057922e-01    1.017072e-02
  3.216678e-01    2.079361e-02
  3.375433e-01    6.451431e-02
  3.534189e-01    9.189573e-02
  3.692945e-01    7.108991e-02
  3.851701e-01    6.374129e-02
  4.010456e-01    8.951526e-02
  4.169212e-01    6.763250e-02
  4.327968e-01    4.687983e-02
  4.486724e-01    3.596228e-02
  4.645479e-01    3.416292e-02
  4.804235e-01    3.056428e-02
  4.962991e-01    6.450813e-02
  5.121747e-01    7.184733e-02
  5.280502e-01    5.362531e-02
  5.439258e-01    5.003795e-02
  5.598014e-01    4.288009e-02
  5.756770e-01    7.632713e-02
  5.915525e-01    4.836908e-02
  6.074281e-01    3.641580e-02
  6.233037e-01    2.559349e-02
  6.391793e-01    2.290282e-02
  6.550548e-01    6.079983e-02
  6.709304e-01    6.713441e-02
  6.868060e-01    5.269549e-02
  7.026815e-01    3.196883e-02
  7.185571e-01    4.256731e-02
  7.344327e-01    7.703307e-02
  7.503083e-01    5.219303e-02
  7.661838e-01    5.620811e-02
  7.820594e-01    1.270237e-01
  7.979350e-01    1.699140e-01
  8.138106e-01    2.190827e-01
  8.296861e-01    3.107112e-01
  8.455617e-01    3.850683e-01
  8.614373e-01    4.432414e-01
  8.773129e-01    4.985010e-01
  8.931884e-01    6.029220e-01
  9.090640e-01    7.031851e-01
  9.249396e-01    7.436107e-01
  9.408152e-01    8.060367e-01
  9.566907e-01    9.215128e-01
  9.725663e-01    1.059244e+00
  9.884419e-01    1.110740e+00
  1.004317e+00    1.150698e+00
  1.020193e+00    1.285930e+00
  1.036069e+00    1.373044e+00
  1.051944e+00    1.421689e+00
  1.067820e+00    1.334550e+00
  1.083695e+00    1.445070e+00
  1.099571e+00    1.484803e+00
  1.115446e+00    1.409421e+00
  1.131322e+00    1.561616e+00
  1.147198e+00    1.792354e+00
  1.163073e+00    1.690218e+00
  1.178949e+00    1.744063e+00
  1.194824e+00    1.871461e+00
  1.210700e+00    1.933031e+00
  1.226575e+00    2.209784e+00
  1.242451e+00    2.422873e+00
  1.258327e+00    2.425795e+00
  1.274202e+00    2.488913e+00
  1.290078e+00    2.614493e+00
  1.305953e+00    2.614247e+00
  1.321829e+00    2.741671e+00
  1.337705e+00    2.953901e+00
  1.353580e+00    2.966222e+00
  1.369456e+00    2.816978e+00
  1.385331e+00    2.910288e+00
  1.401207e+00    2.877391e+00
  1.417082e+00    2.771205e+00
  1.432958e+00    2.770400e+00
  1.448834e+00    2.889795e+00
  1.464709e+00    3.008715e+00
  1.480585e+00    2.978072e+00
  1.496460e+00    3.191628e+00
  1.512336e+00    3.214660e+00
  1.528211e+00    3.170883e+00
  1.544087e+00    3.150418e+00
  1.559963e+00    3.062659e+00
  1.575838e+00    3.195653e+00
  1.591714e+00    3.317723e+00
  1.607589e+00    3.201752e+00
  1.623465e+00    3.187016e+00
  1.639340e+00    3.205103e+00
  1.655216e+00    3.130272e+00
  1.671092e+00    3.091506e+00
  1.686967e+00    3.149951e+00
  1.702843e+00    3.172460e+00
  1.718718e+00    3.165951e+00
  1.734594e+00    3.105647e+00
  1.750469e+00    3.048895e+00
  1.766345e+00    3.038417e+00
  1.782221e+00    3.098840e+00
  1.798096e+00    3.163444e+00
  1.813972e+00    3.136166e+00
  1.829847e+00    2.943696e+00
  1.845723e+00    2.995229e+00
  1.861598e+00    3.102893e+00
  1.877474e+00    3.082297e+00
  1.893350e+00    3.106957e+00
  1.909225e+00    3.152910e+00
  1.925101e+00    3.041329e+00
  1.940976e+00    3.045063e+00
  1.956852e+00    3.025791e+00
  1.972727e+00    3.024786e+00
  1.988603e+00    3.150776e+00
  2.004479e+00    3.084728e+00
  2.020354e+00    3.095109e+00
  2.036230e+00    2.999644e+00
  2.052105e+00    3.091913e+00
  2.067981e+00    3.007320e+00
  2.083856e+00    3.133253e+00
  2.099732e+00    3.180461e+00
  2.115608e+00    3.038945e+00
  2.131483e+00    3.247088e+00
  2.147359e+00    3.149478e+00
  2.163234e+00    3.132257e+00
  2.179110e+00    3.060887e+00
  2.194985e+00    3.148873e+00
  2.210861e+00    3.197493e+00
  2.226737e+00    3.128929e+00
  2.242612e+00    3.143850e+00
  2.258488e+00    3.227305e+00
  2.274363e+00    3.210929e+00
  2.290239e+00    3.178448e+00
  2.306115e+00    3.226673e+00
  2.321990e+00    3.135455e+00
  2.337866e+00    3.226709e+00
  2.353741e+00    3.230535e+00
  2.369617e+00    3.260350e+00
  2.385492e+00    3.211573e+00
  2.401368e+00    3.203165e+00
  2.417244e+00    3.153546e+00
  2.433119e+00    3.114407e+00
  2.448995e+00    3.134753e+00
  2.464870e+00    3.152833e+00
  2.480746e+00    3.165766e+00
  2.496621e+00    3.301740e+00
  2.512497e+00    3.334047e+00
  2.528373e+00    3.273540e+00
  2.544248e+00    3.235040e+00
  2.560124e+00    3.261319e+00
  2.575999e+00    3.229940e+00
  2.591875e+00    3.335805e+00
  2.607750e+00    3.333532e+00
  2.623626e+00    3.280526e+00
  2.639502e+00    3.205934e+00
  2.655377e+00    3.239993e+00
  2.671253e+00    3.286701e+00
  2.687128e+00    3.334420e+00
  2.703004e+00    3.299765e+00
  2.718879e+00    3.287460e+00
  2.734755e+00    3.399088e+00
  2.750631e+00    3.344964e+00
  2.766506e+00    3.305287e+00
  2.782382e+00    3.405985e+00
  2.798257e+00    3.344596e+00
  2.814133e+00    3.325067e+00
  2.830008e+00    3.386860e+00
  2.845884e+00    3.439254e+00
  2.861760e+00    3.430111e+00
  2.877635e+00    3.364749e+00
  2.893511e+00    3.351309e+00
  2.909386e+00    3.342746e+00
  2.925262e+00    3.314829e+00
  2.941137e+00    3.448853e+00
  2.957013e+00    3.388686e+00
  2.972889e+00    3.317910e+00
  2.988764e+00    3.369176e+00
  3.004640e+00    3.364103e+00
  3.020515e+00    3.350690e+00
  3.036391e+00    3.229598e+00
  3.052266e+00    3.305651e+00
  3.068142e+00    3.346591e+00
  3.084018e+00    3.322950e+00
  3.099893e+00    3.321590e+00
  3.115769e+00    3.310383e+00
  3.131644e+00    3.418134e+00
  3.147520e+00    3.350074e+00
  3.163395e+00    3.311993e+00
  3.179271e+00    3.499899e+00
  3.195147e+00    3.468661e+00
  3.211022e+00    3.390331e+00
  3.226898e+00    3.411870e+00
  3.242773e+00    3.466953e+00
  3.258649e+00    3.530781e+00
  3.274525e+00    3.522271e+00
  3.290400e+00    3.445594e+00
  3.306276e+00    3.386119e+00
  3.322151e+00    3.464913e+00
  3.338027e+00    3.500070e+00
  3.353902e+00    3.427003e+00
  3.369778e+00    3.502692e+00
  3.385654e+00    3.463682e+00
  3.401529e+00    3.441399e+00
  3.417405e+00    3.405948e+00
  3.433280e+00    3.491461e+00
  3.449156e+00    3.451811e+00
  3.465031e+00    3.429776e+00
  3.480907e+00    3.469015e+00
  3.496783e+00    3.431538e+00
  3.512658e+00    3.424084e+00
  3.528534e+00    3.409259e+00
  3.544409e+00    3.498225e+00
  3.560285e+00    3.396723e+00
  3.576160e+00    3.494502e+00
  3.592036e+00    3.432197e+00
  3.607912e+00    3.486532e+00
  3.623787e+00    3.558891e+00
  3.639663e+00    3.552636e+00
  3.655538e+00    3.520846e+00
  3.671414e+00    3.584034e+00
  3.687289e+00    3.552413e+00
  3.703165e+00    3.437446e+00
  3.719041e+00    3.412036e+00
  3.734916e+00    3.415922e+00
  3.750792e+00    3.394597e+00
  3.766667e+00    3.515931e+00
  3.782543e+00    3.518797e+00
  3.798418e+00    3.551264e+00
  3.814294e+00    3.516970e+00
  3.830170e+00    3.483253e+00
  3.846045e+00    3.547970e+00
  3.861921e+00    3.519545e+00
  3.877796e+00    3.531578e+00
  3.893672e+00    3.605339e+00
  3.909547e+00    3.594389e+00
  3.925423e+00    3.584348e+00
  3.941299e+00    3.462900e+00
  3.957174e+00    3.495353e+00
  3.973050e+00    3.513492e+00
  3.988925e+00    3.503709e+00
  4.004801e+00    3.505444e+00
  4.020676e+00    3.507927e+00
  4.036552e+00    3.478007e+00
  4.052428e+00    3.622511e+00
  4.068303e+00    3.668483e+00
  4.084179e+00    3.575214e+00
  4.100054e+00    3.423491e+00
  4.115930e+00    3.512587e+00
  4.131806e+00    3.602453e+00
  4.147681e+00    3.536411e+00
  4.163557e+00    3.621157e+00
  4.179432e+00    3.669007e+00
  4.195308e+00    3.658449e+00
  4.211183e+00    3.550898e+00
  4.227059e+00    3.562108e+00
  4.242935e+00    3.603901e+00
  4.258810e+00    3.607159e+00
  4.274686e+00    3.612853e+00
  4.290561e+00    3.601778e+00
  4.306437e+00    3.612976e+00
  4.322312e+00    3.659484e+00
  4.338188e+00    3.646660e+00
  4.354064e+00    3.687343e+00
  4.369939e+00    3.684113e+00
  4.385815e+00    3.629003e+00
  4.401690e+00    3.599940e+00
  4.417566e+00    3.637688e+00
  4.433441e+00    3.532902e+00
  4.449317e+00    3.566744e+00
  4.465193e+00    3.583997e+00
  4.481068e+00    3.591367e+00
  4.496944e+00    3.565466e+00
  4.512819e+00    3.624392e+00
  4.528695e+00    3.676113e+00
  4.544570e+00    3.634791e+00
  4.560446e+00    3.632436e+00
  4.576322e+00    3.728868e+00
  4.592197e+00    3.678585e+00
  4.608073e+00    3.626168e+00
  4.623948e+00    3.626521e+00
  4.639824e+00    3.723090e+00
  4.655699e+00    3.724277e+00
  4.671575e+00    3.637262e+00
  4.687451e+00    3.613199e+00
  4.703326e+00    3.635579e+00
  4.719202e+00    3.642908e+00
  4.735077e+00    3.579290e+00
  4.750953e+00    3.661098e+00
  4.766828e+00    3.732904e+00
  4.782704e+00    3.630278e+00
  4.798580e+00    3.660367e+00
  4.814455e+00    3.691430e+00
  4.830331e+00    3.715214e+00
  4.846206e+00    3.701468e+00
  4.862082e+00    3.763131e+00
  4.877957e+00    3.729161e+00
  4.893833e+00    3.759632e+00
  4.909709e+00    3.801356e+00
  4.925584e+00    3.689511e+00
  4.941460e+00    3.624495e+00
  4.957335e+00    3.639854e+00
  4.973211e+00    3.687615e+00
  4.989086e+00    3.663002e+00
  5.004962e+00    3.663563e+00
  5.020838e+00    3.716279e+00
  5.036713e+00    3.684131e+00
  5.052589e+00    3.640697e+00
  5.068464e+00    3.730912e+00
  5.084340e+00    3.801775e+00
  5.100216e+00    3.748911e+00
  5.116091e+00    3.841830e+00
  5.131967e+00    3.839855e+00
  5.147842e+00    3.639109e+00
  5.163718e+00    3.593279e+00
  5.179593e+00    3.625080e+00
  5.195469e+00    3.617605e+00
  5.211345e+00    3.635619e+00
  5.227220e+00    3.688296e+00
  5.243096e+00    3.724544e+00
  5.258971e+00    3.738355e+00
  5.274847e+00    3.612391e+00
  5.290722e+00    3.613267e+00
  5.306598e+00    3.597071e+00
  5.322474e+00    3.591036e+00
  5.338349e+00    3.644516e+00
  5.354225e+00    3.668042e+00
  5.370100e+00    3.712822e+00
  5.385976e+00    3.714448e+00
  5.401851e+00    3.802505e+00
  5.417727e+00    3.802272e+00
  5.433603e+00    3.707873e+00
  5.449478e+00    3.662955e+00
  5.465354e+00    3.651042e+00
  5.481229e+00    3.704017e+00
  5.497105e+00    3.568744e+00
  5.512980e+00    3.585151e+00
  5.528856e+00    3.668618e+00
  5.544732e+00    3.584245e+00
  5.560607e+00    3.556847e+00
  5.576483e+00    3.678310e+00
  5.592358e+00    3.695926e+00
  5.608234e+00    3.689566e+00
  5.624109e+00    3.642009e+00
  5.639985e+00    3.652348e+00
  5.655861e+00    3.599523e+00
  5.671736e+00    3.540754e+00
  5.687612e+00    3.667225e+00
  5.703487e+00    3.607715e+00
  5.719363e+00    3.567573e+00
  5.735238e+00    3.640749e+00
  5.751114e+00    3.599346e+00
  5.766990e+00    3.631202e+00
  5.782865e+00    3.592056e+00
  5.798741e+00    3.588737e+00
  5.814616e+00    3.632185e+00
  5.830492e+00    3.613659e+00
  5.846367e+00    3.655248e+00
  5.862243e+00    3.631850e+00
  5.878119e+00    3.595400e+00
  5.893994e+00    3.569645e+00
  5.909870e+00    3.525054e+00
  5.925745e+00    3.584392e+00
  5.941621e+00    3.616395e+00
  5.957497e+00    3.565346e+00
  5.973372e+00    3.534757e+00
  5.989248e+00    3.547656e+00
  6.005123e+00    3.576944e+00
  6.020999e+00    3.577570e+00
  6.036874e+00    3.712117e+00
  6.052750e+00    3.619510e+00
  6.068626e+00    3.529832e+00
  6.084501e+00    3.581522e+00
  6.100377e+00    3.637914e+00
  6.116252e+00    3.716376e+00
  6.132128e+00    3.611332e+00
  6.148003e+00    3.542194e+00
  6.163879e+00    3.557927e+00
  6.179755e+00    3.579432e+00
  6.195630e+00    3.513003e+00
  6.211506e+00    3.567967e+00
  6.227381e+00    3.680160e+00
  6.243257e+00    3.692303e+00
  6.259132e+00    3.641534e+00
  6.275008e+00    3.686463e+00
  6.290884e+00    3.686775e+00
  6.306759e+00    3.673958e+00
  6.322635e+00    3.582129e+00
  6.338510e+00    3.551671e+00
  6.354386e+00    3.587692e+00
  6.370261e+00    3.528737e+00
  6.386137e+00    3.612574e+00
  6.402013e+00    3.566867e+00
  6.417888e+00    3.547727e+00
  6.433764e+00    3.580424e+00
  6.449639e+00    3.548803e+00
  6.465515e+00    3.509880e+00
  6.481390e+00    3.513849e+00
  6.497266e+00    3.567066e+00
  6.513142e+00    3.586611e+00
  6.529017e+00    3.573213e+00
  6.544893e+00    3.558142e+00
  6.560768e+00    3.571471e+00
  6.576644e+00    3.572090e+00
  6.592519e+00    3.618827e+00
  6.608395e+00    3.587176e+00
  6.624271e+00    3.586524e+00
  6.640146e+00    3.654081e+00
  6.656022e+00    3.625745e+00
  6.671897e+00    3.534616e+00
  6.687773e+00    3.544833e+00
  6.703648e+00    3.590839e+00
  6.719524e+00    3.504946e+00
  6.735400e+00    3.456339e+00
  6.751275e+00    3.621212e+00
  6.767151e+00    3.518868e+00
  6.783026e+00    3.509285e+00
  6.798902e+00    3.513069e+00
  6.814777e+00    3.569268e+00
  6.830653e+00    3.588855e+00
  6.846529e+00    3.554685e+00
  6.862404e+00    3.612399e+00
  6.878280e+00    3.572997e+00
  6.894155e+00    3.558848e+00
  6.910031e+00    3.569923e+00
  6.925907e+00    3.538759e+00
  6.941782e+00    3.557714e+00
  6.957658e+00    3.554659e+00
  6.973533e+00    3.618646e+00
  6.989409e+00    3.626827e+00
  7.005284e+00    3.550991e+00
  7.021160e+00    3.572405e+00
  7.037036e+00    3.599612e+00
  7.052911e+00    3.527407e+00
  7.068787e+00    3.549396e+00
  7.084662e+00    3.517771e+00
  7.100538e+00    3.510335e+00
  7.116413e+00    3.539301e+00
  7.132289e+00    3.639056e+00
  7.148165e+00    3.554687e+00
  7.164040e+00    3.480191e+00
  7.179916e+00    3.487846e+00
  7.195791e+00    3.441535e+00
  7.211667e+00    3.501824e+00
  7.227542e+00    3.554601e+00
  7.243418e+00    3.523303e+00
  7.259294e+00    3.496561e+00
  7.275169e+00    3.573436e+00
  7.291045e+00    3.570225e+00
  7.306920e+00    3.483901e+00
  7.322796e+00    3.513571e+00
  7.338671e+00    3.555853e+00
  7.354547e+00    3.564831e+00
  7.370423e+00    3.577643e+00
  7.386298e+00    3.537891e+00
  7.402174e+00    3.526065e+00
  7.418049e+00    3.489080e+00
  7.433925e+00    3.413649e+00
  7.449800e+00    3.434617e+00
  7.465676e+00    3.468742e+00
  7.481552e+00    3.522223e+00
  7.497427e+00    3.502812e+00
  7.513303e+00    3.519529e+00
  7.529178e+00    3.470011e+00
  7.545054e+00    3.445996e+00
  7.560929e+00    3.491036e+00
  7.576805e+00    3.503553e+00
  7.592681e+00    3.521835e+00
  7.608556e+00    3.481417e+00
  7.624432e+00    3.533783e+00
  7.640307e+00    3.538661e+00
  7.656183e+00    3.562804e+00
  7.672058e+00    3.462256e+00
  7.687934e+00    3.432203e+00
  7.703810e+00    3.539558e+00
  7.719685e+00    3.545304e+00
  7.735561e+00    3.486340e+00
  7.751436e+00    3.438770e+00
  7.767312e+00    3.466583e+00
  7.783187e+00    3.484424e+00
  7.799063e+00    3.490698e+00
  7.814939e+00    3.450161e+00
  7.830814e+00    3.476947e+00
  7.846690e+00    3.476177e+00
  7.862565e+00    3.481354e+00
  7.878441e+00    3.426724e+00
  7.894317e+00    3.410391e+00
  7.910192e+00    3.473192e+00
  7.926068e+00    3.487890e+00
  7.941943e+00    3.503627e+00
  7.957819e+00    3.476259e+00
  7.973694e+00    3.411695e+00
  7.989570e+00    3.378510e+00
  8.005446e+00    3.427925e+00
  8.021321e+00    3.403645e+00
  8.037197e+00    3.408524e+00
  8.053072e+00    3.419587e+00
  8.068948e+00    3.434615e+00
  8.084823e+00    3.487317e+00
  8.100699e+00    3.487963e+00
  8.116575e+00    3.505420e+00
  8.132450e+00    3.457397e+00
  8.148326e+00    3.506379e+00
  8.164201e+00    3.517697e+00
  8.180077e+00    3.500714e+00
  8.195952e+00    3.482616e+00
  8.211828e+00    3.487686e+00
  8.227704e+00    3.468864e+00
  8.243579e+00    3.485863e+00
  8.259455e+00    3.543157e+00
  8.275330e+00    3.460935e+00
  8.291206e+00    3.392745e+00
  8.307081e+00    3.492546e+00
  8.322957e+00    3.511229e+00
  8.338833e+00    3.444234e+00
  8.354708e+00    3.438306e+00
  8.370584e+00    3.368830e+00
  8.386459e+00    3.321871e+00
  8.402335e+00    3.389201e+00
  8.418210e+00    3.387088e+00
  8.434086e+00    3.416891e+00
  8.449962e+00    3.387641e+00
  8.465837e+00    3.406151e+00
  8.481713e+00    3.384339e+00
  8.497588e+00    3.403854e+00
  8.513464e+00    3.411396e+00
  8.529339e+00    3.427378e+00
  8.545215e+00    3.386508e+00
  8.561091e+00    3.374032e+00
  8.576966e+00    3.406793e+00
  8.592842e+00    3.362733e+00
  8.608717e+00    3.346500e+00
  8.624593e+00    3.332319e+00
  8.640468e+00    3.344489e+00
  8.656344e+00    3.333272e+00
  8.672220e+00    3.330379e+00
  8.688095e+00    3.362798e+00
  8.703971e+00    3.311103e+00
  8.719846e+00    3.351631e+00
  8.735722e+00    3.339819e+00
  8.751598e+00    3.350186e+00
  8.767473e+00    3.364773e+00
  8.783349e+00    3.309215e+00
  8.799224e+00    3.280394e+00
  8.815100e+00    3.329874e+00
  8.830975e+00    3.337512e+00
  8.846851e+00    3.315185e+00
  8.862727e+00    3.325620e+00
  8.878602e+00    3.288686e+00
  8.894478e+00    3.325741e+00
  8.910353e+00    3.325354e+00
  8.926229e+00    3.352053e+00
  8.942104e+00    3.325479e+00
  8.957980e+00    3.329228e+00
  8.973856e+00    3.337892e+00
  8.989731e+00    3.321457e+00
  9.005607e+00    3.304389e+00
  9.021482e+00    3.326751e+00
  9.037358e+00    3.326650e+00
  9.053233e+00    3.351252e+00
  9.069109e+00    3.310824e+00
  9.084985e+00    3.261782e+00
  9.100860e+00    3.275975e+00
  9.116736e+00    3.313165e+00
  9.132611e+00    3.304184e+00
  9.148487e+00    3.286018e+00
  9.164362e+00    3.285236e+00
  9.180238e+00    3.291903e+00
  9.196114e+00    3.277619e+00
  9.211989e+00    3.272988e+00
  9.227865e+00    3.307332e+00
  9.243740e+00    3.327312e+00
  9.259616e+00    3.335092e+00
  9.275491e+00    3.203122e+00
  9.291367e+00    3.249354e+00
  9.307243e+00    3.248527e+00
  9.323118e+00    3.230901e+00
  9.338994e+00    3.228174e+00
  9.354869e+00    3.229595e+00
  9.370745e+00    3.225777e+00
  9.386620e+00    3.199864e+00
  9.402496e+00    3.224909e+00
  9.418372e+00    3.250313e+00
  9.434247e+00    3.253706e+00
  9.450123e+00    3.209803e+00
  9.465998e+00    3.184321e+00
  9.481874e+00    3.235614e+00
  9.497749e+00    3.254792e+00
  9.513625e+00    3.256405e+00
  9.529501e+00    3.222457e+00
  9.545376e+00    3.246614e+00
  9.561252e+00    3.271496e+00
  9.577127e+00    3.249913e+00
  9.593003e+00    3.265414e+00
  9.608878e+00    3.253600e+00
  9.624754e+00    3.229702e+00
  9.640630e+00    3.274427e+00
  9.656505e+00    3.254986e+00
  9.672381e+00    3.241610e+00
  9.688256e+00    3.191892e+00
  9.704132e+00    3.163067e+00
  9.720008e+00    3.147439e+00
  9.735883e+00    3.184792e+00
  9.751759e+00    3.202698e+00
  9.767634e+00    3.176710e+00
  9.783510e+00    3.203595e+00
  9.799385e+00    3.215884e+00
  9.815261e+00    3.226725e+00
  9.831137e+00    3.202949e+00
  9.847012e+00    3.191448e+00
  9.862888e+00    3.194566e+00
  9.878763e+00    3.258583e+00
  9.894639e+00    3.165085e+00
  9.910514e+00    3.159457e+00
  9.926390e+00    3.194920e+00
  9.942266e+00    3.161442e+00
  9.958141e+00    3.130580e+00
  9.974017e+00    3.121325e+00
  9.989892e+00    3.161100e+00
  1.000577e+01    3.120338e+00
  1.002164e+01    3.108258e+00
  1.003752e+01    3.150972e+00
  1.005339e+01    3.175503e+00
  1.006927e+01    3.156064e+00
  1.008515e+01    3.149905e+00
  1.010102e+01    3.175144e+00
  1.011690e+01    3.150378e+00
  1.013277e+01    3.098612e+00
  1.014865e+01    3.116355e+00
  1.016452e+01    3.098792e+00
  1.018040e+01    3.167090e+00
  1.019627e+01    3.119516e+00
  1.021215e+01    3.111478e+00
  1.022803e+01    3.064788e+00
  1.024390e+01    3.067041e+00
  1.025978e+01    3.138053e+00
  1.027565e+01    3.105153e+00
  1.029153e+01    3.103837e+00
  1.030740e+01    3.081241e+00
  1.032328e+01    3.084458e+00
  1.033915e+01    3.084114e+00
  1.035503e+01    3.043813e+00
  1.037091e+01    3.028330e+00
  1.038678e+01    3.057410e+00
  1.040266e+01    3.045414e+00
  1.041853e+01    3.120109e+00
  1.043441e+01    3.107223e+00
  1.045028e+01    3.038771e+00
  1.046616e+01    3.038612e+00
  1.048204e+01    3.016997e+00
  1.049791e+01    3.025398e+00
  1.051379e+01    3.041033e+00
  1.052966e+01    3.077658e+00
  1.054554e+01    3.028432e+00
  1.056141e+01    2.982097e+00
  1.057729e+01    2.994183e+00
  1.059316e+01    2.985543e+00
  1.060904e+01    2.998198e+00
  1.062492e+01    3.023871e+00
  1.064079e+01    3.029390e+00
  1.065667e+01    3.013657e+00
  1.067254e+01    3.015260e+00
  1.068842e+01    3.063398e+00
  1.070429e+01    3.032211e+00
  1.072017e+01    3.038343e+00
  1.073604e+01    2.997887e+00
  1.075192e+01    2.986675e+00
  1.076780e+01    3.026114e+00
  1.078367e+01    3.051772e+00
  1.079955e+01    3.004697e+00
  1.081542e+01    2.939017e+00
  1.083130e+01    2.978691e+00
  1.084717e+01    2.952305e+00
  1.086305e+01    2.930587e+00
  1.087892e+01    3.001940e+00
  1.089480e+01    3.006834e+00
  1.091068e+01    2.979305e+00
  1.092655e+01    2.988604e+00
  1.094243e+01    2.944769e+00
  1.095830e+01    2.962956e+00
  1.097418e+01    2.924796e+00
  1.099005e+01    2.899452e+00
  1.100593e+01    2.914520e+00
  1.102180e+01    2.918316e+00
  1.103768e+01    2.903206e+00
  1.105356e+01    2.903395e+00
  1.106943e+01    2.972598e+00
  1.108531e+01    2.958897e+00
  1.110118e+01    2.875311e+00
  1.111706e+01    2.914074e+00
  1.113293e+01    2.955760e+00
  1.114881e+01    2.911689e+00
  1.116468e+01    2.887736e+00
  1.118056e+01    2.863276e+00
  1.119644e+01    2.849778e+00
  1.121231e+01    2.860566e+00
  1.122819e+01    2.830712e+00
  1.124406e+01    2.882333e+00
  1.125994e+01    2.908791e+00
  1.127581e+01    2.880261e+00
  1.129169e+01    2.878471e+00
  1.130756e+01    2.891754e+00
  1.132344e+01    2.852238e+00
  1.133932e+01    2.824580e+00
  1.135519e+01    2.832266e+00
  1.137107e+01    2.803260e+00
  1.138694e+01    2.802799e+00
  1.140282e+01    2.833579e+00
  1.141869e+01    2.829945e+00
  1.143457e+01    2.798078e+00
  1.145045e+01    2.806898e+00
  1.146632e+01    2.813707e+00
  1.148220e+01    2.844705e+00
  1.149807e+01    2.896287e+00
  1.151395e+01    2.826805e+00
  1.152982e+01    2.801706e+00
  1.154570e+01    2.851408e+00
  1.156157e+01    2.818004e+00
  1.157745e+01    2.852814e+00
  1.159333e+01    2.823597e+00
  1.160920e+01    2.803307e+00
  1.162508e+01    2.845591e+00
  1.164095e+01    2.831384e+00
  1.165683e+01    2.782762e+00
  1.167270e+01    2.814287e+00
  1.168858e+01    2.767325e+00
  1.170445e+01    2.784742e+00
  1.172033e+01    2.826625e+00
  1.173621e+01    2.804376e+00
  1.175208e+01    2.729784e+00
  1.176796e+01    2.786066e+00
  1.178383e+01    2.846296e+00
  1.179971e+01    2.782697e+00
  1.181558e+01    2.731734e+00
  1.183146e+01    2.792090e+00
  1.184733e+01    2.801081e+00
  1.186321e+01    2.754666e+00
  1.187909e+01    2.778479e+00
  1.189496e+01    2.726763e+00
  1.191084e+01    2.752820e+00
  1.192671e+01    2.789776e+00
  1.194259e+01    2.728837e+00
  1.195846e+01    2.707697e+00
  1.197434e+01    2.697090e+00
  1.199021e+01    2.670627e+00
  1.200609e+01    2.711492e+00
  1.202197e+01    2.756151e+00
  1.203784e+01    2.758040e+00
  1.205372e+01    2.747044e+00
  1.206959e+01    2.708889e+00
  1.208547e+01    2.730566e+00
  1.210134e+01    2.747531e+00
  1.211722e+01    2.713240e+00
  1.213309e+01    2.712227e+00
  1.214897e+01    2.720639e+00
  1.216485e+01    2.713289e+00
  1.218072e+01    2.705739e+00
  1.219660e+01    2.730384e+00
  1.221247e+01    2.704114e+00
  1.222835e+01    2.754567e+00
  1.224422e+01    2.727630e+00
  1.226010e+01    2.693141e+00
  1.227597e+01    2.729787e+00
  1.229185e+01    2.729791e+00
  1.230773e+01    2.721987e+00
  1.232360e+01    2.744484e+00
  1.233948e+01    2.712408e+00
  1.235535e+01    2.697317e+00
  1.237123e+01    2.720546e+00
  1.238710e+01    2.713756e+00
  1.240298e+01    2.696188e+00
  1.241886e+01    2.749659e+00
  1.243473e+01    2.761467e+00
  1.245061e+01    2.724650e+00
  1.246648e+01    2.701049e+00
  1.248236e+01    2.734125e+00
  1.249823e+01    2.754452e+00
  1.251411e+01    2.715049e+00
  1.252998e+01    2.720338e+00
  1.254586e+01    2.794617e+00
  1.256174e+01    2.779787e+00
  1.257761e+01    2.805927e+00
  1.259349e+01    2.793030e+00
  1.260936e+01    2.788249e+00
  1.262524e+01    2.789912e+00
  1.264111e+01    2.794580e+00
  1.265699e+01    2.790784e+00
  1.267286e+01    2.834620e+00
  1.268874e+01    2.889713e+00
  1.270462e+01    2.861554e+00
  1.272049e+01    2.864645e+00
  1.273637e+01    2.837527e+00
  1.275224e+01    2.893943e+00
  1.276812e+01    2.936793e+00
  1.278399e+01    2.979754e+00
  1.279987e+01    3.054886e+00
  1.281574e+01    3.107294e+00
  1.283162e+01    3.167115e+00
  1.284750e+01    3.294314e+00
  1.286337e+01    3.358500e+00
  1.287925e+01    3.395290e+00
  1.289512e+01    3.489366e+00
  1.291100e+01    3.727967e+00
  1.292687e+01    3.951354e+00
  1.294275e+01    4.144751e+00
  1.295862e+01    4.442777e+00
  1.297450e+01    4.816877e+00
  1.299038e+01    5.291473e+00
  1.300625e+01    6.026952e+00
  1.302213e+01    6.813809e+00
  1.303800e+01    7.758357e+00
  1.305388e+01    8.973537e+00
  1.306975e+01    1.023480e+01
  1.308563e+01    1.154399e+01
  1.310150e+01    1.278298e+01
  1.311738e+01    1.389600e+01
  1.313326e+01    1.504159e+01
  1.314913e+01    1.589158e+01
  1.316501e+01    1.636358e+01
  1.318088e+01    1.648455e+01
  1.319676e+01    1.584006e+01
  1.321263e+01    1.434690e+01
  1.322851e+01    1.248794e+01
  1.324438e+01    1.073498e+01
  1.326026e+01    9.221879e+00
  1.327614e+01    7.877244e+00
  1.329201e+01    6.877841e+00
  1.330789e+01    5.991433e+00
  1.332376e+01    5.353504e+00
  1.333964e+01    4.878717e+00
  1.335551e+01    4.481035e+00
  1.337139e+01    4.152901e+00
  1.338727e+01    3.865676e+00
  1.340314e+01    3.679950e+00
  1.341902e+01    3.505026e+00
  1.343489e+01    3.341006e+00
  1.345077e+01    3.231550e+00
  1.346664e+01    3.153165e+00
  1.348252e+01    3.057027e+00
  1.349839e+01    3.005769e+00
  1.351427e+01    2.924881e+00
  1.353015e+01    2.878684e+00
  1.354602e+01    2.838249e+00
  1.356190e+01    2.824032e+00
  1.357777e+01    2.795976e+00
  1.359365e+01    2.716295e+00
  1.360952e+01    2.705949e+00
  1.362540e+01    2.668630e+00
  1.364127e+01    2.657684e+00
  1.365715e+01    2.640514e+00
  1.367303e+01    2.636851e+00
  1.368890e+01    2.589236e+00
  1.370478e+01    2.582547e+00
  1.372065e+01    2.507458e+00
  1.373653e+01    2.563331e+00
  1.375240e+01    2.538427e+00
  1.376828e+01    2.552613e+00
  1.378415e+01    2.526891e+00
  1.380003e+01    2.516635e+00
  1.381591e+01    2.487740e+00
  1.383178e+01    2.468619e+00
  1.384766e+01    2.462907e+00
  1.386353e+01    2.409077e+00
  1.387941e+01    2.411923e+00
  1.389528e+01    2.422963e+00
  1.391116e+01    2.430276e+00
  1.392703e+01    2.420295e+00
  1.394291e+01    2.365961e+00
  1.395879e+01    2.427154e+00
  1.397466e+01    2.462773e+00
  1.399054e+01    2.418197e+00
  1.400641e+01    2.387877e+00
  1.402229e+01    2.383590e+00
  1.403816e+01    2.397428e+00
  1.405404e+01    2.359312e+00
  1.406991e+01    2.337402e+00
  1.408579e+01    2.339476e+00
  1.410167e+01    2.334923e+00
  1.411754e+01    2.318462e+00
  1.413342e+01    2.335779e+00
  1.414929e+01    2.330811e+00
  1.416517e+01    2.314399e+00
  1.418104e+01    2.360253e+00
  1.419692e+01    2.324193e+00
  1.421279e+01    2.287743e+00
  1.422867e+01    2.283903e+00
  1.424455e+01    2.299521e+00
  1.426042e+01    2.315941e+00
  1.427630e+01    2.278801e+00
  1.429217e+01    2.294003e+00
  1.430805e+01    2.276689e+00
  1.432392e+01    2.262301e+00
  1.433980e+01    2.251135e+00
  1.435568e+01    2.252157e+00
  1.437155e+01    2.284862e+00
  1.438743e+01    2.293013e+00
  1.440330e+01    2.259573e+00
  1.441918e+01    2.258290e+00
  1.443505e+01    2.264384e+00
  1.445093e+01    2.235245e+00
  1.446680e+01    2.259684e+00
  1.448268e+01    2.264493e+00
  1.449856e+01    2.238377e+00
  1.451443e+01    2.227759e+00
  1.453031e+01    2.237081e+00
  1.454618e+01    2.271888e+00
  1.456206e+01    2.277538e+00
  1.457793e+01    2.231838e+00
  1.459381e+01    2.216762e+00
  1.460968e+01    2.239495e+00
  1.462556e+01    2.247221e+00
  1.464144e+01    2.251379e+00
  1.465731e+01    2.276892e+00
  1.467319e+01    2.229586e+00
  1.468906e+01    2.235737e+00
  1.470494e+01    2.215755e+00
  1.472081e+01    2.182343e+00
  1.473669e+01    2.205841e+00
  1.475256e+01    2.205187e+00
  1.476844e+01    2.222072e+00
  1.478432e+01    2.227875e+00
  1.480019e+01    2.218337e+00
  1.481607e+01    2.212730e+00
  1.483194e+01    2.230550e+00
  1.484782e+01    2.276392e+00
  1.486369e+01    2.241184e+00
  1.487957e+01    2.219131e+00
  1.489544e+01    2.257988e+00
  1.491132e+01    2.246168e+00
  1.492720e+01    2.213660e+00
  1.494307e+01    2.265118e+00
  1.495895e+01    2.317744e+00
  1.497482e+01    2.376320e+00
  1.499070e+01    2.405903e+00
  1.500657e+01    2.451228e+00
  1.502245e+01    2.547338e+00
  1.503832e+01    2.615526e+00
  1.505420e+01    2.735948e+00
  1.507008e+01    2.823661e+00
  1.508595e+01    2.978224e+00
  1.510183e+01    3.223657e+00
  1.511770e+01    3.512537e+00
  1.513358e+01    3.834462e+00
  1.514945e+01    4.165454e+00
  1.516533e+01    4.549848e+00
  1.518120e+01    4.989808e+00
  1.519708e+01    5.246351e+00
  1.521296e+01    5.491433e+00
  1.522883e+01    5.629073e+00
  1.524471e+01    5.791411e+00
  1.526058e+01    5.847034e+00
  1.527646e+01    5.698723e+00
  1.529233e+01    5.595355e+00
  1.530821e+01    5.261952e+00
  1.532409e+01    4.657396e+00
  1.533996e+01    4.177989e+00
  1.535584e+01    3.774260e+00
  1.537171e+01    3.426514e+00
  1.538759e+01    3.124004e+00
  1.540346e+01    2.959913e+00
  1.541934e+01    2.785229e+00
  1.543521e+01    2.618163e+00
  1.545109e+01    2.547053e+00
  1.546697e+01    2.472568e+00
  1.548284e+01    2.375239e+00
  1.549872e+01    2.306289e+00
  1.551459e+01    2.276178e+00
  1.553047e+01    2.207526e+00
  1.554634e+01    2.164576e+00
  1.556222e+01    2.132254e+00
  1.557809e+01    2.126512e+00
  1.559397e+01    2.120989e+00
  1.560985e+01    2.084542e+00
  1.562572e+01    2.027191e+00
  1.564160e+01    2.036274e+00
  1.565747e+01    2.059811e+00
  1.567335e+01    2.063107e+00
  1.568922e+01    2.038455e+00
  1.570510e+01    2.013301e+00
  1.572097e+01    2.038384e+00
  1.573685e+01    2.034171e+00
  1.575273e+01    1.994392e+00
  1.576860e+01    1.996331e+00
  1.578448e+01    1.977280e+00
  1.580035e+01    1.949770e+00
  1.581623e+01    1.955899e+00
  1.583210e+01    1.944138e+00
  1.584798e+01    1.935154e+00
  1.586385e+01    1.934103e+00
  1.587973e+01    1.943395e+00
  1.589561e+01    1.932905e+00
  1.591148e+01    1.901508e+00
  1.592736e+01    1.900675e+00
  1.594323e+01    1.900975e+00
  1.595911e+01    1.871498e+00
  1.597498e+01    1.914632e+00
  1.599086e+01    1.909141e+00
  1.600673e+01    1.894485e+00
  1.602261e+01    1.879875e+00
  1.603849e+01    1.884260e+00
  1.605436e+01    1.883721e+00
  1.607024e+01    1.853884e+00
  1.608611e+01    1.831565e+00
  1.610199e+01    1.857554e+00
  1.611786e+01    1.861248e+00
  1.613374e+01    1.843321e+00
  1.614961e+01    1.833364e+00
  1.616549e+01    1.817933e+00
  1.618137e+01    1.861593e+00
  1.619724e+01    1.854502e+00
  1.621312e+01    1.801270e+00
  1.622899e+01    1.812851e+00
  1.624487e+01    1.816356e+00
  1.626074e+01    1.856499e+00
  1.627662e+01    1.821411e+00
  1.629250e+01    1.803623e+00
  1.630837e+01    1.788882e+00
  1.632425e+01    1.794841e+00
  1.634012e+01    1.785501e+00
  1.635600e+01    1.824774e+00
  1.637187e+01    1.819676e+00
  1.638775e+01    1.805977e+00
  1.640362e+01    1.828674e+00
  1.641950e+01    1.816636e+00
  1.643538e+01    1.807847e+00
  1.645125e+01    1.787763e+00
  1.646713e+01    1.762659e+00
  1.648300e+01    1.756258e+00
  1.649888e+01    1.789318e+00
  1.651475e+01    1.756177e+00
  1.653063e+01    1.726625e+00
  1.654650e+01    1.738401e+00
  1.656238e+01    1.748406e+00
  1.657826e+01    1.754398e+00
  1.659413e+01    1.750949e+00
  1.661001e+01    1.752003e+00
  1.662588e+01    1.744556e+00
  1.664176e+01    1.725944e+00
  1.665763e+01    1.726190e+00
  1.667351e+01    1.699508e+00
  1.668938e+01    1.704784e+00
  1.670526e+01    1.717257e+00
  1.672114e+01    1.738922e+00
  1.673701e+01    1.736787e+00
  1.675289e+01    1.717375e+00
  1.676876e+01    1.700015e+00
  1.678464e+01    1.685757e+00
  1.680051e+01    1.692309e+00
  1.681639e+01    1.709849e+00
  1.683226e+01    1.717183e+00
  1.684814e+01    1.670450e+00
  1.686402e+01    1.697755e+00
  1.687989e+01    1.732907e+00
  1.689577e+01    1.712639e+00
  1.691164e+01    1.690184e+00
  1.692752e+01    1.693825e+00
  1.694339e+01    1.694788e+00
  1.695927e+01    1.677987e+00
  1.697514e+01    1.689732e+00
  1.699102e+01    1.685336e+00
  1.700690e+01    1.703995e+00
  1.702277e+01    1.655000e+00
  1.703865e+01    1.664879e+00
  1.705452e+01    1.690842e+00
  1.707040e+01    1.650964e+00
  1.708627e+01    1.675311e+00
  1.710215e+01    1.678784e+00
  1.711802e+01    1.640559e+00
  1.713390e+01    1.630634e+00
  1.714978e+01    1.640943e+00
  1.716565e+01    1.665556e+00
  1.718153e+01    1.653241e+00
  1.719740e+01    1.647745e+00
  1.721328e+01    1.662285e+00
  1.722915e+01    1.655929e+00
  1.724503e+01    1.629048e+00
  1.726091e+01    1.621348e+00
  1.727678e+01    1.645588e+00
  1.729266e+01    1.606300e+00
  1.730853e+01    1.625040e+00
  1.732441e+01    1.599178e+00
  1.734028e+01    1.600869e+00
  1.735616e+01    1.597115e+00
  1.737203e+01    1.606595e+00
  1.738791e+01    1.583033e+00
  1.740379e+01    1.568109e+00
  1.741966e+01    1.600479e+00
  1.743554e+01    1.624120e+00
  1.745141e+01    1.606220e+00
  1.746729e+01    1.610746e+00
  1.748316e+01    1.602807e+00
  1.749904e+01    1.566715e+00
  1.751491e+01    1.583368e+00
  1.753079e+01    1.587697e+00
  1.754667e+01    1.562439e+00
  1.756254e+01    1.581065e+00
  1.757842e+01    1.607950e+00
  1.759429e+01    1.592123e+00
  1.761017e+01    1.568065e+00
  1.762604e+01    1.538146e+00
  1.764192e+01    1.565853e+00
  1.765779e+01    1.576184e+00
  1.767367e+01    1.575643e+00
  1.768955e+01    1.593584e+00
  1.770542e+01    1.551500e+00
  1.772130e+01    1.565419e+00
  1.773717e+01    1.563118e+00
  1.775305e+01    1.556749e+00
  1.776892e+01    1.559658e+00
  1.778480e+01    1.557441e+00
  1.780067e+01    1.573476e+00
  1.781655e+01    1.556295e+00
  1.783243e+01    1.550471e+00
  1.784830e+01    1.513629e+00
  1.786418e+01    1.562771e+00
  1.788005e+01    1.537309e+00
  1.789593e+01    1.550352e+00
  1.791180e+01    1.568029e+00
  1.792768e+01    1.533888e+00
  1.794355e+01    1.540988e+00
  1.795943e+01    1.553162e+00
  1.797531e+01    1.536705e+00
  1.799118e+01    1.525234e+00
  1.800706e+01    1.528090e+00
  1.802293e+01    1.515453e+00
  1.803881e+01    1.503210e+00
  1.805468e+01    1.520012e+00
  1.807056e+01    1.499830e+00
  1.808643e+01    1.495908e+00
  1.810231e+01    1.514341e+00
  1.811819e+01    1.519934e+00
  1.813406e+01    1.480472e+00
  1.814994e+01    1.479735e+00
  1.816581e+01    1.493263e+00
  1.818169e+01    1.463021e+00
  1.819756e+01    1.497879e+00
  1.821344e+01    1.495928e+00
  1.822932e+01    1.499314e+00
  1.824519e+01    1.493201e+00
  1.826107e+01    1.482405e+00
  1.827694e+01    1.484542e+00
  1.829282e+01    1.500056e+00
  1.830869e+01    1.496979e+00
  1.832457e+01    1.482842e+00
  1.834044e+01    1.473283e+00
  1.835632e+01    1.466488e+00
  1.837220e+01    1.479718e+00
  1.838807e+01    1.465707e+00
  1.840395e+01    1.452339e+00
  1.841982e+01    1.490097e+00
  1.843570e+01    1.497866e+00
  1.845157e+01    1.469235e+00
  1.846745e+01    1.482031e+00
  1.848332e+01    1.466149e+00
  1.849920e+01    1.461252e+00
  1.851508e+01    1.479714e+00
  1.853095e+01    1.449426e+00
  1.854683e+01    1.440369e+00
  1.856270e+01    1.470758e+00
  1.857858e+01    1.456006e+00
  1.859445e+01    1.422965e+00
  1.861033e+01    1.440595e+00
  1.862620e+01    1.427997e+00
  1.864208e+01    1.444073e+00
  1.865796e+01    1.451658e+00
  1.867383e+01    1.446654e+00
  1.868971e+01    1.463336e+00
  1.870558e+01    1.452132e+00
  1.872146e+01    1.426341e+00
  1.873733e+01    1.429492e+00
  1.875321e+01    1.431622e+00
  1.876908e+01    1.424480e+00
  1.878496e+01    1.431409e+00
  1.880084e+01    1.419068e+00
  1.881671e+01    1.415908e+00
  1.883259e+01    1.440345e+00
  1.884846e+01    1.406950e+00
  1.886434e+01    1.435881e+00
  1.888021e+01    1.395972e+00
  1.889609e+01    1.380959e+00
  1.891196e+01    1.397389e+00
  1.892784e+01    1.396847e+00
  1.894372e+01    1.417302e+00
  1.895959e+01    1.417894e+00
  1.897547e+01    1.421189e+00
  1.899134e+01    1.395823e+00
  1.900722e+01    1.377769e+00
  1.902309e+01    1.399166e+00
  1.903897e+01    1.400356e+00
  1.905484e+01    1.409207e+00
  1.907072e+01    1.397372e+00
  1.908660e+01    1.388456e+00
  1.910247e+01    1.414513e+00
  1.911835e+01    1.374420e+00
  1.913422e+01    1.382893e+00
  1.915010e+01    1.383600e+00
  1.916597e+01    1.388596e+00
  1.918185e+01    1.373107e+00
  1.919773e+01    1.351642e+00
  1.921360e+01    1.387239e+00
  1.922948e+01    1.383097e+00
  1.924535e+01    1.376827e+00
  1.926123e+01    1.348778e+00
  1.927710e+01    1.378433e+00
  1.929298e+01    1.381930e+00
  1.930885e+01    1.382888e+00
  1.932473e+01    1.353069e+00
  1.934061e+01    1.360453e+00
  1.935648e+01    1.365479e+00
  1.937236e+01    1.359176e+00
  1.938823e+01    1.352419e+00
  1.940411e+01    1.345162e+00
  1.941998e+01    1.360195e+00
  1.943586e+01    1.348093e+00
  1.945173e+01    1.322613e+00
  1.946761e+01    1.341645e+00
  1.948349e+01    1.338086e+00
  1.949936e+01    1.322358e+00
  1.951524e+01    1.336514e+00
  1.953111e+01    1.342723e+00
  1.954699e+01    1.336083e+00
  1.956286e+01    1.347651e+00
  1.957874e+01    1.330044e+00
  1.959461e+01    1.339206e+00
  1.961049e+01    1.321653e+00
  1.962637e+01    1.320520e+00
  1.964224e+01    1.315782e+00
  1.965812e+01    1.321131e+00
  1.967399e+01    1.338775e+00
  1.968987e+01    1.314625e+00
  1.970574e+01    1.338168e+00
  1.972162e+01    1.354118e+00
  1.973749e+01    1.328969e+00
  1.975337e+01    1.310689e+00
  1.976925e+01    1.294624e+00
  1.978512e+01    1.312090e+00
  1.980100e+01    1.310035e+00
  1.981687e+01    1.302474e+00
  1.983275e+01    1.305583e+00
  1.984862e+01    1.303859e+00
  1.986450e+01    1.301734e+00
  1.988037e+01    1.303226e+00
  1.989625e+01    1.302200e+00
  1.991213e+01    1.307280e+00
  1.992800e+01    1.318068e+00
  1.994388e+01    1.291039e+00
  1.995975e+01    1.287494e+00
  1.997563e+01    1.279735e+00
  1.999150e+01    1.281514e+00
  2.000738e+01    1.282654e+00
  2.002325e+01    1.303122e+00
  2.003913e+01    1.274760e+00
  2.005501e+01    1.282617e+00
  2.007088e+01    1.271157e+00
  2.008676e+01    1.275876e+00
  2.010263e+01    1.292329e+00
  2.011851e+01    1.298202e+00
  2.013438e+01    1.305372e+00
  2.015026e+01    1.312665e+00
  2.016614e+01    1.285792e+00
  2.018201e+01    1.260324e+00
  2.019789e+01    1.268627e+00
  2.021376e+01    1.262464e+00
  2.022964e+01    1.261736e+00
  2.024551e+01    1.271839e+00
  2.026139e+01    1.275924e+00
  2.027726e+01    1.271214e+00
  2.029314e+01    1.277076e+00
  2.030902e+01    1.306758e+00
  2.032489e+01    1.280366e+00
  2.034077e+01    1.257733e+00
  2.035664e+01    1.241891e+00
  2.037252e+01    1.244041e+00
  2.038839e+01    1.252760e+00
  2.040427e+01    1.282609e+00
  2.042014e+01    1.250860e+00
  2.043602e+01    1.236133e+00
  2.045190e+01    1.237713e+00
  2.046777e+01    1.261555e+00
  2.048365e+01    1.258392e+00
  2.049952e+01    1.246339e+00
  2.051540e+01    1.241822e+00
  2.053127e+01    1.263559e+00
  2.054715e+01    1.284149e+00
  2.056302e+01    1.269201e+00
  2.057890e+01    1.256980e+00
  2.059478e+01    1.245466e+00
  2.061065e+01    1.245946e+00
  2.062653e+01    1.258942e+00
  2.064240e+01    1.232785e+00
  2.065828e+01    1.234006e+00
  2.067415e+01    1.234334e+00
  2.069003e+01    1.237016e+00
  2.070590e+01    1.220692e+00
  2.072178e+01    1.217710e+00
  2.073766e+01    1.230234e+00
  2.075353e+01    1.235003e+00
  2.076941e+01    1.215983e+00
  2.078528e+01    1.225709e+00
  2.080116e+01    1.199782e+00
  2.081703e+01    1.225653e+00
  2.083291e+01    1.248965e+00
  2.084878e+01    1.256092e+00
  2.086466e+01    1.218284e+00
  2.088054e+01    1.242060e+00
  2.089641e+01    1.253189e+00
  2.091229e+01    1.232456e+00
  2.092816e+01    1.227651e+00
  2.094404e+01    1.233335e+00
  2.095991e+01    1.237844e+00
  2.097579e+01    1.237371e+00
  2.099166e+01    1.203083e+00
  2.100754e+01    1.211330e+00
  2.102342e+01    1.239194e+00
  2.103929e+01    1.232549e+00
  2.105517e+01    1.227002e+00
  2.107104e+01    1.233449e+00
  2.108692e+01    1.255334e+00
  2.110279e+01    1.241493e+00
  2.111867e+01    1.234766e+00
  2.113455e+01    1.234231e+00
  2.115042e+01    1.233638e+00
  2.116630e+01    1.254918e+00
  2.118217e+01    1.259233e+00
  2.119805e+01    1.238680e+00
  2.121392e+01    1.239325e+00
  2.122980e+01    1.231342e+00
  2.124567e+01    1.239414e+00
  2.126155e+01    1.242716e+00
  2.127743e+01    1.248380e+00
  2.129330e+01    1.281085e+00
  2.130918e+01    1.264752e+00
  2.132505e+01    1.285058e+00
  2.134093e+01    1.263083e+00
  2.135680e+01    1.310954e+00
  2.137268e+01    1.333679e+00
  2.138855e+01    1.313811e+00
  2.140443e+01    1.324163e+00
  2.142031e+01    1.354324e+00
  2.143618e+01    1.372755e+00
  2.145206e+01    1.370818e+00
  2.146793e+01    1.413602e+00
  2.148381e+01    1.390593e+00
  2.149968e+01    1.437259e+00
  2.151556e+01    1.452463e+00
  2.153143e+01    1.474162e+00
  2.154731e+01    1.513943e+00
  2.156319e+01    1.560551e+00
  2.157906e+01    1.622483e+00
  2.159494e+01    1.701427e+00
  2.161081e+01    1.801215e+00
  2.162669e+01    1.884021e+00
  2.164256e+01    1.980946e+00
  2.165844e+01    2.093690e+00
  2.167431e+01    2.275485e+00
  2.169019e+01    2.513088e+00
  2.170607e+01    2.785487e+00
  2.172194e+01    3.154716e+00
  2.173782e+01    3.586592e+00
  2.175369e+01    4.097392e+00
  2.176957e+01    4.666045e+00
  2.178544e+01    5.267773e+00
  2.180132e+01    5.871823e+00
  2.181719e+01    6.626287e+00
  2.183307e+01    7.246793e+00
  2.184895e+01    7.914713e+00
  2.186482e+01    8.491703e+00
  2.188070e+01    8.871990e+00
  2.189657e+01    8.983239e+00
  2.191245e+01    8.784140e+00
  2.192832e+01    8.262762e+00
  2.194420e+01    7.513817e+00
  2.196007e+01    6.556128e+00
  2.197595e+01    5.688967e+00
  2.199183e+01    4.922004e+00
  2.200770e+01    4.270007e+00
  2.202358e+01    3.653931e+00
  2.203945e+01    3.214380e+00
  2.205533e+01    2.869810e+00
  2.207120e+01    2.570019e+00
  2.208708e+01    2.343562e+00
  2.210296e+01    2.139178e+00
  2.211883e+01    1.989844e+00
  2.213471e+01    1.841355e+00
  2.215058e+01    1.787284e+00
  2.216646e+01    1.709098e+00
  2.218233e+01    1.607214e+00
  2.219821e+01    1.523577e+00
  2.221408e+01    1.475653e+00
  2.222996e+01    1.458421e+00
  2.224584e+01    1.414076e+00
  2.226171e+01    1.357902e+00
  2.227759e+01    1.367033e+00
  2.229346e+01    1.319861e+00
  2.230934e+01    1.309326e+00
  2.232521e+01    1.292527e+00
  2.234109e+01    1.285552e+00
  2.235696e+01    1.252548e+00
  2.237284e+01    1.235155e+00
  2.238872e+01    1.217193e+00
  2.240459e+01    1.207099e+00
  2.242047e+01    1.189753e+00
  2.243634e+01    1.194973e+00
  2.245222e+01    1.173359e+00
  2.246809e+01    1.145837e+00
  2.248397e+01    1.129896e+00
  2.249984e+01    1.143566e+00
  2.251572e+01    1.156778e+00
  2.253160e+01    1.132849e+00
  2.254747e+01    1.129804e+00
  2.256335e+01    1.141603e+00
  2.257922e+01    1.124640e+00
  2.259510e+01    1.092171e+00
  2.261097e+01    1.079149e+00
  2.262685e+01    1.096229e+00
  2.264272e+01    1.084177e+00
  2.265860e+01    1.102652e+00
  2.267448e+01    1.101079e+00
  2.269035e+01    1.104061e+00
  2.270623e+01    1.072968e+00
  2.272210e+01    1.077870e+00
  2.273798e+01    1.085058e+00
  2.275385e+01    1.076415e+00
  2.276973e+01    1.089571e+00
  2.278560e+01    1.056947e+00
  2.280148e+01    1.035506e+00
  2.281736e+01    1.058122e+00
  2.283323e+01    1.052535e+00
  2.284911e+01    1.045907e+00
  2.286498e+01    1.063016e+00
  2.288086e+01    1.046974e+00
  2.289673e+01    1.025728e+00
  2.291261e+01    1.050700e+00
  2.292848e+01    1.038024e+00
  2.294436e+01    1.032630e+00
  2.296024e+01    1.045203e+00
  2.297611e+01    1.016933e+00
  2.299199e+01    1.009632e+00
  2.300786e+01    1.017903e+00
  2.302374e+01    1.028536e+00
  2.303961e+01    1.033543e+00
  2.305549e+01    1.013282e+00
  2.307137e+01    1.030627e+00
  2.308724e+01    1.009206e+00
  2.310312e+01    1.013430e+00
  2.311899e+01    1.017657e+00
  2.313487e+01    1.002923e+00
  2.315074e+01    9.781938e-01
  2.316662e+01    9.944802e-01
  2.318249e+01    1.002323e+00
  2.319837e+01    9.920089e-01
  2.321425e+01    9.909982e-01
  2.323012e+01    1.008949e+00
  2.324600e+01    1.005670e+00
  2.326187e+01    9.791576e-01
  2.327775e+01    9.981149e-01
  2.329362e+01    1.024864e+00
  2.330950e+01    9.794460e-01
  2.332537e+01    9.573075e-01
  2.334125e+01    9.851155e-01
  2.335713e+01    9.918337e-01
  2.337300e+01    9.786394e-01
  2.338888e+01    9.811807e-01
  2.340475e+01    9.761136e-01
  2.342063e+01    9.613220e-01
  2.343650e+01    9.748088e-01
  2.345238e+01    9.726856e-01
  2.346825e+01    9.657913e-01
  2.348413e+01    9.776061e-01
  2.350001e+01    9.714385e-01
  2.351588e+01    9.784850e-01
  2.353176e+01    9.698316e-01
  2.354763e+01    9.551561e-01
  2.356351e+01    9.790558e-01
  2.357938e+01    9.864402e-01
  2.359526e+01    9.670169e-01
  2.361113e+01    9.643297e-01
  2.362701e+01    9.720230e-01
  2.364289e+01    9.506023e-01
  2.365876e+01    9.354127e-01
  2.367464e+01    9.589434e-01
  2.369051e+01    9.545079e-01
  2.370639e+01    9.447848e-01
  2.372226e+01    9.412411e-01
  2.373814e+01    9.356195e-01
  2.375401e+01    9.322910e-01
  2.376989e+01    9.414600e-01
  2.378577e+01    9.340360e-01
  2.380164e+01    9.172167e-01
  2.381752e+01    9.208781e-01
  2.383339e+01    9.175894e-01
  2.384927e+01    9.223013e-01
  2.386514e+01    9.098923e-01
  2.388102e+01    9.280333e-01
  2.389689e+01    9.154487e-01
  2.391277e+01    9.256253e-01
  2.392865e+01    9.088150e-01
  2.394452e+01    9.148711e-01
  2.396040e+01    9.251611e-01
  2.397627e+01    9.373381e-01
  2.399215e+01    9.101770e-01
  2.400802e+01    9.008949e-01
  2.402390e+01    8.848125e-01
  2.403978e+01    8.844154e-01
  2.405565e+01    9.231092e-01
  2.407153e+01    8.883275e-01
  2.408740e+01    8.890328e-01
  2.410328e+01    9.064407e-01
  2.411915e+01    8.856703e-01
  2.413503e+01    8.831232e-01
  2.415090e+01    8.705646e-01
  2.416678e+01    8.886735e-01
  2.418266e+01    8.815491e-01
  2.419853e+01    8.821447e-01
  2.421441e+01    9.034265e-01
  2.423028e+01    8.879616e-01
  2.424616e+01    8.941135e-01
  2.426203e+01    8.971264e-01
  2.427791e+01    8.844808e-01
  2.429378e+01    8.934523e-01
  2.430966e+01    8.962289e-01
  2.432554e+01    9.007053e-01
  2.434141e+01    8.892944e-01
  2.435729e+01    8.970526e-01
  2.437316e+01    8.896114e-01
  2.438904e+01    8.902609e-01
  2.440491e+01    8.976397e-01
  2.442079e+01    8.985313e-01
  2.443666e+01    9.053360e-01
  2.445254e+01    8.981771e-01
  2.446842e+01    9.226817e-01
  2.448429e+01    9.093721e-01
  2.450017e+01    9.105883e-01
  2.451604e+01    9.069224e-01
  2.453192e+01    8.854180e-01
  2.454779e+01    8.773265e-01
  2.456367e+01    8.878942e-01
  2.457954e+01    9.036533e-01
  2.459542e+01    9.028339e-01
  2.461130e+01    9.081799e-01
  2.462717e+01    9.179611e-01
  2.464305e+01    9.188344e-01
  2.465892e+01    9.309559e-01
  2.467480e+01    8.875909e-01
  2.469067e+01    8.833693e-01
  2.470655e+01    8.652642e-01
  2.472242e+01    8.757766e-01
  2.473830e+01    8.916784e-01
  2.475418e+01    9.062678e-01
  2.477005e+01    8.884749e-01
  2.478593e+01    8.944709e-01
  2.480180e+01    9.033967e-01
  2.481768e+01    9.018509e-01
  2.483355e+01    9.056349e-01
  2.484943e+01    9.150766e-01
  2.486530e+01    9.162092e-01
  2.488118e+01    8.862249e-01
  2.489706e+01    8.850382e-01
  2.491293e+01    8.976026e-01
  2.492881e+01    9.044582e-01
  2.494468e+01    9.150520e-01
  2.496056e+01    9.179783e-01
  2.497643e+01    9.038793e-01
  2.499231e+01    9.135006e-01
  2.500819e+01    8.996525e-01
  2.502406e+01    8.954665e-01
  2.503994e+01    8.970944e-01
  2.505581e+01    9.108343e-01
  2.507169e+01    9.050339e-01
  2.508756e+01    8.925027e-01
  2.510344e+01    9.126550e-01
  2.511931e+01    9.244559e-01
  2.513519e+01    9.396226e-01
  2.515107e+01    9.248508e-01
  2.516694e+01    9.155992e-01
  2.518282e+01    8.984798e-01
  2.519869e+01    9.272610e-01
  2.521457e+01    9.255677e-01
  2.523044e+01    9.316884e-01
  2.524632e+01    9.707584e-01
  2.526219e+01    9.694995e-01
  2.527807e+01    9.652954e-01
  2.529395e+01    9.494864e-01
  2.530982e+01    9.483870e-01
  2.532570e+01    9.664103e-01
  2.534157e+01    9.630207e-01
  2.535745e+01    9.751471e-01
  2.537332e+01    9.834165e-01
  2.538920e+01    1.004796e+00
  2.540507e+01    1.006940e+00
  2.542095e+01    1.005089e+00
  2.543683e+01    1.014794e+00
  2.545270e+01    1.036343e+00
  2.546858e+01    1.027205e+00
  2.548445e+01    1.031338e+00
  2.550033e+01    1.080507e+00
  2.551620e+01    1.103078e+00
  2.553208e+01    1.097679e+00
  2.554795e+01    1.123546e+00
  2.556383e+01    1.155852e+00
  2.557971e+01    1.172587e+00
  2.559558e+01    1.195664e+00
  2.561146e+01    1.236858e+00
  2.562733e+01    1.277583e+00
  2.564321e+01    1.318046e+00
  2.565908e+01    1.372364e+00
  2.567496e+01    1.416444e+00
  2.569083e+01    1.499181e+00
  2.570671e+01    1.587831e+00
  2.572259e+01    1.702452e+00
  2.573846e+01    1.855740e+00
  2.575434e+01    2.050148e+00
  2.577021e+01    2.270109e+00
  2.578609e+01    2.541057e+00
  2.580196e+01    2.852742e+00
  2.581784e+01    3.232637e+00
  2.583371e+01    3.692965e+00
  2.584959e+01    4.189853e+00
  2.586547e+01    4.728848e+00
  2.588134e+01    5.300239e+00
  2.589722e+01    5.875198e+00
  2.591309e+01    6.392961e+00
  2.592897e+01    6.845119e+00
  2.594484e+01    7.100630e+00
  2.596072e+01    7.184187e+00
  2.597660e+01    7.053572e+00
  2.599247e+01    6.644228e+00
  2.600835e+01    6.046312e+00
  2.602422e+01    5.260366e+00
  2.604010e+01    4.624903e+00
  2.605597e+01    4.047225e+00
  2.607185e+01    3.454032e+00
  2.608772e+01    3.016106e+00
  2.610360e+01    2.669867e+00
  2.611948e+01    2.409487e+00
  2.613535e+01    2.158857e+00
  2.615123e+01    1.982899e+00
  2.616710e+01    1.808625e+00
  2.618298e+01    1.692170e+00
  2.619885e+01    1.601221e+00
  2.621473e+01    1.502121e+00
  2.623060e+01    1.435710e+00
  2.624648e+01    1.382076e+00
  2.626236e+01    1.319467e+00
  2.627823e+01    1.255104e+00
  2.629411e+01    1.207797e+00
  2.630998e+01    1.181850e+00
  2.632586e+01    1.131714e+00
  2.634173e+01    1.122670e+00
  2.635761e+01    1.104234e+00
  2.637348e+01    1.095574e+00
  2.638936e+01    1.079194e+00
  2.640524e+01    1.077565e+00
  2.642111e+01    1.057766e+00
  2.643699e+01    1.025080e+00
  2.645286e+01    1.049787e+00
  2.646874e+01    1.038171e+00
  2.648461e+01    1.037451e+00
  2.650049e+01    1.038977e+00
  2.651636e+01    1.026858e+00
  2.653224e+01    1.009176e+00
  2.654812e+01    9.912661e-01
  2.656399e+01    1.002316e+00
  2.657987e+01    9.987458e-01
  2.659574e+01    9.882896e-01
  2.661162e+01    9.720495e-01
  2.662749e+01    9.693140e-01
  2.664337e+01    9.807150e-01
  2.665924e+01    9.816238e-01
  2.667512e+01    9.750645e-01
  2.669100e+01    9.464588e-01
  2.670687e+01    9.664056e-01
  2.672275e+01    9.642283e-01
  2.673862e+01    9.658798e-01
  2.675450e+01    9.679326e-01
  2.677037e+01    9.710917e-01
  2.678625e+01    9.721066e-01
  2.680212e+01    1.007539e+00
  2.681800e+01    9.925256e-01
  2.683388e+01    9.789700e-01
  2.684975e+01    9.926818e-01
  2.686563e+01    1.014831e+00
  2.688150e+01    9.904969e-01
  2.689738e+01    9.862400e-01
  2.691325e+01    1.019929e+00
  2.692913e+01    1.013937e+00
  2.694501e+01    1.020205e+00
  2.696088e+01    1.038438e+00
  2.697676e+01    1.055251e+00
  2.699263e+01    1.073049e+00
  2.700851e+01    1.107205e+00
  2.702438e+01    1.193137e+00
  2.704026e+01    1.209350e+00
  2.705613e+01    1.263194e+00
  2.707201e+01    1.332233e+00
  2.708789e+01    1.403224e+00
  2.710376e+01    1.524298e+00
  2.711964e+01    1.622862e+00
  2.713551e+01    1.736518e+00
  2.715139e+01    1.842605e+00
  2.716726e+01    1.994219e+00
  2.718314e+01    2.095716e+00
  2.719901e+01    2.168953e+00
  2.721489e+01    2.211144e+00
  2.723077e+01    2.196584e+00
  2.724664e+01    2.109729e+00
  2.726252e+01    1.986191e+00
  2.727839e+01    1.819709e+00
  2.729427e+01    1.716446e+00
  2.731014e+01    1.609022e+00
  2.732602e+01    1.478273e+00
  2.734189e+01    1.381000e+00
  2.735777e+01    1.277389e+00
  2.737365e+01    1.230350e+00
  2.738952e+01    1.186967e+00
  2.740540e+01    1.150314e+00
  2.742127e+01    1.103109e+00
  2.743715e+01    1.065076e+00
  2.745302e+01    1.041843e+00
  2.746890e+01    1.032589e+00
  2.748477e+01    9.826358e-01
  2.750065e+01    9.634044e-01
  2.751653e+01    9.798716e-01
  2.753240e+01    9.757779e-01
  2.754828e+01    9.608308e-01
  2.756415e+01    9.528574e-01
  2.758003e+01    9.281774e-01
  2.759590e+01    9.439079e-01
  2.761178e+01    9.334562e-01
  2.762765e+01    9.141821e-01
  2.764353e+01    8.979224e-01
  2.765941e+01    9.112554e-01
  2.767528e+01    9.072925e-01
  2.769116e+01    9.161587e-01
  2.770703e+01    9.302581e-01
  2.772291e+01    8.996865e-01
  2.773878e+01    8.898703e-01
  2.775466e+01    9.059783e-01
  2.777054e+01    9.008548e-01
  2.778641e+01    9.062517e-01
  2.780229e+01    8.776123e-01
  2.781816e+01    8.825285e-01
  2.783404e+01    8.954560e-01
  2.784991e+01    8.825087e-01
  2.786579e+01    8.878101e-01
  2.788166e+01    8.996251e-01
  2.789754e+01    8.956414e-01
  2.791342e+01    8.870268e-01
  2.792929e+01    8.692183e-01
  2.794517e+01    8.233461e-01
  2.796104e+01    8.537411e-01
  2.797692e+01    8.560430e-01
  2.799279e+01    8.548662e-01
  2.800867e+01    8.568082e-01
  2.802454e+01    8.622176e-01
  2.804042e+01    8.531395e-01
  2.805630e+01    8.455963e-01
  2.807217e+01    8.326362e-01
  2.808805e+01    8.725091e-01
  2.810392e+01    8.506522e-01
  2.811980e+01    8.628367e-01
  2.813567e+01    8.701382e-01
  2.815155e+01    8.750930e-01
  2.816742e+01    8.652301e-01
  2.818330e+01    8.665392e-01
  2.819918e+01    8.701598e-01
  2.821505e+01    8.887579e-01
  2.823093e+01    8.635209e-01
  2.824680e+01    8.484375e-01
  2.826268e+01    8.672360e-01
  2.827855e+01    8.530907e-01
  2.829443e+01    8.652992e-01
  2.831030e+01    8.334928e-01
  2.832618e+01    8.495140e-01
  2.834206e+01    8.415930e-01
  2.835793e+01    8.472871e-01
  2.837381e+01    8.408666e-01
  2.838968e+01    8.735908e-01
  2.840556e+01    8.729134e-01
  2.842143e+01    8.782404e-01
  2.843731e+01    8.629900e-01
  2.845318e+01    8.458695e-01
  2.846906e+01    8.522744e-01
  2.848494e+01    8.393408e-01
  2.850081e+01    8.467858e-01
  2.851669e+01    8.605542e-01
  2.853256e+01    8.329321e-01
  2.854844e+01    8.256158e-01
  2.856431e+01    8.312714e-01
  2.858019e+01    8.516116e-01
  2.859606e+01    8.511987e-01
  2.861194e+01    8.282394e-01
  2.862782e+01    8.460923e-01
  2.864369e+01    8.405041e-01
  2.865957e+01    8.543226e-01
  2.867544e+01    8.547285e-01
  2.869132e+01    8.429444e-01
  2.870719e+01    8.406537e-01
  2.872307e+01    8.069832e-01
  2.873895e+01    8.285002e-01
  2.875482e+01    8.349071e-01
  2.877070e+01    8.358785e-01
  2.878657e+01    8.026553e-01
  2.880245e+01    8.257727e-01
  2.881832e+01    8.360506e-01
  2.883420e+01    8.387085e-01
  2.885007e+01    8.275917e-01
  2.886595e+01    8.401647e-01
  2.888183e+01    8.381005e-01
  2.889770e+01    8.156644e-01
  2.891358e+01    8.198785e-01
  2.892945e+01    8.430345e-01
  2.894533e+01    8.383523e-01
  2.896120e+01    8.232269e-01
  2.897708e+01    8.335914e-01
  2.899295e+01    8.199316e-01
  2.900883e+01    8.306233e-01
  2.902471e+01    8.198654e-01
  2.904058e+01    7.993097e-01
  2.905646e+01    8.184317e-01
  2.907233e+01    8.196861e-01
  2.908821e+01    8.011039e-01
  2.910408e+01    8.123935e-01
  2.911996e+01    8.312442e-01
  2.913583e+01    8.556060e-01
  2.915171e+01    8.422756e-01
  2.916759e+01    8.112051e-01
  2.918346e+01    8.037637e-01
  2.919934e+01    8.259236e-01
  2.921521e+01    8.286855e-01
  2.923109e+01    8.102790e-01
  2.924696e+01    8.054254e-01
  2.926284e+01    8.062596e-01
  2.927871e+01    8.100852e-01
  2.929459e+01    8.112220e-01
  2.931047e+01    8.157973e-01
  2.932634e+01    8.086673e-01
  2.934222e+01    8.200887e-01
  2.935809e+01    8.231949e-01
  2.937397e+01    8.164473e-01
  2.938984e+01    8.084394e-01
  2.940572e+01    8.313732e-01
  2.942159e+01    8.255290e-01
  2.943747e+01    7.979866e-01
  2.945335e+01    7.755634e-01
  2.946922e+01    7.934798e-01
  2.948510e+01    8.113282e-01
  2.950097e+01    8.111451e-01
  2.951685e+01    7.883379e-01
  2.953272e+01    7.946745e-01
  2.954860e+01    8.055688e-01
  2.956447e+01    8.197983e-01
  2.958035e+01    8.126533e-01
  2.959623e+01    8.116324e-01
  2.961210e+01    8.184276e-01
  2.962798e+01    8.041152e-01
  2.964385e+01    8.113231e-01
  2.965973e+01    7.803001e-01
  2.967560e+01    8.082496e-01
  2.969148e+01    8.108717e-01
  2.970736e+01    8.157644e-01
  2.972323e+01    8.119389e-01
  2.973911e+01    8.058537e-01
  2.975498e+01    8.208266e-01
  2.977086e+01    8.123069e-01
  2.978673e+01    8.083015e-01
  2.980261e+01    8.103857e-01
  2.981848e+01    8.108781e-01
  2.983436e+01    8.190179e-01
  2.985024e+01    8.123903e-01
  2.986611e+01    7.896209e-01
  2.988199e+01    7.870896e-01
  2.989786e+01    7.982922e-01
  2.991374e+01    7.897229e-01
  2.992961e+01    8.030070e-01
  2.994549e+01    7.983863e-01
  2.996136e+01    8.080507e-01
  2.997724e+01    7.927715e-01
  2.999312e+01    8.037814e-01
  3.000899e+01    8.130226e-01
  3.002487e+01    8.144954e-01
  3.004074e+01    8.282507e-01
  3.005662e+01    8.057228e-01
  3.007249e+01    7.745493e-01
  3.008837e+01    7.806461e-01
  3.010424e+01    7.882544e-01
  3.012012e+01    8.102194e-01
  3.013600e+01    8.193807e-01
  3.015187e+01    8.116753e-01
  3.016775e+01    7.996045e-01
  3.018362e+01    7.765611e-01
  3.019950e+01    7.871255e-01
  3.021537e+01    7.851318e-01
  3.023125e+01    7.681917e-01
  3.024712e+01    7.821072e-01
  3.026300e+01    8.024256e-01
  3.027888e+01    7.800689e-01
  3.029475e+01    7.858681e-01
  3.031063e+01    8.025435e-01
  3.032650e+01    7.981403e-01
  3.034238e+01    7.801111e-01
  3.035825e+01    7.799152e-01
  3.037413e+01    7.877662e-01
  3.039000e+01    7.913601e-01
  3.040588e+01    8.046492e-01
  3.042176e+01    7.878635e-01
  3.043763e+01    7.886449e-01
  3.045351e+01    7.947615e-01
  3.046938e+01    7.747456e-01
  3.048526e+01    7.741190e-01
  3.050113e+01    8.187663e-01
  3.051701e+01    8.250983e-01
  3.053288e+01    8.052854e-01
  3.054876e+01    7.964334e-01
  3.056464e+01    8.014302e-01
  3.058051e+01    7.714331e-01
  3.059639e+01    7.814630e-01
  3.061226e+01    7.943237e-01
  3.062814e+01    7.754447e-01
  3.064401e+01    7.849703e-01
  3.065989e+01    7.858055e-01
  3.067577e+01    8.232633e-01
  3.069164e+01    8.025112e-01
  3.070752e+01    8.182897e-01
  3.072339e+01    7.944827e-01
  3.073927e+01    7.959064e-01
  3.075514e+01    7.842507e-01
  3.077102e+01    7.828925e-01
  3.078689e+01    8.152426e-01
  3.080277e+01    7.785724e-01
  3.081865e+01    7.938089e-01
  3.083452e+01    7.702059e-01
  3.085040e+01    7.794387e-01
  3.086627e+01    7.738105e-01
  3.088215e+01    7.471589e-01
  3.089802e+01    7.921892e-01
  3.091390e+01    7.986068e-01
  3.092977e+01    8.103697e-01
  3.094565e+01    8.014577e-01
  3.096153e+01    8.001902e-01
  3.097740e+01    7.886600e-01
  3.099328e+01    7.805144e-01
  3.100915e+01    7.971702e-01
  3.102503e+01    8.110073e-01
  3.104090e+01    8.049206e-01
  3.105678e+01    7.942285e-01
  3.107265e+01    7.627271e-01
  3.108853e+01    7.957022e-01
  3.110441e+01    8.078925e-01
  3.112028e+01    7.761483e-01
  3.113616e+01    8.024044e-01
  3.115203e+01    7.897484e-01
  3.116791e+01    8.005465e-01
  3.118378e+01    8.164937e-01
  3.119966e+01    8.016543e-01
  3.121553e+01    7.916795e-01
  3.123141e+01    8.171713e-01
  3.124729e+01    8.068125e-01
  3.126316e+01    8.021310e-01
  3.127904e+01    7.986347e-01
  3.129491e+01    8.001692e-01
  3.131079e+01    8.052268e-01
  3.132666e+01    8.076547e-01
  3.134254e+01    8.166682e-01
  3.135841e+01    8.225801e-01
  3.137429e+01    8.128291e-01
  3.139017e+01    8.275316e-01
  3.140604e+01    8.334190e-01
  3.142192e+01    8.197379e-01
  3.143779e+01    8.052700e-01
  3.145367e+01    8.288770e-01
  3.146954e+01    8.246399e-01
  3.148542e+01    8.112846e-01
  3.150129e+01    8.373625e-01
  3.151717e+01    8.253495e-01
  3.153305e+01    8.364694e-01
  3.154892e+01    8.672083e-01
  3.156480e+01    8.626180e-01
  3.158067e+01    8.640588e-01
  3.159655e+01    8.769271e-01
  3.161242e+01    8.919857e-01
  3.162830e+01    9.024820e-01
  3.164418e+01    9.217608e-01
  3.166005e+01    9.463304e-01
  3.167593e+01    9.588796e-01
  3.169180e+01    9.904680e-01
  3.170768e+01    1.021438e+00
  3.172355e+01    1.085406e+00
  3.173943e+01    1.136083e+00
  3.175530e+01    1.191960e+00
  3.177118e+01    1.305097e+00
  3.178706e+01    1.386125e+00
  3.180293e+01    1.490793e+00
  3.181881e+01    1.616907e+00
  3.183468e+01    1.698725e+00
  3.185056e+01    1.867135e+00
  3.186643e+01    1.981518e+00
  3.188231e+01    2.049877e+00
  3.189818e+01    2.095392e+00
  3.191406e+01    2.082886e+00
  3.192994e+01    2.065586e+00
  3.194581e+01    1.935561e+00
  3.196169e+01    1.824247e+00
  3.197756e+01    1.707711e+00
  3.199344e+01    1.542402e+00
  3.200931e+01    1.422286e+00
  3.202519e+01    1.347306e+00
  3.204106e+01    1.238514e+00
  3.205694e+01    1.175834e+00
  3.207282e+01    1.115727e+00
  3.208869e+01    1.023419e+00
  3.210457e+01    1.001047e+00
  3.212044e+01    1.010568e+00
  3.213632e+01    9.851247e-01
  3.215219e+01    9.466926e-01
  3.216807e+01    9.085141e-01
  3.218394e+01    8.946993e-01
  3.219982e+01    8.878244e-01
  3.221570e+01    8.562793e-01
  3.223157e+01    8.622047e-01
  3.224745e+01    8.556581e-01
  3.226332e+01    8.370851e-01
  3.227920e+01    8.055843e-01
  3.229507e+01    8.369870e-01
  3.231095e+01    8.058563e-01
  3.232682e+01    8.129213e-01
  3.234270e+01    8.057222e-01
  3.235858e+01    8.083525e-01
  3.237445e+01    8.018707e-01
  3.239033e+01    7.951056e-01
  3.240620e+01    8.047690e-01
  3.242208e+01    8.138970e-01
  3.243795e+01    7.906308e-01
  3.245383e+01    8.013169e-01
  3.246970e+01    7.835749e-01
  3.248558e+01    7.974256e-01
  3.250146e+01    7.936510e-01
  3.251733e+01    7.657916e-01
  3.253321e+01    7.745994e-01
  3.254908e+01    7.894642e-01
