# == pyFAI calibration ==
# Distance Sample to Detector: 0.3999999939076516 m
# PONI: 9.750e-02, 1.135e-01 m
# Rotations: -0.000175 0.000000 -0.000000 rad
# 
# == Fit2d calibration ==
# Distance Sample-beamCenter: 400.000 mm
# Center: x=1514.000, y=1300.000 pix
# Tilt: 0.010 deg  TiltPlanRot: 0.010 deg
# 
# Detector Detector	 Spline= None	 PixelSize= 7.500e-05, 7.500e-05 m
#    Detector has a mask: False 
#    Detector has a dark current: False 
#    detector has a flat field: False 
# 
# Wavelength: 6.888e-11 m
# Mask applied: user provided
# Dark current applied: False
# Flat field applied: False
# Polarization factor: 0.99
# Normalization factor: 1.0
# --> /home/myspot/data/2024_07_Rosario/Ru-CGO-ex/2024-07-27_003_Ru-CGO-ex_Reaction_dwell_000023_data_000064.dat
#       q_nm^-1             I 
  2.003187e-02    7.712225e-02
  3.590745e-02    6.421505e-02
  5.178302e-02    1.210474e-01
  6.765859e-02    1.521134e-01
  8.353417e-02    1.454488e-01
  9.940974e-02    1.470981e-01
  1.152853e-01    1.220215e-01
  1.311609e-01    9.646866e-02
  1.470365e-01    4.788825e-02
  1.629120e-01    8.490022e-02
  1.787876e-01    6.517459e-02
  1.946632e-01    3.480606e-02
  2.105388e-01    4.112971e-02
  2.264143e-01    6.485931e-02
  2.422899e-01    5.702686e-02
  2.581655e-01    2.080365e-02
  2.740411e-01    3.805527e-03
  2.899166e-01    4.713643e-02
  3.057922e-01    5.842101e-02
  3.216678e-01    5.539713e-02
  3.375433e-01    4.360964e-02
  3.534189e-01    3.472224e-02
  3.692945e-01    3.864500e-02
  3.851701e-01    2.521424e-02
  4.010456e-01    3.654153e-02
  4.169212e-01    3.086453e-02
  4.327968e-01    2.481432e-02
  4.486724e-01    4.797847e-02
  4.645479e-01    3.721396e-02
  4.804235e-01    4.021890e-02
  4.962991e-01    2.554715e-02
  5.121747e-01    3.462493e-02
  5.280502e-01    2.989101e-02
  5.439258e-01    4.185506e-02
  5.598014e-01    5.655104e-02
  5.756770e-01    3.029419e-02
  5.915525e-01    2.392782e-02
  6.074281e-01    2.145664e-02
  6.233037e-01    4.310966e-02
  6.391793e-01    4.480798e-02
  6.550548e-01    2.951275e-02
  6.709304e-01    3.926684e-02
  6.868060e-01    3.134716e-02
  7.026815e-01    2.958712e-02
  7.185571e-01    2.689730e-02
  7.344327e-01    4.213318e-02
  7.503083e-01    6.351908e-02
  7.661838e-01    1.241974e-01
  7.820594e-01    1.715169e-01
  7.979350e-01    1.782296e-01
  8.138106e-01    2.103343e-01
  8.296861e-01    2.694277e-01
  8.455617e-01    3.693132e-01
  8.614373e-01    3.688298e-01
  8.773129e-01    4.572280e-01
  8.931884e-01    4.979487e-01
  9.090640e-01    5.539005e-01
  9.249396e-01    6.628005e-01
  9.408152e-01    7.865916e-01
  9.566907e-01    8.847203e-01
  9.725663e-01    1.061276e+00
  9.884419e-01    1.215081e+00
  1.004317e+00    1.180164e+00
  1.020193e+00    1.212412e+00
  1.036069e+00    1.258630e+00
  1.051944e+00    1.303781e+00
  1.067820e+00    1.454303e+00
  1.083695e+00    1.500261e+00
  1.099571e+00    1.575660e+00
  1.115446e+00    1.628906e+00
  1.131322e+00    1.591883e+00
  1.147198e+00    1.593699e+00
  1.163073e+00    1.624965e+00
  1.178949e+00    1.652369e+00
  1.194824e+00    1.873573e+00
  1.210700e+00    1.994788e+00
  1.226575e+00    2.194850e+00
  1.242451e+00    2.419717e+00
  1.258327e+00    2.456927e+00
  1.274202e+00    2.525929e+00
  1.290078e+00    2.657157e+00
  1.305953e+00    2.740297e+00
  1.321829e+00    2.769412e+00
  1.337705e+00    2.759483e+00
  1.353580e+00    2.768726e+00
  1.369456e+00    2.968794e+00
  1.385331e+00    2.933577e+00
  1.401207e+00    2.904909e+00
  1.417082e+00    2.783555e+00
  1.432958e+00    2.810802e+00
  1.448834e+00    2.840166e+00
  1.464709e+00    2.916978e+00
  1.480585e+00    2.988582e+00
  1.496460e+00    3.017053e+00
  1.512336e+00    3.069201e+00
  1.528211e+00    3.076781e+00
  1.544087e+00    3.205554e+00
  1.559963e+00    3.325611e+00
  1.575838e+00    3.436552e+00
  1.591714e+00    3.200399e+00
  1.607589e+00    3.176601e+00
  1.623465e+00    3.187870e+00
  1.639340e+00    3.141555e+00
  1.655216e+00    3.067270e+00
  1.671092e+00    3.110046e+00
  1.686967e+00    3.063234e+00
  1.702843e+00    3.050693e+00
  1.718718e+00    3.084144e+00
  1.734594e+00    3.130353e+00
  1.750469e+00    3.143169e+00
  1.766345e+00    2.986039e+00
  1.782221e+00    3.022948e+00
  1.798096e+00    3.031247e+00
  1.813972e+00    3.012004e+00
  1.829847e+00    2.944748e+00
  1.845723e+00    2.928149e+00
  1.861598e+00    3.062356e+00
  1.877474e+00    3.055212e+00
  1.893350e+00    3.001130e+00
  1.909225e+00    3.109728e+00
  1.925101e+00    3.116257e+00
  1.940976e+00    3.094251e+00
  1.956852e+00    3.086722e+00
  1.972727e+00    3.074228e+00
  1.988603e+00    3.008764e+00
  2.004479e+00    3.060669e+00
  2.020354e+00    2.988677e+00
  2.036230e+00    3.013110e+00
  2.052105e+00    3.125658e+00
  2.067981e+00    3.112488e+00
  2.083856e+00    2.951719e+00
  2.099732e+00    3.009590e+00
  2.115608e+00    3.033115e+00
  2.131483e+00    3.178393e+00
  2.147359e+00    3.078914e+00
  2.163234e+00    3.072407e+00
  2.179110e+00    3.053643e+00
  2.194985e+00    2.980810e+00
  2.210861e+00    2.975947e+00
  2.226737e+00    3.025404e+00
  2.242612e+00    3.104751e+00
  2.258488e+00    3.136721e+00
  2.274363e+00    3.137779e+00
  2.290239e+00    3.093552e+00
  2.306115e+00    3.150228e+00
  2.321990e+00    3.269690e+00
  2.337866e+00    3.170279e+00
  2.353741e+00    3.175612e+00
  2.369617e+00    3.125643e+00
  2.385492e+00    3.055767e+00
  2.401368e+00    3.105717e+00
  2.417244e+00    3.293613e+00
  2.433119e+00    3.219432e+00
  2.448995e+00    3.133156e+00
  2.464870e+00    3.068821e+00
  2.480746e+00    3.292621e+00
  2.496621e+00    3.285559e+00
  2.512497e+00    3.227381e+00
  2.528373e+00    3.203720e+00
  2.544248e+00    3.168572e+00
  2.560124e+00    3.188470e+00
  2.575999e+00    3.175619e+00
  2.591875e+00    3.179232e+00
  2.607750e+00    3.172524e+00
  2.623626e+00    3.225697e+00
  2.639502e+00    3.383501e+00
  2.655377e+00    3.277148e+00
  2.671253e+00    3.236245e+00
  2.687128e+00    3.227732e+00
  2.703004e+00    3.126870e+00
  2.718879e+00    3.223882e+00
  2.734755e+00    3.266500e+00
  2.750631e+00    3.213998e+00
  2.766506e+00    3.277170e+00
  2.782382e+00    3.349187e+00
  2.798257e+00    3.327427e+00
  2.814133e+00    3.288016e+00
  2.830008e+00    3.283009e+00
  2.845884e+00    3.195021e+00
  2.861760e+00    3.278896e+00
  2.877635e+00    3.339295e+00
  2.893511e+00    3.322566e+00
  2.909386e+00    3.314483e+00
  2.925262e+00    3.362092e+00
  2.941137e+00    3.402552e+00
  2.957013e+00    3.392349e+00
  2.972889e+00    3.366133e+00
  2.988764e+00    3.351146e+00
  3.004640e+00    3.349430e+00
  3.020515e+00    3.286877e+00
  3.036391e+00    3.376538e+00
  3.052266e+00    3.376101e+00
  3.068142e+00    3.353491e+00
  3.084018e+00    3.414515e+00
  3.099893e+00    3.323892e+00
  3.115769e+00    3.456729e+00
  3.131644e+00    3.422320e+00
  3.147520e+00    3.370286e+00
  3.163395e+00    3.415499e+00
  3.179271e+00    3.349412e+00
  3.195147e+00    3.354363e+00
  3.211022e+00    3.342448e+00
  3.226898e+00    3.373073e+00
  3.242773e+00    3.343250e+00
  3.258649e+00    3.315741e+00
  3.274525e+00    3.390996e+00
  3.290400e+00    3.416738e+00
  3.306276e+00    3.390306e+00
  3.322151e+00    3.491164e+00
  3.338027e+00    3.474620e+00
  3.353902e+00    3.398171e+00
  3.369778e+00    3.411724e+00
  3.385654e+00    3.433441e+00
  3.401529e+00    3.377547e+00
  3.417405e+00    3.336154e+00
  3.433280e+00    3.419022e+00
  3.449156e+00    3.414723e+00
  3.465031e+00    3.409401e+00
  3.480907e+00    3.461048e+00
  3.496783e+00    3.535467e+00
  3.512658e+00    3.490141e+00
  3.528534e+00    3.444256e+00
  3.544409e+00    3.397093e+00
  3.560285e+00    3.456888e+00
  3.576160e+00    3.467760e+00
  3.592036e+00    3.366956e+00
  3.607912e+00    3.413828e+00
  3.623787e+00    3.532659e+00
  3.639663e+00    3.547689e+00
  3.655538e+00    3.537484e+00
  3.671414e+00    3.616290e+00
  3.687289e+00    3.503865e+00
  3.703165e+00    3.487948e+00
  3.719041e+00    3.474219e+00
  3.734916e+00    3.513119e+00
  3.750792e+00    3.493869e+00
  3.766667e+00    3.460234e+00
  3.782543e+00    3.493299e+00
  3.798418e+00    3.502050e+00
  3.814294e+00    3.620577e+00
  3.830170e+00    3.582116e+00
  3.846045e+00    3.601503e+00
  3.861921e+00    3.661654e+00
  3.877796e+00    3.516916e+00
  3.893672e+00    3.535216e+00
  3.909547e+00    3.404941e+00
  3.925423e+00    3.420993e+00
  3.941299e+00    3.504477e+00
  3.957174e+00    3.601804e+00
  3.973050e+00    3.593369e+00
  3.988925e+00    3.569799e+00
  4.004801e+00    3.567705e+00
  4.020676e+00    3.592564e+00
  4.036552e+00    3.527710e+00
  4.052428e+00    3.511784e+00
  4.068303e+00    3.503609e+00
  4.084179e+00    3.563716e+00
  4.100054e+00    3.485329e+00
  4.115930e+00    3.465430e+00
  4.131806e+00    3.466096e+00
  4.147681e+00    3.633806e+00
  4.163557e+00    3.582189e+00
  4.179432e+00    3.487705e+00
  4.195308e+00    3.487294e+00
  4.211183e+00    3.521354e+00
  4.227059e+00    3.623290e+00
  4.242935e+00    3.533867e+00
  4.258810e+00    3.531696e+00
  4.274686e+00    3.594947e+00
  4.290561e+00    3.584245e+00
  4.306437e+00    3.544747e+00
  4.322312e+00    3.522251e+00
  4.338188e+00    3.563840e+00
  4.354064e+00    3.585084e+00
  4.369939e+00    3.636941e+00
  4.385815e+00    3.620669e+00
  4.401690e+00    3.575024e+00
  4.417566e+00    3.608940e+00
  4.433441e+00    3.654876e+00
  4.449317e+00    3.630690e+00
  4.465193e+00    3.652045e+00
  4.481068e+00    3.574133e+00
  4.496944e+00    3.538892e+00
  4.512819e+00    3.590544e+00
  4.528695e+00    3.587400e+00
  4.544570e+00    3.602149e+00
  4.560446e+00    3.587301e+00
  4.576322e+00    3.650851e+00
  4.592197e+00    3.577796e+00
  4.608073e+00    3.663903e+00
  4.623948e+00    3.584703e+00
  4.639824e+00    3.612839e+00
  4.655699e+00    3.588183e+00
  4.671575e+00    3.597379e+00
  4.687451e+00    3.572968e+00
  4.703326e+00    3.688686e+00
  4.719202e+00    3.672462e+00
  4.735077e+00    3.616985e+00
  4.750953e+00    3.678657e+00
  4.766828e+00    3.679390e+00
  4.782704e+00    3.642753e+00
  4.798580e+00    3.655479e+00
  4.814455e+00    3.684473e+00
  4.830331e+00    3.651553e+00
  4.846206e+00    3.651183e+00
  4.862082e+00    3.637157e+00
  4.877957e+00    3.744525e+00
  4.893833e+00    3.709468e+00
  4.909709e+00    3.677313e+00
  4.925584e+00    3.599623e+00
  4.941460e+00    3.634872e+00
  4.957335e+00    3.656799e+00
  4.973211e+00    3.662147e+00
  4.989086e+00    3.642347e+00
  5.004962e+00    3.603222e+00
  5.020838e+00    3.633828e+00
  5.036713e+00    3.610165e+00
  5.052589e+00    3.633623e+00
  5.068464e+00    3.672655e+00
  5.084340e+00    3.629892e+00
  5.100216e+00    3.621203e+00
  5.116091e+00    3.706842e+00
  5.131967e+00    3.707762e+00
  5.147842e+00    3.671324e+00
  5.163718e+00    3.720121e+00
  5.179593e+00    3.641464e+00
  5.195469e+00    3.677761e+00
  5.211345e+00    3.675079e+00
  5.227220e+00    3.648334e+00
  5.243096e+00    3.587026e+00
  5.258971e+00    3.618713e+00
  5.274847e+00    3.709279e+00
  5.290722e+00    3.721934e+00
  5.306598e+00    3.675704e+00
  5.322474e+00    3.696150e+00
  5.338349e+00    3.725135e+00
  5.354225e+00    3.647224e+00
  5.370100e+00    3.620497e+00
  5.385976e+00    3.550036e+00
  5.401851e+00    3.599383e+00
  5.417727e+00    3.631784e+00
  5.433603e+00    3.731528e+00
  5.449478e+00    3.697546e+00
  5.465354e+00    3.669878e+00
  5.481229e+00    3.615275e+00
  5.497105e+00    3.573807e+00
  5.512980e+00    3.609961e+00
  5.528856e+00    3.693197e+00
  5.544732e+00    3.660915e+00
  5.560607e+00    3.603940e+00
  5.576483e+00    3.647710e+00
  5.592358e+00    3.620513e+00
  5.608234e+00    3.556669e+00
  5.624109e+00    3.580310e+00
  5.639985e+00    3.648264e+00
  5.655861e+00    3.562511e+00
  5.671736e+00    3.541502e+00
  5.687612e+00    3.561234e+00
  5.703487e+00    3.603911e+00
  5.719363e+00    3.564032e+00
  5.735238e+00    3.606061e+00
  5.751114e+00    3.596421e+00
  5.766990e+00    3.587102e+00
  5.782865e+00    3.556869e+00
  5.798741e+00    3.539442e+00
  5.814616e+00    3.517361e+00
  5.830492e+00    3.509082e+00
  5.846367e+00    3.528336e+00
  5.862243e+00    3.647470e+00
  5.878119e+00    3.583939e+00
  5.893994e+00    3.517589e+00
  5.909870e+00    3.508651e+00
  5.925745e+00    3.520023e+00
  5.941621e+00    3.563323e+00
  5.957497e+00    3.582030e+00
  5.973372e+00    3.567778e+00
  5.989248e+00    3.483076e+00
  6.005123e+00    3.509473e+00
  6.020999e+00    3.594430e+00
  6.036874e+00    3.639754e+00
  6.052750e+00    3.599650e+00
  6.068626e+00    3.566396e+00
  6.084501e+00    3.598427e+00
  6.100377e+00    3.552364e+00
  6.116252e+00    3.582271e+00
  6.132128e+00    3.602524e+00
  6.148003e+00    3.621907e+00
  6.163879e+00    3.634774e+00
  6.179755e+00    3.588491e+00
  6.195630e+00    3.588384e+00
  6.211506e+00    3.657700e+00
  6.227381e+00    3.605413e+00
  6.243257e+00    3.564095e+00
  6.259132e+00    3.614028e+00
  6.275008e+00    3.587214e+00
  6.290884e+00    3.523046e+00
  6.306759e+00    3.612270e+00
  6.322635e+00    3.591547e+00
  6.338510e+00    3.605989e+00
  6.354386e+00    3.668113e+00
  6.370261e+00    3.560982e+00
  6.386137e+00    3.612351e+00
  6.402013e+00    3.613600e+00
  6.417888e+00    3.557974e+00
  6.433764e+00    3.542352e+00
  6.449639e+00    3.555843e+00
  6.465515e+00    3.479101e+00
  6.481390e+00    3.530964e+00
  6.497266e+00    3.600016e+00
  6.513142e+00    3.584907e+00
  6.529017e+00    3.595858e+00
  6.544893e+00    3.671640e+00
  6.560768e+00    3.638677e+00
  6.576644e+00    3.628108e+00
  6.592519e+00    3.585119e+00
  6.608395e+00    3.535905e+00
  6.624271e+00    3.541000e+00
  6.640146e+00    3.563131e+00
  6.656022e+00    3.602779e+00
  6.671897e+00    3.521470e+00
  6.687773e+00    3.544581e+00
  6.703648e+00    3.583832e+00
  6.719524e+00    3.530783e+00
  6.735400e+00    3.551537e+00
  6.751275e+00    3.490777e+00
  6.767151e+00    3.502746e+00
  6.783026e+00    3.550898e+00
  6.798902e+00    3.543211e+00
  6.814777e+00    3.533962e+00
  6.830653e+00    3.517972e+00
  6.846529e+00    3.575783e+00
  6.862404e+00    3.594177e+00
  6.878280e+00    3.529595e+00
  6.894155e+00    3.530710e+00
  6.910031e+00    3.670831e+00
  6.925907e+00    3.551411e+00
  6.941782e+00    3.515109e+00
  6.957658e+00    3.497743e+00
  6.973533e+00    3.542111e+00
  6.989409e+00    3.558103e+00
  7.005284e+00    3.590367e+00
  7.021160e+00    3.605779e+00
  7.037036e+00    3.520266e+00
  7.052911e+00    3.532553e+00
  7.068787e+00    3.530731e+00
  7.084662e+00    3.499220e+00
  7.100538e+00    3.536051e+00
  7.116413e+00    3.552124e+00
  7.132289e+00    3.592116e+00
  7.148165e+00    3.601956e+00
  7.164040e+00    3.628324e+00
  7.179916e+00    3.552071e+00
  7.195791e+00    3.485975e+00
  7.211667e+00    3.488894e+00
  7.227542e+00    3.534288e+00
  7.243418e+00    3.497738e+00
  7.259294e+00    3.562389e+00
  7.275169e+00    3.540102e+00
  7.291045e+00    3.525811e+00
  7.306920e+00    3.563296e+00
  7.322796e+00    3.572889e+00
  7.338671e+00    3.578540e+00
  7.354547e+00    3.582473e+00
  7.370423e+00    3.517812e+00
  7.386298e+00    3.466540e+00
  7.402174e+00    3.498243e+00
  7.418049e+00    3.465008e+00
  7.433925e+00    3.492020e+00
  7.449800e+00    3.538291e+00
  7.465676e+00    3.488364e+00
  7.481552e+00    3.545463e+00
  7.497427e+00    3.529838e+00
  7.513303e+00    3.463658e+00
  7.529178e+00    3.498155e+00
  7.545054e+00    3.533507e+00
  7.560929e+00    3.482686e+00
  7.576805e+00    3.440158e+00
  7.592681e+00    3.455048e+00
  7.608556e+00    3.547354e+00
  7.624432e+00    3.449003e+00
  7.640307e+00    3.413833e+00
  7.656183e+00    3.468254e+00
  7.672058e+00    3.534106e+00
  7.687934e+00    3.516158e+00
  7.703810e+00    3.463562e+00
  7.719685e+00    3.454725e+00
  7.735561e+00    3.430769e+00
  7.751436e+00    3.452074e+00
  7.767312e+00    3.481786e+00
  7.783187e+00    3.529687e+00
  7.799063e+00    3.580528e+00
  7.814939e+00    3.477453e+00
  7.830814e+00    3.446008e+00
  7.846690e+00    3.476421e+00
  7.862565e+00    3.531067e+00
  7.878441e+00    3.479913e+00
  7.894317e+00    3.410028e+00
  7.910192e+00    3.377536e+00
  7.926068e+00    3.358254e+00
  7.941943e+00    3.425229e+00
  7.957819e+00    3.457146e+00
  7.973694e+00    3.451842e+00
  7.989570e+00    3.432928e+00
  8.005446e+00    3.413333e+00
  8.021321e+00    3.412348e+00
  8.037197e+00    3.383058e+00
  8.053072e+00    3.408111e+00
  8.068948e+00    3.424496e+00
  8.084823e+00    3.428374e+00
  8.100699e+00    3.465665e+00
  8.116575e+00    3.474059e+00
  8.132450e+00    3.471114e+00
  8.148326e+00    3.460886e+00
  8.164201e+00    3.460652e+00
  8.180077e+00    3.424684e+00
  8.195952e+00    3.435344e+00
  8.211828e+00    3.495677e+00
  8.227704e+00    3.535594e+00
  8.243579e+00    3.484601e+00
  8.259455e+00    3.466111e+00
  8.275330e+00    3.440639e+00
  8.291206e+00    3.418428e+00
  8.307081e+00    3.416078e+00
  8.322957e+00    3.508353e+00
  8.338833e+00    3.487689e+00
  8.354708e+00    3.435695e+00
  8.370584e+00    3.413028e+00
  8.386459e+00    3.448451e+00
  8.402335e+00    3.423118e+00
  8.418210e+00    3.419541e+00
  8.434086e+00    3.394605e+00
  8.449962e+00    3.355917e+00
  8.465837e+00    3.335440e+00
  8.481713e+00    3.390526e+00
  8.497588e+00    3.434286e+00
  8.513464e+00    3.394328e+00
  8.529339e+00    3.335303e+00
  8.545215e+00    3.321329e+00
  8.561091e+00    3.358553e+00
  8.576966e+00    3.341920e+00
  8.592842e+00    3.426488e+00
  8.608717e+00    3.353233e+00
  8.624593e+00    3.434205e+00
  8.640468e+00    3.420137e+00
  8.656344e+00    3.406507e+00
  8.672220e+00    3.438277e+00
  8.688095e+00    3.341200e+00
  8.703971e+00    3.352782e+00
  8.719846e+00    3.370301e+00
  8.735722e+00    3.332039e+00
  8.751598e+00    3.317629e+00
  8.767473e+00    3.317152e+00
  8.783349e+00    3.359367e+00
  8.799224e+00    3.378829e+00
  8.815100e+00    3.312481e+00
  8.830975e+00    3.322689e+00
  8.846851e+00    3.279666e+00
  8.862727e+00    3.280232e+00
  8.878602e+00    3.283794e+00
  8.894478e+00    3.306400e+00
  8.910353e+00    3.288507e+00
  8.926229e+00    3.278696e+00
  8.942104e+00    3.276850e+00
  8.957980e+00    3.268314e+00
  8.973856e+00    3.266137e+00
  8.989731e+00    3.297282e+00
  9.005607e+00    3.320643e+00
  9.021482e+00    3.283030e+00
  9.037358e+00    3.260625e+00
  9.053233e+00    3.312788e+00
  9.069109e+00    3.303371e+00
  9.084985e+00    3.307209e+00
  9.100860e+00    3.316982e+00
  9.116736e+00    3.320957e+00
  9.132611e+00    3.326785e+00
  9.148487e+00    3.330718e+00
  9.164362e+00    3.232168e+00
  9.180238e+00    3.234650e+00
  9.196114e+00    3.204769e+00
  9.211989e+00    3.193001e+00
  9.227865e+00    3.231020e+00
  9.243740e+00    3.305110e+00
  9.259616e+00    3.292509e+00
  9.275491e+00    3.270373e+00
  9.291367e+00    3.309994e+00
  9.307243e+00    3.256603e+00
  9.323118e+00    3.220236e+00
  9.338994e+00    3.285407e+00
  9.354869e+00    3.271225e+00
  9.370745e+00    3.203631e+00
  9.386620e+00    3.235829e+00
  9.402496e+00    3.248278e+00
  9.418372e+00    3.280945e+00
  9.434247e+00    3.273385e+00
  9.450123e+00    3.197151e+00
  9.465998e+00    3.200633e+00
  9.481874e+00    3.249828e+00
  9.497749e+00    3.280485e+00
  9.513625e+00    3.287789e+00
  9.529501e+00    3.244617e+00
  9.545376e+00    3.230177e+00
  9.561252e+00    3.295108e+00
  9.577127e+00    3.291454e+00
  9.593003e+00    3.264855e+00
  9.608878e+00    3.227041e+00
  9.624754e+00    3.206874e+00
  9.640630e+00    3.154039e+00
  9.656505e+00    3.220368e+00
  9.672381e+00    3.198075e+00
  9.688256e+00    3.226144e+00
  9.704132e+00    3.259254e+00
  9.720008e+00    3.256282e+00
  9.735883e+00    3.201450e+00
  9.751759e+00    3.200329e+00
  9.767634e+00    3.205886e+00
  9.783510e+00    3.151349e+00
  9.799385e+00    3.180007e+00
  9.815261e+00    3.279562e+00
  9.831137e+00    3.175767e+00
  9.847012e+00    3.128308e+00
  9.862888e+00    3.180130e+00
  9.878763e+00    3.185048e+00
  9.894639e+00    3.150272e+00
  9.910514e+00    3.112258e+00
  9.926390e+00    3.134828e+00
  9.942266e+00    3.140916e+00
  9.958141e+00    3.083578e+00
  9.974017e+00    3.121653e+00
  9.989892e+00    3.116572e+00
  1.000577e+01    3.114860e+00
  1.002164e+01    3.101322e+00
  1.003752e+01    3.070966e+00
  1.005339e+01    3.053493e+00
  1.006927e+01    3.116793e+00
  1.008515e+01    3.096093e+00
  1.010102e+01    3.066714e+00
  1.011690e+01    3.079078e+00
  1.013277e+01    3.091930e+00
  1.014865e+01    3.090306e+00
  1.016452e+01    3.092502e+00
  1.018040e+01    3.061503e+00
  1.019627e+01    3.081164e+00
  1.021215e+01    3.118993e+00
  1.022803e+01    3.114958e+00
  1.024390e+01    3.106705e+00
  1.025978e+01    3.060115e+00
  1.027565e+01    3.072762e+00
  1.029153e+01    3.009037e+00
  1.030740e+01    3.034779e+00
  1.032328e+01    3.107494e+00
  1.033915e+01    3.077880e+00
  1.035503e+01    3.069729e+00
  1.037091e+01    3.114006e+00
  1.038678e+01    3.092832e+00
  1.040266e+01    3.037550e+00
  1.041853e+01    3.085977e+00
  1.043441e+01    3.082667e+00
  1.045028e+01    3.096960e+00
  1.046616e+01    3.060337e+00
  1.048204e+01    3.061311e+00
  1.049791e+01    3.048951e+00
  1.051379e+01    3.029865e+00
  1.052966e+01    3.010313e+00
  1.054554e+01    3.033179e+00
  1.056141e+01    3.005655e+00
  1.057729e+01    2.965495e+00
  1.059316e+01    2.983404e+00
  1.060904e+01    2.976963e+00
  1.062492e+01    2.953109e+00
  1.064079e+01    3.014339e+00
  1.065667e+01    2.993815e+00
  1.067254e+01    2.957916e+00
  1.068842e+01    2.963786e+00
  1.070429e+01    2.966764e+00
  1.072017e+01    2.989382e+00
  1.073604e+01    3.013833e+00
  1.075192e+01    2.970484e+00
  1.076780e+01    3.004639e+00
  1.078367e+01    2.972099e+00
  1.079955e+01    3.010020e+00
  1.081542e+01    3.001389e+00
  1.083130e+01    2.944901e+00
  1.084717e+01    2.937972e+00
  1.086305e+01    2.981703e+00
  1.087892e+01    2.963111e+00
  1.089480e+01    2.943674e+00
  1.091068e+01    2.922976e+00
  1.092655e+01    2.889986e+00
  1.094243e+01    2.890104e+00
  1.095830e+01    2.909896e+00
  1.097418e+01    2.926721e+00
  1.099005e+01    2.936466e+00
  1.100593e+01    2.908272e+00
  1.102180e+01    2.914608e+00
  1.103768e+01    2.886387e+00
  1.105356e+01    2.869602e+00
  1.106943e+01    2.870438e+00
  1.108531e+01    2.887518e+00
  1.110118e+01    2.855712e+00
  1.111706e+01    2.882531e+00
  1.113293e+01    2.895024e+00
  1.114881e+01    2.831362e+00
  1.116468e+01    2.840355e+00
  1.118056e+01    2.828504e+00
  1.119644e+01    2.845443e+00
  1.121231e+01    2.877835e+00
  1.122819e+01    2.883099e+00
  1.124406e+01    2.906854e+00
  1.125994e+01    2.900028e+00
  1.127581e+01    2.834856e+00
  1.129169e+01    2.848825e+00
  1.130756e+01    2.849332e+00
  1.132344e+01    2.834457e+00
  1.133932e+01    2.829145e+00
  1.135519e+01    2.844396e+00
  1.137107e+01    2.840927e+00
  1.138694e+01    2.808003e+00
  1.140282e+01    2.848228e+00
  1.141869e+01    2.878123e+00
  1.143457e+01    2.842646e+00
  1.145045e+01    2.798145e+00
  1.146632e+01    2.798295e+00
  1.148220e+01    2.794657e+00
  1.149807e+01    2.774614e+00
  1.151395e+01    2.785715e+00
  1.152982e+01    2.791967e+00
  1.154570e+01    2.773471e+00
  1.156157e+01    2.800927e+00
  1.157745e+01    2.821424e+00
  1.159333e+01    2.851037e+00
  1.160920e+01    2.853629e+00
  1.162508e+01    2.829859e+00
  1.164095e+01    2.791445e+00
  1.165683e+01    2.810668e+00
  1.167270e+01    2.815142e+00
  1.168858e+01    2.784126e+00
  1.170445e+01    2.741339e+00
  1.172033e+01    2.807836e+00
  1.173621e+01    2.747282e+00
  1.175208e+01    2.717235e+00
  1.176796e+01    2.738399e+00
  1.178383e+01    2.795025e+00
  1.179971e+01    2.776769e+00
  1.181558e+01    2.729707e+00
  1.183146e+01    2.702740e+00
  1.184733e+01    2.767301e+00
  1.186321e+01    2.770610e+00
  1.187909e+01    2.721687e+00
  1.189496e+01    2.725773e+00
  1.191084e+01    2.692359e+00
  1.192671e+01    2.694347e+00
  1.194259e+01    2.708974e+00
  1.195846e+01    2.724073e+00
  1.197434e+01    2.709141e+00
  1.199021e+01    2.700589e+00
  1.200609e+01    2.712929e+00
  1.202197e+01    2.698960e+00
  1.203784e+01    2.707131e+00
  1.205372e+01    2.709917e+00
  1.206959e+01    2.713529e+00
  1.208547e+01    2.701023e+00
  1.210134e+01    2.672627e+00
  1.211722e+01    2.665183e+00
  1.213309e+01    2.700373e+00
  1.214897e+01    2.700929e+00
  1.216485e+01    2.703662e+00
  1.218072e+01    2.690159e+00
  1.219660e+01    2.776476e+00
  1.221247e+01    2.695789e+00
  1.222835e+01    2.746472e+00
  1.224422e+01    2.741296e+00
  1.226010e+01    2.712623e+00
  1.227597e+01    2.705242e+00
  1.229185e+01    2.711905e+00
  1.230773e+01    2.677372e+00
  1.232360e+01    2.662557e+00
  1.233948e+01    2.683418e+00
  1.235535e+01    2.715924e+00
  1.237123e+01    2.692043e+00
  1.238710e+01    2.738677e+00
  1.240298e+01    2.714463e+00
  1.241886e+01    2.678788e+00
  1.243473e+01    2.710712e+00
  1.245061e+01    2.721226e+00
  1.246648e+01    2.727355e+00
  1.248236e+01    2.730568e+00
  1.249823e+01    2.707646e+00
  1.251411e+01    2.706260e+00
  1.252998e+01    2.731448e+00
  1.254586e+01    2.694066e+00
  1.256174e+01    2.747031e+00
  1.257761e+01    2.761954e+00
  1.259349e+01    2.735064e+00
  1.260936e+01    2.728689e+00
  1.262524e+01    2.778655e+00
  1.264111e+01    2.756166e+00
  1.265699e+01    2.754257e+00
  1.267286e+01    2.796545e+00
  1.268874e+01    2.840425e+00
  1.270462e+01    2.830000e+00
  1.272049e+01    2.851101e+00
  1.273637e+01    2.843147e+00
  1.275224e+01    2.884565e+00
  1.276812e+01    2.909691e+00
  1.278399e+01    2.946047e+00
  1.279987e+01    2.992018e+00
  1.281574e+01    3.059104e+00
  1.283162e+01    3.085672e+00
  1.284750e+01    3.132592e+00
  1.286337e+01    3.235402e+00
  1.287925e+01    3.382506e+00
  1.289512e+01    3.464623e+00
  1.291100e+01    3.688662e+00
  1.292687e+01    3.880508e+00
  1.294275e+01    4.106187e+00
  1.295862e+01    4.457751e+00
  1.297450e+01    4.801672e+00
  1.299038e+01    5.275067e+00
  1.300625e+01    5.879222e+00
  1.302213e+01    6.641051e+00
  1.303800e+01    7.663073e+00
  1.305388e+01    8.980975e+00
  1.306975e+01    1.023129e+01
  1.308563e+01    1.144446e+01
  1.310150e+01    1.265145e+01
  1.311738e+01    1.382905e+01
  1.313326e+01    1.487431e+01
  1.314913e+01    1.578130e+01
  1.316501e+01    1.632790e+01
  1.318088e+01    1.634891e+01
  1.319676e+01    1.577136e+01
  1.321263e+01    1.428926e+01
  1.322851e+01    1.260436e+01
  1.324438e+01    1.072725e+01
  1.326026e+01    9.113320e+00
  1.327614e+01    7.800135e+00
  1.329201e+01    6.822674e+00
  1.330789e+01    5.940217e+00
  1.332376e+01    5.354238e+00
  1.333964e+01    4.871188e+00
  1.335551e+01    4.447114e+00
  1.337139e+01    4.138242e+00
  1.338727e+01    3.884651e+00
  1.340314e+01    3.695994e+00
  1.341902e+01    3.497864e+00
  1.343489e+01    3.376965e+00
  1.345077e+01    3.253737e+00
  1.346664e+01    3.156245e+00
  1.348252e+01    3.038558e+00
  1.349839e+01    2.994929e+00
  1.351427e+01    2.937538e+00
  1.353015e+01    2.855071e+00
  1.354602e+01    2.817977e+00
  1.356190e+01    2.803718e+00
  1.357777e+01    2.743563e+00
  1.359365e+01    2.739003e+00
  1.360952e+01    2.684577e+00
  1.362540e+01    2.652623e+00
  1.364127e+01    2.647568e+00
  1.365715e+01    2.631001e+00
  1.367303e+01    2.626450e+00
  1.368890e+01    2.618454e+00
  1.370478e+01    2.580245e+00
  1.372065e+01    2.531831e+00
  1.373653e+01    2.533827e+00
  1.375240e+01    2.529818e+00
  1.376828e+01    2.507638e+00
  1.378415e+01    2.477560e+00
  1.380003e+01    2.490763e+00
  1.381591e+01    2.492180e+00
  1.383178e+01    2.488199e+00
  1.384766e+01    2.481205e+00
  1.386353e+01    2.504422e+00
  1.387941e+01    2.486087e+00
  1.389528e+01    2.419724e+00
  1.391116e+01    2.394279e+00
  1.392703e+01    2.377009e+00
  1.394291e+01    2.376650e+00
  1.395879e+01    2.391783e+00
  1.397466e+01    2.341193e+00
  1.399054e+01    2.381849e+00
  1.400641e+01    2.369214e+00
  1.402229e+01    2.328905e+00
  1.403816e+01    2.345687e+00
  1.405404e+01    2.354637e+00
  1.406991e+01    2.368455e+00
  1.408579e+01    2.332727e+00
  1.410167e+01    2.350559e+00
  1.411754e+01    2.365369e+00
  1.413342e+01    2.360435e+00
  1.414929e+01    2.374825e+00
  1.416517e+01    2.341716e+00
  1.418104e+01    2.334852e+00
  1.419692e+01    2.325839e+00
  1.421279e+01    2.333200e+00
  1.422867e+01    2.306269e+00
  1.424455e+01    2.288178e+00
  1.426042e+01    2.265671e+00
  1.427630e+01    2.261767e+00
  1.429217e+01    2.286670e+00
  1.430805e+01    2.245834e+00
  1.432392e+01    2.233452e+00
  1.433980e+01    2.252242e+00
  1.435568e+01    2.250802e+00
  1.437155e+01    2.263799e+00
  1.438743e+01    2.273803e+00
  1.440330e+01    2.263646e+00
  1.441918e+01    2.253643e+00
  1.443505e+01    2.230539e+00
  1.445093e+01    2.246533e+00
  1.446680e+01    2.263115e+00
  1.448268e+01    2.238909e+00
  1.449856e+01    2.250561e+00
  1.451443e+01    2.212871e+00
  1.453031e+01    2.201363e+00
  1.454618e+01    2.224281e+00
  1.456206e+01    2.234253e+00
  1.457793e+01    2.248218e+00
  1.459381e+01    2.220086e+00
  1.460968e+01    2.193867e+00
  1.462556e+01    2.226487e+00
  1.464144e+01    2.228861e+00
  1.465731e+01    2.215925e+00
  1.467319e+01    2.207850e+00
  1.468906e+01    2.175789e+00
  1.470494e+01    2.174195e+00
  1.472081e+01    2.227730e+00
  1.473669e+01    2.200938e+00
  1.475256e+01    2.214855e+00
  1.476844e+01    2.206064e+00
  1.478432e+01    2.209007e+00
  1.480019e+01    2.170768e+00
  1.481607e+01    2.179232e+00
  1.483194e+01    2.222899e+00
  1.484782e+01    2.213233e+00
  1.486369e+01    2.205324e+00
  1.487957e+01    2.232165e+00
  1.489544e+01    2.226500e+00
  1.491132e+01    2.303968e+00
  1.492720e+01    2.289627e+00
  1.494307e+01    2.327174e+00
  1.495895e+01    2.296314e+00
  1.497482e+01    2.391913e+00
  1.499070e+01    2.425483e+00
  1.500657e+01    2.443969e+00
  1.502245e+01    2.480631e+00
  1.503832e+01    2.576115e+00
  1.505420e+01    2.703099e+00
  1.507008e+01    2.789650e+00
  1.508595e+01    2.969431e+00
  1.510183e+01    3.192285e+00
  1.511770e+01    3.487958e+00
  1.513358e+01    3.790300e+00
  1.514945e+01    4.110991e+00
  1.516533e+01    4.485834e+00
  1.518120e+01    4.873625e+00
  1.519708e+01    5.190432e+00
  1.521296e+01    5.419594e+00
  1.522883e+01    5.639821e+00
  1.524471e+01    5.771594e+00
  1.526058e+01    5.803909e+00
  1.527646e+01    5.705127e+00
  1.529233e+01    5.465040e+00
  1.530821e+01    5.204694e+00
  1.532409e+01    4.639520e+00
  1.533996e+01    4.193980e+00
  1.535584e+01    3.779342e+00
  1.537171e+01    3.413049e+00
  1.538759e+01    3.174822e+00
  1.540346e+01    2.960830e+00
  1.541934e+01    2.761573e+00
  1.543521e+01    2.631905e+00
  1.545109e+01    2.557390e+00
  1.546697e+01    2.457117e+00
  1.548284e+01    2.390243e+00
  1.549872e+01    2.325510e+00
  1.551459e+01    2.272432e+00
  1.553047e+01    2.242410e+00
  1.554634e+01    2.206111e+00
  1.556222e+01    2.165388e+00
  1.557809e+01    2.146248e+00
  1.559397e+01    2.107682e+00
  1.560985e+01    2.065041e+00
  1.562572e+01    2.046218e+00
  1.564160e+01    2.040815e+00
  1.565747e+01    2.031667e+00
  1.567335e+01    1.998075e+00
  1.568922e+01    2.022536e+00
  1.570510e+01    1.995674e+00
  1.572097e+01    2.016944e+00
  1.573685e+01    2.002043e+00
  1.575273e+01    1.970096e+00
  1.576860e+01    1.955950e+00
  1.578448e+01    1.966282e+00
  1.580035e+01    1.957495e+00
  1.581623e+01    1.975997e+00
  1.583210e+01    1.961205e+00
  1.584798e+01    1.926682e+00
  1.586385e+01    1.925717e+00
  1.587973e+01    1.950419e+00
  1.589561e+01    1.900581e+00
  1.591148e+01    1.894412e+00
  1.592736e+01    1.877807e+00
  1.594323e+01    1.872334e+00
  1.595911e+01    1.883116e+00
  1.597498e+01    1.860252e+00
  1.599086e+01    1.878911e+00
  1.600673e+01    1.881968e+00
  1.602261e+01    1.874413e+00
  1.603849e+01    1.885928e+00
  1.605436e+01    1.851742e+00
  1.607024e+01    1.854439e+00
  1.608611e+01    1.825732e+00
  1.610199e+01    1.833017e+00
  1.611786e+01    1.862101e+00
  1.613374e+01    1.859945e+00
  1.614961e+01    1.842827e+00
  1.616549e+01    1.850789e+00
  1.618137e+01    1.834439e+00
  1.619724e+01    1.824388e+00
  1.621312e+01    1.840972e+00
  1.622899e+01    1.831636e+00
  1.624487e+01    1.804847e+00
  1.626074e+01    1.849583e+00
  1.627662e+01    1.876773e+00
  1.629250e+01    1.837573e+00
  1.630837e+01    1.810695e+00
  1.632425e+01    1.798818e+00
  1.634012e+01    1.796522e+00
  1.635600e+01    1.784887e+00
  1.637187e+01    1.809307e+00
  1.638775e+01    1.796831e+00
  1.640362e+01    1.780983e+00
  1.641950e+01    1.764081e+00
  1.643538e+01    1.806892e+00
  1.645125e+01    1.818855e+00
  1.646713e+01    1.777413e+00
  1.648300e+01    1.755906e+00
  1.649888e+01    1.754742e+00
  1.651475e+01    1.751566e+00
  1.653063e+01    1.774933e+00
  1.654650e+01    1.761361e+00
  1.656238e+01    1.738782e+00
  1.657826e+01    1.744805e+00
  1.659413e+01    1.739141e+00
  1.661001e+01    1.715373e+00
  1.662588e+01    1.721885e+00
  1.664176e+01    1.747066e+00
  1.665763e+01    1.770237e+00
  1.667351e+01    1.749299e+00
  1.668938e+01    1.728956e+00
  1.670526e+01    1.732823e+00
  1.672114e+01    1.707489e+00
  1.673701e+01    1.714580e+00
  1.675289e+01    1.730650e+00
  1.676876e+01    1.729117e+00
  1.678464e+01    1.735889e+00
  1.680051e+01    1.704123e+00
  1.681639e+01    1.671110e+00
  1.683226e+01    1.683125e+00
  1.684814e+01    1.688549e+00
  1.686402e+01    1.697064e+00
  1.687989e+01    1.700919e+00
  1.689577e+01    1.717249e+00
  1.691164e+01    1.697508e+00
  1.692752e+01    1.685920e+00
  1.694339e+01    1.713715e+00
  1.695927e+01    1.703938e+00
  1.697514e+01    1.694418e+00
  1.699102e+01    1.647882e+00
  1.700690e+01    1.635097e+00
  1.702277e+01    1.672311e+00
  1.703865e+01    1.660807e+00
  1.705452e+01    1.626358e+00
  1.707040e+01    1.634293e+00
  1.708627e+01    1.630638e+00
  1.710215e+01    1.672694e+00
  1.711802e+01    1.658502e+00
  1.713390e+01    1.656201e+00
  1.714978e+01    1.672942e+00
  1.716565e+01    1.658194e+00
  1.718153e+01    1.606818e+00
  1.719740e+01    1.638677e+00
  1.721328e+01    1.643063e+00
  1.722915e+01    1.624434e+00
  1.724503e+01    1.633729e+00
  1.726091e+01    1.629445e+00
  1.727678e+01    1.603330e+00
  1.729266e+01    1.602263e+00
  1.730853e+01    1.608177e+00
  1.732441e+01    1.643976e+00
  1.734028e+01    1.602661e+00
  1.735616e+01    1.603435e+00
  1.737203e+01    1.629820e+00
  1.738791e+01    1.609200e+00
  1.740379e+01    1.643746e+00
  1.741966e+01    1.641207e+00
  1.743554e+01    1.622470e+00
  1.745141e+01    1.619405e+00
  1.746729e+01    1.546299e+00
  1.748316e+01    1.566459e+00
  1.749904e+01    1.600379e+00
  1.751491e+01    1.595070e+00
  1.753079e+01    1.603335e+00
  1.754667e+01    1.608541e+00
  1.756254e+01    1.600658e+00
  1.757842e+01    1.570072e+00
  1.759429e+01    1.569610e+00
  1.761017e+01    1.563330e+00
  1.762604e+01    1.559166e+00
  1.764192e+01    1.554378e+00
  1.765779e+01    1.594368e+00
  1.767367e+01    1.587621e+00
  1.768955e+01    1.530121e+00
  1.770542e+01    1.552230e+00
  1.772130e+01    1.558139e+00
  1.773717e+01    1.543272e+00
  1.775305e+01    1.559882e+00
  1.776892e+01    1.549665e+00
  1.778480e+01    1.517186e+00
  1.780067e+01    1.527605e+00
  1.781655e+01    1.519035e+00
  1.783243e+01    1.543803e+00
  1.784830e+01    1.524424e+00
  1.786418e+01    1.539178e+00
  1.788005e+01    1.550590e+00
  1.789593e+01    1.542140e+00
  1.791180e+01    1.547940e+00
  1.792768e+01    1.504103e+00
  1.794355e+01    1.517926e+00
  1.795943e+01    1.522166e+00
  1.797531e+01    1.515725e+00
  1.799118e+01    1.516872e+00
  1.800706e+01    1.518662e+00
  1.802293e+01    1.525573e+00
  1.803881e+01    1.527508e+00
  1.805468e+01    1.499914e+00
  1.807056e+01    1.507132e+00
  1.808643e+01    1.517760e+00
  1.810231e+01    1.471273e+00
  1.811819e+01    1.490572e+00
  1.813406e+01    1.455622e+00
  1.814994e+01    1.466715e+00
  1.816581e+01    1.495871e+00
  1.818169e+01    1.499896e+00
  1.819756e+01    1.525782e+00
  1.821344e+01    1.473235e+00
  1.822932e+01    1.476050e+00
  1.824519e+01    1.518287e+00
  1.826107e+01    1.462644e+00
  1.827694e+01    1.439671e+00
  1.829282e+01    1.474677e+00
  1.830869e+01    1.468150e+00
  1.832457e+01    1.483795e+00
  1.834044e+01    1.497653e+00
  1.835632e+01    1.484086e+00
  1.837220e+01    1.474622e+00
  1.838807e+01    1.461759e+00
  1.840395e+01    1.477100e+00
  1.841982e+01    1.464980e+00
  1.843570e+01    1.453875e+00
  1.845157e+01    1.455594e+00
  1.846745e+01    1.444130e+00
  1.848332e+01    1.437068e+00
  1.849920e+01    1.455241e+00
  1.851508e+01    1.466239e+00
  1.853095e+01    1.434904e+00
  1.854683e+01    1.434973e+00
  1.856270e+01    1.416251e+00
  1.857858e+01    1.434154e+00
  1.859445e+01    1.424121e+00
  1.861033e+01    1.410698e+00
  1.862620e+01    1.420689e+00
  1.864208e+01    1.436981e+00
  1.865796e+01    1.433068e+00
  1.867383e+01    1.418245e+00
  1.868971e+01    1.409323e+00
  1.870558e+01    1.415469e+00
  1.872146e+01    1.448930e+00
  1.873733e+01    1.403501e+00
  1.875321e+01    1.399316e+00
  1.876908e+01    1.380244e+00
  1.878496e+01    1.413519e+00
  1.880084e+01    1.419568e+00
  1.881671e+01    1.419171e+00
  1.883259e+01    1.424314e+00
  1.884846e+01    1.435470e+00
  1.886434e+01    1.423894e+00
  1.888021e+01    1.419275e+00
  1.889609e+01    1.400876e+00
  1.891196e+01    1.381995e+00
  1.892784e+01    1.390872e+00
  1.894372e+01    1.411639e+00
  1.895959e+01    1.421076e+00
  1.897547e+01    1.412524e+00
  1.899134e+01    1.399755e+00
  1.900722e+01    1.385069e+00
  1.902309e+01    1.402113e+00
  1.903897e+01    1.420244e+00
  1.905484e+01    1.379881e+00
  1.907072e+01    1.348224e+00
  1.908660e+01    1.345860e+00
  1.910247e+01    1.352244e+00
  1.911835e+01    1.350058e+00
  1.913422e+01    1.367592e+00
  1.915010e+01    1.387653e+00
  1.916597e+01    1.377009e+00
  1.918185e+01    1.380832e+00
  1.919773e+01    1.379236e+00
  1.921360e+01    1.339933e+00
  1.922948e+01    1.331681e+00
  1.924535e+01    1.356261e+00
  1.926123e+01    1.381093e+00
  1.927710e+01    1.371613e+00
  1.929298e+01    1.374157e+00
  1.930885e+01    1.376043e+00
  1.932473e+01    1.354934e+00
  1.934061e+01    1.374950e+00
  1.935648e+01    1.355695e+00
  1.937236e+01    1.331800e+00
  1.938823e+01    1.327840e+00
  1.940411e+01    1.340577e+00
  1.941998e+01    1.327479e+00
  1.943586e+01    1.363015e+00
  1.945173e+01    1.352840e+00
  1.946761e+01    1.339755e+00
  1.948349e+01    1.334425e+00
  1.949936e+01    1.344973e+00
  1.951524e+01    1.351415e+00
  1.953111e+01    1.330480e+00
  1.954699e+01    1.337821e+00
  1.956286e+01    1.326497e+00
  1.957874e+01    1.346002e+00
  1.959461e+01    1.345043e+00
  1.961049e+01    1.323240e+00
  1.962637e+01    1.333075e+00
  1.964224e+01    1.340209e+00
  1.965812e+01    1.325946e+00
  1.967399e+01    1.315835e+00
  1.968987e+01    1.332095e+00
  1.970574e+01    1.304671e+00
  1.972162e+01    1.313956e+00
  1.973749e+01    1.348765e+00
  1.975337e+01    1.338120e+00
  1.976925e+01    1.297656e+00
  1.978512e+01    1.276042e+00
  1.980100e+01    1.279029e+00
  1.981687e+01    1.287862e+00
  1.983275e+01    1.315319e+00
  1.984862e+01    1.305773e+00
  1.986450e+01    1.327041e+00
  1.988037e+01    1.317111e+00
  1.989625e+01    1.311667e+00
  1.991213e+01    1.302690e+00
  1.992800e+01    1.299155e+00
  1.994388e+01    1.304474e+00
  1.995975e+01    1.284093e+00
  1.997563e+01    1.302739e+00
  1.999150e+01    1.310364e+00
  2.000738e+01    1.296252e+00
  2.002325e+01    1.277867e+00
  2.003913e+01    1.266920e+00
  2.005501e+01    1.259767e+00
  2.007088e+01    1.255450e+00
  2.008676e+01    1.248813e+00
  2.010263e+01    1.274563e+00
  2.011851e+01    1.305316e+00
  2.013438e+01    1.290918e+00
  2.015026e+01    1.265049e+00
  2.016614e+01    1.280371e+00
  2.018201e+01    1.275437e+00
  2.019789e+01    1.269043e+00
  2.021376e+01    1.268139e+00
  2.022964e+01    1.251334e+00
  2.024551e+01    1.247420e+00
  2.026139e+01    1.234096e+00
  2.027726e+01    1.273507e+00
  2.029314e+01    1.255875e+00
  2.030902e+01    1.266431e+00
  2.032489e+01    1.263800e+00
  2.034077e+01    1.265103e+00
  2.035664e+01    1.238695e+00
  2.037252e+01    1.267518e+00
  2.038839e+01    1.245048e+00
  2.040427e+01    1.258152e+00
  2.042014e+01    1.250332e+00
  2.043602e+01    1.248019e+00
  2.045190e+01    1.248916e+00
  2.046777e+01    1.252836e+00
  2.048365e+01    1.239072e+00
  2.049952e+01    1.211303e+00
  2.051540e+01    1.240864e+00
  2.053127e+01    1.226109e+00
  2.054715e+01    1.218034e+00
  2.056302e+01    1.234445e+00
  2.057890e+01    1.217703e+00
  2.059478e+01    1.240311e+00
  2.061065e+01    1.225835e+00
  2.062653e+01    1.219507e+00
  2.064240e+01    1.210945e+00
  2.065828e+01    1.216236e+00
  2.067415e+01    1.235289e+00
  2.069003e+01    1.241506e+00
  2.070590e+01    1.208136e+00
  2.072178e+01    1.238582e+00
  2.073766e+01    1.245993e+00
  2.075353e+01    1.237950e+00
  2.076941e+01    1.212928e+00
  2.078528e+01    1.223201e+00
  2.080116e+01    1.225746e+00
  2.081703e+01    1.233983e+00
  2.083291e+01    1.268552e+00
  2.084878e+01    1.242950e+00
  2.086466e+01    1.229380e+00
  2.088054e+01    1.245721e+00
  2.089641e+01    1.233870e+00
  2.091229e+01    1.224034e+00
  2.092816e+01    1.225159e+00
  2.094404e+01    1.245747e+00
  2.095991e+01    1.249797e+00
  2.097579e+01    1.256484e+00
  2.099166e+01    1.230523e+00
  2.100754e+01    1.215359e+00
  2.102342e+01    1.212502e+00
  2.103929e+01    1.207485e+00
  2.105517e+01    1.211215e+00
  2.107104e+01    1.233564e+00
  2.108692e+01    1.243544e+00
  2.110279e+01    1.228608e+00
  2.111867e+01    1.223006e+00
  2.113455e+01    1.230778e+00
  2.115042e+01    1.239108e+00
  2.116630e+01    1.236909e+00
  2.118217e+01    1.239283e+00
  2.119805e+01    1.239341e+00
  2.121392e+01    1.219050e+00
  2.122980e+01    1.240069e+00
  2.124567e+01    1.236790e+00
  2.126155e+01    1.237525e+00
  2.127743e+01    1.252645e+00
  2.129330e+01    1.251782e+00
  2.130918e+01    1.262723e+00
  2.132505e+01    1.294171e+00
  2.134093e+01    1.271233e+00
  2.135680e+01    1.281793e+00
  2.137268e+01    1.293371e+00
  2.138855e+01    1.298899e+00
  2.140443e+01    1.322144e+00
  2.142031e+01    1.345524e+00
  2.143618e+01    1.388479e+00
  2.145206e+01    1.387293e+00
  2.146793e+01    1.386598e+00
  2.148381e+01    1.412290e+00
  2.149968e+01    1.407292e+00
  2.151556e+01    1.457667e+00
  2.153143e+01    1.489471e+00
  2.154731e+01    1.507794e+00
  2.156319e+01    1.537716e+00
  2.157906e+01    1.632358e+00
  2.159494e+01    1.697508e+00
  2.161081e+01    1.750970e+00
  2.162669e+01    1.837853e+00
  2.164256e+01    1.966864e+00
  2.165844e+01    2.097270e+00
  2.167431e+01    2.273964e+00
  2.169019e+01    2.490765e+00
  2.170607e+01    2.746953e+00
  2.172194e+01    3.101005e+00
  2.173782e+01    3.557835e+00
  2.175369e+01    4.023813e+00
  2.176957e+01    4.583067e+00
  2.178544e+01    5.202412e+00
  2.180132e+01    5.870294e+00
  2.181719e+01    6.557653e+00
  2.183307e+01    7.158700e+00
  2.184895e+01    7.779527e+00
  2.186482e+01    8.436171e+00
  2.188070e+01    8.795004e+00
  2.189657e+01    8.858488e+00
  2.191245e+01    8.758656e+00
  2.192832e+01    8.286110e+00
  2.194420e+01    7.531872e+00
  2.196007e+01    6.644165e+00
  2.197595e+01    5.719942e+00
  2.199183e+01    4.917247e+00
  2.200770e+01    4.227539e+00
  2.202358e+01    3.651722e+00
  2.203945e+01    3.208838e+00
  2.205533e+01    2.834088e+00
  2.207120e+01    2.555253e+00
  2.208708e+01    2.328547e+00
  2.210296e+01    2.143429e+00
  2.211883e+01    1.984255e+00
  2.213471e+01    1.863213e+00
  2.215058e+01    1.791090e+00
  2.216646e+01    1.697029e+00
  2.218233e+01    1.624508e+00
  2.219821e+01    1.576112e+00
  2.221408e+01    1.504122e+00
  2.222996e+01    1.444538e+00
  2.224584e+01    1.403605e+00
  2.226171e+01    1.371673e+00
  2.227759e+01    1.329277e+00
  2.229346e+01    1.283634e+00
  2.230934e+01    1.274100e+00
  2.232521e+01    1.284020e+00
  2.234109e+01    1.259055e+00
  2.235696e+01    1.270121e+00
  2.237284e+01    1.242808e+00
  2.238872e+01    1.220210e+00
  2.240459e+01    1.200189e+00
  2.242047e+01    1.189155e+00
  2.243634e+01    1.190695e+00
  2.245222e+01    1.177253e+00
  2.246809e+01    1.167487e+00
  2.248397e+01    1.164217e+00
  2.249984e+01    1.175496e+00
  2.251572e+01    1.172508e+00
  2.253160e+01    1.131585e+00
  2.254747e+01    1.123703e+00
  2.256335e+01    1.143960e+00
  2.257922e+01    1.122503e+00
  2.259510e+01    1.095288e+00
  2.261097e+01    1.101639e+00
  2.262685e+01    1.094869e+00
  2.264272e+01    1.111003e+00
  2.265860e+01    1.104341e+00
  2.267448e+01    1.104569e+00
  2.269035e+01    1.086330e+00
  2.270623e+01    1.079935e+00
  2.272210e+01    1.073073e+00
  2.273798e+01    1.070113e+00
  2.275385e+01    1.066450e+00
  2.276973e+01    1.075126e+00
  2.278560e+01    1.062411e+00
  2.280148e+01    1.076529e+00
  2.281736e+01    1.062434e+00
  2.283323e+01    1.067563e+00
  2.284911e+01    1.040992e+00
  2.286498e+01    1.013606e+00
  2.288086e+01    1.021676e+00
  2.289673e+01    1.020950e+00
  2.291261e+01    1.022865e+00
  2.292848e+01    1.018699e+00
  2.294436e+01    1.018348e+00
  2.296024e+01    1.014921e+00
  2.297611e+01    1.023252e+00
  2.299199e+01    1.015879e+00
  2.300786e+01    1.005418e+00
  2.302374e+01    1.017886e+00
  2.303961e+01    9.861053e-01
  2.305549e+01    9.902497e-01
  2.307137e+01    1.021833e+00
  2.308724e+01    1.019709e+00
  2.310312e+01    1.025717e+00
  2.311899e+01    1.007759e+00
  2.313487e+01    1.011429e+00
  2.315074e+01    1.006992e+00
  2.316662e+01    1.015603e+00
  2.318249e+01    9.897698e-01
  2.319837e+01    1.012563e+00
  2.321425e+01    9.969692e-01
  2.323012e+01    9.843079e-01
  2.324600e+01    9.848668e-01
  2.326187e+01    9.852305e-01
  2.327775e+01    9.977581e-01
  2.329362e+01    9.982274e-01
  2.330950e+01    9.690260e-01
  2.332537e+01    9.669220e-01
  2.334125e+01    1.004792e+00
  2.335713e+01    9.771178e-01
  2.337300e+01    9.949791e-01
  2.338888e+01    9.774286e-01
  2.340475e+01    9.730294e-01
  2.342063e+01    9.668698e-01
  2.343650e+01    9.631774e-01
  2.345238e+01    9.558062e-01
  2.346825e+01    9.570594e-01
  2.348413e+01    9.683329e-01
  2.350001e+01    9.703575e-01
  2.351588e+01    9.719886e-01
  2.353176e+01    9.503569e-01
  2.354763e+01    9.557947e-01
  2.356351e+01    9.904124e-01
  2.357938e+01    9.701579e-01
  2.359526e+01    9.566650e-01
  2.361113e+01    9.585203e-01
  2.362701e+01    9.666864e-01
  2.364289e+01    9.441732e-01
  2.365876e+01    9.590799e-01
  2.367464e+01    9.488282e-01
  2.369051e+01    9.472176e-01
  2.370639e+01    9.375256e-01
  2.372226e+01    9.383327e-01
  2.373814e+01    9.289593e-01
  2.375401e+01    9.293333e-01
  2.376989e+01    9.248377e-01
  2.378577e+01    9.099224e-01
  2.380164e+01    9.181318e-01
  2.381752e+01    9.301191e-01
  2.383339e+01    9.180494e-01
  2.384927e+01    9.169465e-01
  2.386514e+01    9.183363e-01
  2.388102e+01    9.193266e-01
  2.389689e+01    9.264386e-01
  2.391277e+01    9.247453e-01
  2.392865e+01    8.897666e-01
  2.394452e+01    8.941359e-01
  2.396040e+01    9.058889e-01
  2.397627e+01    9.036854e-01
  2.399215e+01    8.962305e-01
  2.400802e+01    9.017494e-01
  2.402390e+01    9.183333e-01
  2.403978e+01    9.064897e-01
  2.405565e+01    8.882634e-01
  2.407153e+01    8.994707e-01
  2.408740e+01    9.075179e-01
  2.410328e+01    9.086856e-01
  2.411915e+01    8.775685e-01
  2.413503e+01    8.847654e-01
  2.415090e+01    8.812133e-01
  2.416678e+01    8.752699e-01
  2.418266e+01    8.977742e-01
  2.419853e+01    9.031250e-01
  2.421441e+01    8.906451e-01
  2.423028e+01    8.974088e-01
  2.424616e+01    8.955973e-01
  2.426203e+01    9.009829e-01
  2.427791e+01    9.011908e-01
  2.429378e+01    9.019408e-01
  2.430966e+01    9.185304e-01
  2.432554e+01    9.119569e-01
  2.434141e+01    8.895142e-01
  2.435729e+01    8.914750e-01
  2.437316e+01    9.037171e-01
  2.438904e+01    8.994769e-01
  2.440491e+01    9.063246e-01
  2.442079e+01    8.914437e-01
  2.443666e+01    9.100761e-01
  2.445254e+01    9.211611e-01
  2.446842e+01    9.064043e-01
  2.448429e+01    9.156440e-01
  2.450017e+01    9.032997e-01
  2.451604e+01    8.910844e-01
  2.453192e+01    9.017359e-01
  2.454779e+01    9.053825e-01
  2.456367e+01    8.820265e-01
  2.457954e+01    8.767331e-01
  2.459542e+01    8.758464e-01
  2.461130e+01    8.915091e-01
  2.462717e+01    8.866035e-01
  2.464305e+01    8.959955e-01
  2.465892e+01    9.069803e-01
  2.467480e+01    9.046163e-01
  2.469067e+01    9.006554e-01
  2.470655e+01    9.088334e-01
  2.472242e+01    8.989311e-01
  2.473830e+01    8.798581e-01
  2.475418e+01    8.730948e-01
  2.477005e+01    8.668441e-01
  2.478593e+01    8.945317e-01
  2.480180e+01    9.004875e-01
  2.481768e+01    9.004375e-01
  2.483355e+01    8.911498e-01
  2.484943e+01    8.798795e-01
  2.486530e+01    9.041095e-01
  2.488118e+01    9.239776e-01
  2.489706e+01    8.855712e-01
  2.491293e+01    8.911576e-01
  2.492881e+01    9.036530e-01
  2.494468e+01    8.974838e-01
  2.496056e+01    9.021045e-01
  2.497643e+01    9.096754e-01
  2.499231e+01    8.957243e-01
  2.500819e+01    8.979331e-01
  2.502406e+01    9.075362e-01
  2.503994e+01    9.121780e-01
  2.505581e+01    9.023694e-01
  2.507169e+01    9.128706e-01
  2.508756e+01    8.934574e-01
  2.510344e+01    9.096832e-01
  2.511931e+01    9.210683e-01
  2.513519e+01    9.261809e-01
  2.515107e+01    9.129995e-01
  2.516694e+01    9.200462e-01
  2.518282e+01    9.279124e-01
  2.519869e+01    8.988361e-01
  2.521457e+01    9.184114e-01
  2.523044e+01    9.258084e-01
  2.524632e+01    9.389428e-01
  2.526219e+01    9.306914e-01
  2.527807e+01    9.227215e-01
  2.529395e+01    9.511867e-01
  2.530982e+01    9.630066e-01
  2.532570e+01    9.637151e-01
  2.534157e+01    9.728497e-01
  2.535745e+01    9.658524e-01
  2.537332e+01    9.966763e-01
  2.538920e+01    9.949450e-01
  2.540507e+01    1.006032e+00
  2.542095e+01    1.002642e+00
  2.543683e+01    1.004671e+00
  2.545270e+01    1.026122e+00
  2.546858e+01    1.031580e+00
  2.548445e+01    1.041977e+00
  2.550033e+01    1.068490e+00
  2.551620e+01    1.083068e+00
  2.553208e+01    1.080122e+00
  2.554795e+01    1.092020e+00
  2.556383e+01    1.137796e+00
  2.557971e+01    1.169859e+00
  2.559558e+01    1.177050e+00
  2.561146e+01    1.234074e+00
  2.562733e+01    1.255079e+00
  2.564321e+01    1.293615e+00
  2.565908e+01    1.338467e+00
  2.567496e+01    1.408152e+00
  2.569083e+01    1.519800e+00
  2.570671e+01    1.607284e+00
  2.572259e+01    1.700169e+00
  2.573846e+01    1.839482e+00
  2.575434e+01    2.013175e+00
  2.577021e+01    2.220124e+00
  2.578609e+01    2.498598e+00
  2.580196e+01    2.801897e+00
  2.581784e+01    3.164698e+00
  2.583371e+01    3.579162e+00
  2.584959e+01    4.142541e+00
  2.586547e+01    4.678084e+00
  2.588134e+01    5.209039e+00
  2.589722e+01    5.776402e+00
  2.591309e+01    6.329847e+00
  2.592897e+01    6.785129e+00
  2.594484e+01    7.034743e+00
  2.596072e+01    7.166169e+00
  2.597660e+01    7.011337e+00
  2.599247e+01    6.595551e+00
  2.600835e+01    6.016860e+00
  2.602422e+01    5.379919e+00
  2.604010e+01    4.654860e+00
  2.605597e+01    3.972103e+00
  2.607185e+01    3.499723e+00
  2.608772e+01    3.057308e+00
  2.610360e+01    2.691503e+00
  2.611948e+01    2.403312e+00
  2.613535e+01    2.151327e+00
  2.615123e+01    1.961061e+00
  2.616710e+01    1.821401e+00
  2.618298e+01    1.718334e+00
  2.619885e+01    1.600885e+00
  2.621473e+01    1.485551e+00
  2.623060e+01    1.397586e+00
  2.624648e+01    1.354095e+00
  2.626236e+01    1.329190e+00
  2.627823e+01    1.255214e+00
  2.629411e+01    1.216268e+00
  2.630998e+01    1.184854e+00
  2.632586e+01    1.163738e+00
  2.634173e+01    1.132839e+00
  2.635761e+01    1.096952e+00
  2.637348e+01    1.081903e+00
  2.638936e+01    1.064564e+00
  2.640524e+01    1.057494e+00
  2.642111e+01    1.046400e+00
  2.643699e+01    1.023814e+00
  2.645286e+01    1.038847e+00
  2.646874e+01    1.020101e+00
  2.648461e+01    1.021889e+00
  2.650049e+01    1.019557e+00
  2.651636e+01    1.014971e+00
  2.653224e+01    1.001727e+00
  2.654812e+01    9.923213e-01
  2.656399e+01    9.933230e-01
  2.657987e+01    9.889473e-01
  2.659574e+01    9.770388e-01
  2.661162e+01    9.777490e-01
  2.662749e+01    9.814345e-01
  2.664337e+01    9.897924e-01
  2.665924e+01    9.648441e-01
  2.667512e+01    9.687077e-01
  2.669100e+01    9.703038e-01
  2.670687e+01    9.686238e-01
  2.672275e+01    9.620160e-01
  2.673862e+01    9.650404e-01
  2.675450e+01    9.895384e-01
  2.677037e+01    9.797584e-01
  2.678625e+01    9.924030e-01
  2.680212e+01    9.688917e-01
  2.681800e+01    9.902034e-01
  2.683388e+01    9.711703e-01
  2.684975e+01    9.896677e-01
  2.686563e+01    1.004734e+00
  2.688150e+01    1.001666e+00
  2.689738e+01    1.025090e+00
  2.691325e+01    1.023524e+00
  2.692913e+01    1.022589e+00
  2.694501e+01    1.014137e+00
  2.696088e+01    1.062536e+00
  2.697676e+01    1.062651e+00
  2.699263e+01    1.079866e+00
  2.700851e+01    1.102270e+00
  2.702438e+01    1.167853e+00
  2.704026e+01    1.215480e+00
  2.705613e+01    1.248604e+00
  2.707201e+01    1.292421e+00
  2.708789e+01    1.389226e+00
  2.710376e+01    1.481004e+00
  2.711964e+01    1.590886e+00
  2.713551e+01    1.707685e+00
  2.715139e+01    1.841202e+00
  2.716726e+01    1.959680e+00
  2.718314e+01    2.068830e+00
  2.719901e+01    2.123210e+00
  2.721489e+01    2.173742e+00
  2.723077e+01    2.177083e+00
  2.724664e+01    2.080476e+00
  2.726252e+01    1.973063e+00
  2.727839e+01    1.820016e+00
  2.729427e+01    1.694766e+00
  2.731014e+01    1.568961e+00
  2.732602e+01    1.459360e+00
  2.734189e+01    1.349213e+00
  2.735777e+01    1.292391e+00
  2.737365e+01    1.231419e+00
  2.738952e+01    1.173417e+00
  2.740540e+01    1.111470e+00
  2.742127e+01    1.085493e+00
  2.743715e+01    1.073818e+00
  2.745302e+01    1.054471e+00
  2.746890e+01    1.031305e+00
  2.748477e+01    1.001775e+00
  2.750065e+01    9.919130e-01
  2.751653e+01    9.732852e-01
  2.753240e+01    9.600385e-01
  2.754828e+01    9.407455e-01
  2.756415e+01    9.401990e-01
  2.758003e+01    9.477206e-01
  2.759590e+01    9.333696e-01
  2.761178e+01    9.155412e-01
  2.762765e+01    9.328792e-01
  2.764353e+01    9.248372e-01
  2.765941e+01    9.029946e-01
  2.767528e+01    9.324040e-01
  2.769116e+01    9.080307e-01
  2.770703e+01    9.028147e-01
  2.772291e+01    8.987883e-01
  2.773878e+01    8.997782e-01
  2.775466e+01    9.110792e-01
  2.777054e+01    9.037753e-01
  2.778641e+01    8.923783e-01
  2.780229e+01    8.993541e-01
  2.781816e+01    9.001983e-01
  2.783404e+01    8.846181e-01
  2.784991e+01    8.680669e-01
  2.786579e+01    8.835470e-01
  2.788166e+01    8.927549e-01
  2.789754e+01    9.015847e-01
  2.791342e+01    8.831289e-01
  2.792929e+01    8.816139e-01
  2.794517e+01    8.525780e-01
  2.796104e+01    8.828377e-01
  2.797692e+01    8.666208e-01
  2.799279e+01    8.706850e-01
  2.800867e+01    8.824694e-01
  2.802454e+01    8.801118e-01
  2.804042e+01    8.691804e-01
  2.805630e+01    8.692452e-01
  2.807217e+01    8.921328e-01
  2.808805e+01    8.700298e-01
  2.810392e+01    8.745015e-01
  2.811980e+01    8.682076e-01
  2.813567e+01    8.546422e-01
  2.815155e+01    8.662230e-01
  2.816742e+01    8.799402e-01
  2.818330e+01    8.634986e-01
  2.819918e+01    8.706876e-01
  2.821505e+01    8.821653e-01
  2.823093e+01    8.600984e-01
  2.824680e+01    8.504148e-01
  2.826268e+01    8.665097e-01
  2.827855e+01    8.619430e-01
  2.829443e+01    8.569112e-01
  2.831030e+01    8.562820e-01
  2.832618e+01    8.389845e-01
  2.834206e+01    8.553521e-01
  2.835793e+01    8.741785e-01
  2.837381e+01    8.632742e-01
  2.838968e+01    8.551791e-01
  2.840556e+01    8.548973e-01
  2.842143e+01    8.399848e-01
  2.843731e+01    8.389364e-01
  2.845318e+01    8.525121e-01
  2.846906e+01    8.448641e-01
  2.848494e+01    8.434713e-01
  2.850081e+01    8.471533e-01
  2.851669e+01    8.506274e-01
  2.853256e+01    8.415928e-01
  2.854844e+01    8.322517e-01
  2.856431e+01    8.436559e-01
  2.858019e+01    8.390321e-01
  2.859606e+01    8.334121e-01
  2.861194e+01    8.451173e-01
  2.862782e+01    8.361289e-01
  2.864369e+01    8.368257e-01
  2.865957e+01    8.415406e-01
  2.867544e+01    8.439953e-01
  2.869132e+01    8.431396e-01
  2.870719e+01    8.496253e-01
  2.872307e+01    8.537859e-01
  2.873895e+01    8.417274e-01
  2.875482e+01    8.278040e-01
  2.877070e+01    8.106828e-01
  2.878657e+01    8.164834e-01
  2.880245e+01    8.122744e-01
  2.881832e+01    8.535576e-01
  2.883420e+01    8.357569e-01
  2.885007e+01    8.136431e-01
  2.886595e+01    7.995417e-01
  2.888183e+01    8.158090e-01
  2.889770e+01    8.263184e-01
  2.891358e+01    8.294226e-01
  2.892945e+01    8.350391e-01
  2.894533e+01    8.103644e-01
  2.896120e+01    8.089924e-01
  2.897708e+01    8.359249e-01
  2.899295e+01    8.451716e-01
  2.900883e+01    8.294719e-01
  2.902471e+01    8.218965e-01
  2.904058e+01    8.181885e-01
  2.905646e+01    8.289564e-01
  2.907233e+01    8.458522e-01
  2.908821e+01    8.437043e-01
  2.910408e+01    8.375646e-01
  2.911996e+01    8.171970e-01
  2.913583e+01    8.053927e-01
  2.915171e+01    8.338765e-01
  2.916759e+01    8.280195e-01
  2.918346e+01    8.111540e-01
  2.919934e+01    8.001898e-01
  2.921521e+01    8.054991e-01
  2.923109e+01    8.271131e-01
  2.924696e+01    8.162996e-01
  2.926284e+01    8.090010e-01
  2.927871e+01    8.079962e-01
  2.929459e+01    8.191061e-01
  2.931047e+01    8.144807e-01
  2.932634e+01    8.028748e-01
  2.934222e+01    7.896656e-01
  2.935809e+01    8.104768e-01
  2.937397e+01    8.257348e-01
  2.938984e+01    8.245243e-01
  2.940572e+01    8.146049e-01
  2.942159e+01    8.077766e-01
  2.943747e+01    8.028225e-01
  2.945335e+01    8.280632e-01
  2.946922e+01    8.112829e-01
  2.948510e+01    8.143750e-01
  2.950097e+01    7.899063e-01
  2.951685e+01    8.086359e-01
  2.953272e+01    7.958694e-01
  2.954860e+01    8.175573e-01
  2.956447e+01    8.223918e-01
  2.958035e+01    8.265706e-01
  2.959623e+01    8.194450e-01
  2.961210e+01    8.060561e-01
  2.962798e+01    8.184515e-01
  2.964385e+01    8.120174e-01
  2.965973e+01    8.147639e-01
  2.967560e+01    7.938855e-01
  2.969148e+01    8.039616e-01
  2.970736e+01    8.131555e-01
  2.972323e+01    7.967381e-01
  2.973911e+01    7.894412e-01
  2.975498e+01    7.963893e-01
  2.977086e+01    7.867901e-01
  2.978673e+01    7.980249e-01
  2.980261e+01    8.165827e-01
  2.981848e+01    8.073141e-01
  2.983436e+01    7.981450e-01
  2.985024e+01    8.108918e-01
  2.986611e+01    8.114089e-01
  2.988199e+01    7.936023e-01
  2.989786e+01    7.901270e-01
  2.991374e+01    8.094578e-01
  2.992961e+01    7.852990e-01
  2.994549e+01    8.104146e-01
  2.996136e+01    8.073835e-01
  2.997724e+01    8.059012e-01
  2.999312e+01    8.261709e-01
  3.000899e+01    8.242269e-01
  3.002487e+01    8.051931e-01
  3.004074e+01    8.195946e-01
  3.005662e+01    8.081267e-01
  3.007249e+01    8.206041e-01
  3.008837e+01    8.012016e-01
  3.010424e+01    8.000404e-01
  3.012012e+01    7.961887e-01
  3.013600e+01    7.829262e-01
  3.015187e+01    7.851906e-01
  3.016775e+01    7.924160e-01
  3.018362e+01    7.932764e-01
  3.019950e+01    7.810726e-01
  3.021537e+01    7.945512e-01
  3.023125e+01    7.924678e-01
  3.024712e+01    7.974445e-01
  3.026300e+01    8.041750e-01
  3.027888e+01    7.915669e-01
  3.029475e+01    7.775590e-01
  3.031063e+01    7.758991e-01
  3.032650e+01    7.795349e-01
  3.034238e+01    7.743364e-01
  3.035825e+01    7.967930e-01
  3.037413e+01    7.766402e-01
  3.039000e+01    7.896259e-01
  3.040588e+01    7.851120e-01
  3.042176e+01    7.912164e-01
  3.043763e+01    7.829456e-01
  3.045351e+01    8.109671e-01
  3.046938e+01    8.010481e-01
  3.048526e+01    7.819914e-01
  3.050113e+01    7.948707e-01
  3.051701e+01    8.102856e-01
  3.053288e+01    7.660012e-01
  3.054876e+01    7.861788e-01
  3.056464e+01    7.966526e-01
  3.058051e+01    7.986007e-01
  3.059639e+01    7.981175e-01
  3.061226e+01    8.035709e-01
  3.062814e+01    7.966570e-01
  3.064401e+01    8.003557e-01
  3.065989e+01    7.904518e-01
  3.067577e+01    7.835129e-01
  3.069164e+01    7.867303e-01
  3.070752e+01    8.038784e-01
  3.072339e+01    7.823125e-01
  3.073927e+01    7.853466e-01
  3.075514e+01    7.813862e-01
  3.077102e+01    7.837032e-01
  3.078689e+01    7.695462e-01
  3.080277e+01    7.887205e-01
  3.081865e+01    8.088222e-01
  3.083452e+01    7.667520e-01
  3.085040e+01    7.962483e-01
  3.086627e+01    7.926759e-01
  3.088215e+01    7.892199e-01
  3.089802e+01    7.870666e-01
  3.091390e+01    7.735853e-01
  3.092977e+01    7.748610e-01
  3.094565e+01    7.718599e-01
  3.096153e+01    7.811796e-01
  3.097740e+01    7.820332e-01
  3.099328e+01    8.010713e-01
  3.100915e+01    7.972782e-01
  3.102503e+01    7.891564e-01
  3.104090e+01    7.940888e-01
  3.105678e+01    7.805176e-01
  3.107265e+01    7.797579e-01
  3.108853e+01    7.877951e-01
  3.110441e+01    7.896801e-01
  3.112028e+01    7.747626e-01
  3.113616e+01    7.671615e-01
  3.115203e+01    7.751815e-01
  3.116791e+01    7.844710e-01
  3.118378e+01    7.836710e-01
  3.119966e+01    7.973526e-01
  3.121553e+01    7.853097e-01
  3.123141e+01    7.888933e-01
  3.124729e+01    8.101842e-01
  3.126316e+01    8.045726e-01
  3.127904e+01    7.990502e-01
  3.129491e+01    7.773753e-01
  3.131079e+01    8.207905e-01
  3.132666e+01    7.978843e-01
  3.134254e+01    8.096083e-01
  3.135841e+01    8.289908e-01
  3.137429e+01    8.339339e-01
  3.139017e+01    8.020273e-01
  3.140604e+01    7.974492e-01
  3.142192e+01    7.969441e-01
  3.143779e+01    8.060212e-01
  3.145367e+01    8.098515e-01
  3.146954e+01    8.013769e-01
  3.148542e+01    8.125434e-01
  3.150129e+01    7.942738e-01
  3.151717e+01    8.365207e-01
  3.153305e+01    8.532583e-01
  3.154892e+01    8.500279e-01
  3.156480e+01    8.784394e-01
  3.158067e+01    8.585817e-01
  3.159655e+01    8.594374e-01
  3.161242e+01    8.796363e-01
  3.162830e+01    8.937333e-01
  3.164418e+01    8.912562e-01
  3.166005e+01    9.539042e-01
  3.167593e+01    9.570099e-01
  3.169180e+01    1.022576e+00
  3.170768e+01    1.023456e+00
  3.172355e+01    1.070526e+00
  3.173943e+01    1.115741e+00
  3.175530e+01    1.186690e+00
  3.177118e+01    1.246464e+00
  3.178706e+01    1.339571e+00
  3.180293e+01    1.440017e+00
  3.181881e+01    1.587330e+00
  3.183468e+01    1.691018e+00
  3.185056e+01    1.825969e+00
  3.186643e+01    1.952435e+00
  3.188231e+01    2.054682e+00
  3.189818e+01    2.114117e+00
  3.191406e+01    2.124172e+00
  3.192994e+01    2.038678e+00
  3.194581e+01    1.946546e+00
  3.196169e+01    1.849764e+00
  3.197756e+01    1.719702e+00
  3.199344e+01    1.548178e+00
  3.200931e+01    1.402140e+00
  3.202519e+01    1.339125e+00
  3.204106e+01    1.262683e+00
  3.205694e+01    1.149824e+00
  3.207282e+01    1.102402e+00
  3.208869e+01    1.045495e+00
  3.210457e+01    9.884399e-01
  3.212044e+01    9.904481e-01
  3.213632e+01    9.568489e-01
  3.215219e+01    9.071323e-01
  3.216807e+01    8.865593e-01
  3.218394e+01    8.725610e-01
  3.219982e+01    8.676007e-01
  3.221570e+01    8.475769e-01
  3.223157e+01    8.401853e-01
  3.224745e+01    8.419137e-01
  3.226332e+01    8.402167e-01
  3.227920e+01    8.225664e-01
  3.229507e+01    8.135822e-01
  3.231095e+01    8.218350e-01
  3.232682e+01    8.012307e-01
  3.234270e+01    8.203255e-01
  3.235858e+01    7.916427e-01
  3.237445e+01    8.101983e-01
  3.239033e+01    8.149648e-01
  3.240620e+01    7.776039e-01
  3.242208e+01    7.890292e-01
  3.243795e+01    7.796094e-01
  3.245383e+01    7.791355e-01
  3.246970e+01    7.983767e-01
  3.248558e+01    8.067507e-01
  3.250146e+01    7.715966e-01
  3.251733e+01    7.757360e-01
  3.253321e+01    7.766476e-01
  3.254908e+01    7.672931e-01
