# == pyFAI calibration ==
# Distance Sample to Detector: 0.3999999939076516 m
# PONI: 9.750e-02, 1.135e-01 m
# Rotations: -0.000175 0.000000 -0.000000 rad
# 
# == Fit2d calibration ==
# Distance Sample-beamCenter: 400.000 mm
# Center: x=1514.000, y=1300.000 pix
# Tilt: 0.010 deg  TiltPlanRot: 0.010 deg
# 
# Detector Detector	 Spline= None	 PixelSize= 7.500e-05, 7.500e-05 m
#    Detector has a mask: False 
#    Detector has a dark current: False 
#    detector has a flat field: False 
# 
# Wavelength: 6.888e-11 m
# Mask applied: user provided
# Dark current applied: False
# Flat field applied: False
# Polarization factor: 0.99
# Normalization factor: 1.0
# --> /home/myspot/data/2024_07_Rosario/Ru-CGO-ex/2024-07-27_003_Ru-CGO-ex_Reaction_dwell_000023_data_000086.dat
#       q_nm^-1             I 
  2.003187e-02    7.711996e-02
  3.590745e-02    2.074008e-01
  5.178302e-02    1.741662e-01
  6.765859e-02    1.508677e-01
  8.353417e-02    1.058845e-01
  9.940974e-02    3.864487e-02
  1.152853e-01    4.397778e-03
  1.311609e-01    2.854345e-02
  1.470365e-01    2.844771e-02
  1.629120e-01    2.109055e-02
  1.787876e-01    0.000000e+00
  1.946632e-01    1.978156e-02
  2.105388e-01    7.735883e-02
  2.264143e-01    4.241559e-02
  2.422899e-01    3.792336e-02
  2.581655e-01    4.403565e-02
  2.740411e-01    3.916040e-02
  2.899166e-01    2.650900e-02
  3.057922e-01    6.456323e-03
  3.216678e-01    1.390588e-02
  3.375433e-01    1.667531e-02
  3.534189e-01    7.228426e-02
  3.692945e-01    3.642163e-02
  3.851701e-01    2.632117e-02
  4.010456e-01    2.968591e-02
  4.169212e-01    2.161232e-02
  4.327968e-01    5.919081e-02
  4.486724e-01    9.231184e-02
  4.645479e-01    5.399166e-02
  4.804235e-01    4.674470e-02
  4.962991e-01    2.343221e-02
  5.121747e-01    1.937742e-02
  5.280502e-01    4.054074e-02
  5.439258e-01    3.805484e-02
  5.598014e-01    4.713966e-02
  5.756770e-01    5.825760e-02
  5.915525e-01    3.904645e-02
  6.074281e-01    5.092790e-02
  6.233037e-01    3.221319e-02
  6.391793e-01    2.568253e-02
  6.550548e-01    3.343697e-02
  6.709304e-01    3.002438e-02
  6.868060e-01    4.302128e-02
  7.026815e-01    6.292924e-02
  7.185571e-01    5.774188e-02
  7.344327e-01    4.400352e-02
  7.503083e-01    5.313522e-02
  7.661838e-01    7.611720e-02
  7.820594e-01    9.357897e-02
  7.979350e-01    1.588534e-01
  8.138106e-01    2.067448e-01
  8.296861e-01    2.736924e-01
  8.455617e-01    3.803465e-01
  8.614373e-01    4.532497e-01
  8.773129e-01    4.845161e-01
  8.931884e-01    5.647013e-01
  9.090640e-01    6.726213e-01
  9.249396e-01    7.564488e-01
  9.408152e-01    8.023823e-01
  9.566907e-01    9.256858e-01
  9.725663e-01    9.921293e-01
  9.884419e-01    1.066527e+00
  1.004317e+00    1.207538e+00
  1.020193e+00    1.351426e+00
  1.036069e+00    1.439015e+00
  1.051944e+00    1.426690e+00
  1.067820e+00    1.553069e+00
  1.083695e+00    1.532288e+00
  1.099571e+00    1.601425e+00
  1.115446e+00    1.586328e+00
  1.131322e+00    1.644856e+00
  1.147198e+00    1.692042e+00
  1.163073e+00    1.716639e+00
  1.178949e+00    1.784248e+00
  1.194824e+00    1.866328e+00
  1.210700e+00    1.994305e+00
  1.226575e+00    2.175230e+00
  1.242451e+00    2.290720e+00
  1.258327e+00    2.556801e+00
  1.274202e+00    2.647141e+00
  1.290078e+00    2.716801e+00
  1.305953e+00    2.695715e+00
  1.321829e+00    2.710714e+00
  1.337705e+00    2.665881e+00
  1.353580e+00    2.910671e+00
  1.369456e+00    2.837644e+00
  1.385331e+00    2.659113e+00
  1.401207e+00    2.884447e+00
  1.417082e+00    3.013105e+00
  1.432958e+00    2.943910e+00
  1.448834e+00    3.016953e+00
  1.464709e+00    3.007646e+00
  1.480585e+00    3.101904e+00
  1.496460e+00    3.048358e+00
  1.512336e+00    3.013053e+00
  1.528211e+00    3.110586e+00
  1.544087e+00    3.228945e+00
  1.559963e+00    3.234933e+00
  1.575838e+00    3.267192e+00
  1.591714e+00    3.141133e+00
  1.607589e+00    3.282912e+00
  1.623465e+00    3.152433e+00
  1.639340e+00    3.175207e+00
  1.655216e+00    3.175954e+00
  1.671092e+00    3.182021e+00
  1.686967e+00    3.235710e+00
  1.702843e+00    3.105953e+00
  1.718718e+00    3.110526e+00
  1.734594e+00    3.145065e+00
  1.750469e+00    3.072937e+00
  1.766345e+00    2.996930e+00
  1.782221e+00    3.163660e+00
  1.798096e+00    3.094259e+00
  1.813972e+00    2.940463e+00
  1.829847e+00    3.118321e+00
  1.845723e+00    3.212034e+00
  1.861598e+00    3.137378e+00
  1.877474e+00    3.034944e+00
  1.893350e+00    3.116654e+00
  1.909225e+00    3.097604e+00
  1.925101e+00    3.036185e+00
  1.940976e+00    3.087779e+00
  1.956852e+00    3.121846e+00
  1.972727e+00    3.052513e+00
  1.988603e+00    3.037237e+00
  2.004479e+00    3.183700e+00
  2.020354e+00    3.112670e+00
  2.036230e+00    3.010823e+00
  2.052105e+00    3.042629e+00
  2.067981e+00    3.176241e+00
  2.083856e+00    3.115208e+00
  2.099732e+00    3.206297e+00
  2.115608e+00    3.109017e+00
  2.131483e+00    3.036078e+00
  2.147359e+00    3.098464e+00
  2.163234e+00    3.008863e+00
  2.179110e+00    3.065911e+00
  2.194985e+00    3.113292e+00
  2.210861e+00    3.212941e+00
  2.226737e+00    3.110794e+00
  2.242612e+00    3.176565e+00
  2.258488e+00    3.131747e+00
  2.274363e+00    3.177000e+00
  2.290239e+00    3.100000e+00
  2.306115e+00    3.181112e+00
  2.321990e+00    3.172759e+00
  2.337866e+00    3.250433e+00
  2.353741e+00    3.182820e+00
  2.369617e+00    3.098589e+00
  2.385492e+00    3.180304e+00
  2.401368e+00    3.307267e+00
  2.417244e+00    3.329531e+00
  2.433119e+00    3.245229e+00
  2.448995e+00    3.216009e+00
  2.464870e+00    3.230355e+00
  2.480746e+00    3.179590e+00
  2.496621e+00    3.235202e+00
  2.512497e+00    3.204646e+00
  2.528373e+00    3.210193e+00
  2.544248e+00    3.314533e+00
  2.560124e+00    3.364790e+00
  2.575999e+00    3.287047e+00
  2.591875e+00    3.225360e+00
  2.607750e+00    3.288616e+00
  2.623626e+00    3.256322e+00
  2.639502e+00    3.236901e+00
  2.655377e+00    3.091218e+00
  2.671253e+00    3.233676e+00
  2.687128e+00    3.212349e+00
  2.703004e+00    3.215896e+00
  2.718879e+00    3.223372e+00
  2.734755e+00    3.268491e+00
  2.750631e+00    3.290372e+00
  2.766506e+00    3.299237e+00
  2.782382e+00    3.323353e+00
  2.798257e+00    3.389381e+00
  2.814133e+00    3.365103e+00
  2.830008e+00    3.281851e+00
  2.845884e+00    3.321703e+00
  2.861760e+00    3.221392e+00
  2.877635e+00    3.283084e+00
  2.893511e+00    3.308960e+00
  2.909386e+00    3.326030e+00
  2.925262e+00    3.436439e+00
  2.941137e+00    3.468136e+00
  2.957013e+00    3.335593e+00
  2.972889e+00    3.297769e+00
  2.988764e+00    3.393028e+00
  3.004640e+00    3.398658e+00
  3.020515e+00    3.360882e+00
  3.036391e+00    3.371338e+00
  3.052266e+00    3.405561e+00
  3.068142e+00    3.345389e+00
  3.084018e+00    3.430158e+00
  3.099893e+00    3.376116e+00
  3.115769e+00    3.355667e+00
  3.131644e+00    3.418219e+00
  3.147520e+00    3.420319e+00
  3.163395e+00    3.380455e+00
  3.179271e+00    3.468475e+00
  3.195147e+00    3.482516e+00
  3.211022e+00    3.438717e+00
  3.226898e+00    3.386701e+00
  3.242773e+00    3.326915e+00
  3.258649e+00    3.386401e+00
  3.274525e+00    3.456078e+00
  3.290400e+00    3.446054e+00
  3.306276e+00    3.376976e+00
  3.322151e+00    3.409794e+00
  3.338027e+00    3.372258e+00
  3.353902e+00    3.374953e+00
  3.369778e+00    3.433657e+00
  3.385654e+00    3.444303e+00
  3.401529e+00    3.436771e+00
  3.417405e+00    3.471493e+00
  3.433280e+00    3.474808e+00
  3.449156e+00    3.442796e+00
  3.465031e+00    3.501453e+00
  3.480907e+00    3.457687e+00
  3.496783e+00    3.475750e+00
  3.512658e+00    3.380147e+00
  3.528534e+00    3.399513e+00
  3.544409e+00    3.471029e+00
  3.560285e+00    3.471426e+00
  3.576160e+00    3.497131e+00
  3.592036e+00    3.519545e+00
  3.607912e+00    3.508422e+00
  3.623787e+00    3.460883e+00
  3.639663e+00    3.464135e+00
  3.655538e+00    3.562552e+00
  3.671414e+00    3.517817e+00
  3.687289e+00    3.424659e+00
  3.703165e+00    3.458781e+00
  3.719041e+00    3.524728e+00
  3.734916e+00    3.477822e+00
  3.750792e+00    3.483998e+00
  3.766667e+00    3.442114e+00
  3.782543e+00    3.486814e+00
  3.798418e+00    3.471129e+00
  3.814294e+00    3.558726e+00
  3.830170e+00    3.524454e+00
  3.846045e+00    3.460401e+00
  3.861921e+00    3.454017e+00
  3.877796e+00    3.526182e+00
  3.893672e+00    3.589053e+00
  3.909547e+00    3.572234e+00
  3.925423e+00    3.591021e+00
  3.941299e+00    3.565972e+00
  3.957174e+00    3.630439e+00
  3.973050e+00    3.531737e+00
  3.988925e+00    3.488758e+00
  4.004801e+00    3.560790e+00
  4.020676e+00    3.569509e+00
  4.036552e+00    3.532279e+00
  4.052428e+00    3.507757e+00
  4.068303e+00    3.441375e+00
  4.084179e+00    3.507909e+00
  4.100054e+00    3.541331e+00
  4.115930e+00    3.545044e+00
  4.131806e+00    3.584145e+00
  4.147681e+00    3.560269e+00
  4.163557e+00    3.473347e+00
  4.179432e+00    3.559134e+00
  4.195308e+00    3.547425e+00
  4.211183e+00    3.550202e+00
  4.227059e+00    3.522124e+00
  4.242935e+00    3.657515e+00
  4.258810e+00    3.580786e+00
  4.274686e+00    3.500362e+00
  4.290561e+00    3.495100e+00
  4.306437e+00    3.546473e+00
  4.322312e+00    3.615361e+00
  4.338188e+00    3.610964e+00
  4.354064e+00    3.609849e+00
  4.369939e+00    3.564636e+00
  4.385815e+00    3.587858e+00
  4.401690e+00    3.661489e+00
  4.417566e+00    3.656886e+00
  4.433441e+00    3.587660e+00
  4.449317e+00    3.562206e+00
  4.465193e+00    3.549381e+00
  4.481068e+00    3.563585e+00
  4.496944e+00    3.512723e+00
  4.512819e+00    3.522258e+00
  4.528695e+00    3.575332e+00
  4.544570e+00    3.574704e+00
  4.560446e+00    3.659507e+00
  4.576322e+00    3.635609e+00
  4.592197e+00    3.573464e+00
  4.608073e+00    3.604556e+00
  4.623948e+00    3.563450e+00
  4.639824e+00    3.667061e+00
  4.655699e+00    3.696119e+00
  4.671575e+00    3.610872e+00
  4.687451e+00    3.521429e+00
  4.703326e+00    3.545503e+00
  4.719202e+00    3.546487e+00
  4.735077e+00    3.582279e+00
  4.750953e+00    3.680620e+00
  4.766828e+00    3.638707e+00
  4.782704e+00    3.642833e+00
  4.798580e+00    3.695560e+00
  4.814455e+00    3.662980e+00
  4.830331e+00    3.636990e+00
  4.846206e+00    3.576470e+00
  4.862082e+00    3.625301e+00
  4.877957e+00    3.672904e+00
  4.893833e+00    3.626065e+00
  4.909709e+00    3.580185e+00
  4.925584e+00    3.637811e+00
  4.941460e+00    3.643056e+00
  4.957335e+00    3.695375e+00
  4.973211e+00    3.660342e+00
  4.989086e+00    3.674387e+00
  5.004962e+00    3.711672e+00
  5.020838e+00    3.709249e+00
  5.036713e+00    3.696668e+00
  5.052589e+00    3.673365e+00
  5.068464e+00    3.705716e+00
  5.084340e+00    3.632211e+00
  5.100216e+00    3.657933e+00
  5.116091e+00    3.700458e+00
  5.131967e+00    3.707709e+00
  5.147842e+00    3.586795e+00
  5.163718e+00    3.650015e+00
  5.179593e+00    3.699081e+00
  5.195469e+00    3.708653e+00
  5.211345e+00    3.707893e+00
  5.227220e+00    3.650997e+00
  5.243096e+00    3.730222e+00
  5.258971e+00    3.669575e+00
  5.274847e+00    3.648766e+00
  5.290722e+00    3.654880e+00
  5.306598e+00    3.629767e+00
  5.322474e+00    3.613889e+00
  5.338349e+00    3.622006e+00
  5.354225e+00    3.649843e+00
  5.370100e+00    3.702458e+00
  5.385976e+00    3.666874e+00
  5.401851e+00    3.655878e+00
  5.417727e+00    3.610209e+00
  5.433603e+00    3.658135e+00
  5.449478e+00    3.691220e+00
  5.465354e+00    3.638157e+00
  5.481229e+00    3.581112e+00
  5.497105e+00    3.527234e+00
  5.512980e+00    3.604846e+00
  5.528856e+00    3.650575e+00
  5.544732e+00    3.626302e+00
  5.560607e+00    3.675952e+00
  5.576483e+00    3.664658e+00
  5.592358e+00    3.598015e+00
  5.608234e+00    3.569604e+00
  5.624109e+00    3.594916e+00
  5.639985e+00    3.596028e+00
  5.655861e+00    3.619797e+00
  5.671736e+00    3.591410e+00
  5.687612e+00    3.554136e+00
  5.703487e+00    3.589948e+00
  5.719363e+00    3.548916e+00
  5.735238e+00    3.555728e+00
  5.751114e+00    3.558579e+00
  5.766990e+00    3.581595e+00
  5.782865e+00    3.606768e+00
  5.798741e+00    3.552180e+00
  5.814616e+00    3.516656e+00
  5.830492e+00    3.637574e+00
  5.846367e+00    3.657914e+00
  5.862243e+00    3.605645e+00
  5.878119e+00    3.551404e+00
  5.893994e+00    3.635400e+00
  5.909870e+00    3.605162e+00
  5.925745e+00    3.481072e+00
  5.941621e+00    3.472354e+00
  5.957497e+00    3.522684e+00
  5.973372e+00    3.513718e+00
  5.989248e+00    3.473524e+00
  6.005123e+00    3.504975e+00
  6.020999e+00    3.458654e+00
  6.036874e+00    3.558076e+00
  6.052750e+00    3.645116e+00
  6.068626e+00    3.618414e+00
  6.084501e+00    3.553885e+00
  6.100377e+00    3.635020e+00
  6.116252e+00    3.750106e+00
  6.132128e+00    3.693214e+00
  6.148003e+00    3.580220e+00
  6.163879e+00    3.591462e+00
  6.179755e+00    3.571982e+00
  6.195630e+00    3.553234e+00
  6.211506e+00    3.588965e+00
  6.227381e+00    3.574556e+00
  6.243257e+00    3.618785e+00
  6.259132e+00    3.681468e+00
  6.275008e+00    3.632228e+00
  6.290884e+00    3.544818e+00
  6.306759e+00    3.576720e+00
  6.322635e+00    3.641248e+00
  6.338510e+00    3.578680e+00
  6.354386e+00    3.540505e+00
  6.370261e+00    3.531268e+00
  6.386137e+00    3.578534e+00
  6.402013e+00    3.568512e+00
  6.417888e+00    3.536379e+00
  6.433764e+00    3.560128e+00
  6.449639e+00    3.622536e+00
  6.465515e+00    3.528321e+00
  6.481390e+00    3.544856e+00
  6.497266e+00    3.586910e+00
  6.513142e+00    3.618696e+00
  6.529017e+00    3.580109e+00
  6.544893e+00    3.567759e+00
  6.560768e+00    3.580772e+00
  6.576644e+00    3.577703e+00
  6.592519e+00    3.652943e+00
  6.608395e+00    3.628145e+00
  6.624271e+00    3.601444e+00
  6.640146e+00    3.588478e+00
  6.656022e+00    3.525010e+00
  6.671897e+00    3.499546e+00
  6.687773e+00    3.607226e+00
  6.703648e+00    3.581895e+00
  6.719524e+00    3.532906e+00
  6.735400e+00    3.538389e+00
  6.751275e+00    3.499473e+00
  6.767151e+00    3.567229e+00
  6.783026e+00    3.522791e+00
  6.798902e+00    3.590616e+00
  6.814777e+00    3.607306e+00
  6.830653e+00    3.547503e+00
  6.846529e+00    3.529862e+00
  6.862404e+00    3.537937e+00
  6.878280e+00    3.570407e+00
  6.894155e+00    3.614326e+00
  6.910031e+00    3.616317e+00
  6.925907e+00    3.575526e+00
  6.941782e+00    3.557471e+00
  6.957658e+00    3.604552e+00
  6.973533e+00    3.592120e+00
  6.989409e+00    3.506745e+00
  7.005284e+00    3.473827e+00
  7.021160e+00    3.476241e+00
  7.037036e+00    3.486058e+00
  7.052911e+00    3.477276e+00
  7.068787e+00    3.566756e+00
  7.084662e+00    3.535746e+00
  7.100538e+00    3.564952e+00
  7.116413e+00    3.622660e+00
  7.132289e+00    3.512563e+00
  7.148165e+00    3.483503e+00
  7.164040e+00    3.513984e+00
  7.179916e+00    3.531411e+00
  7.195791e+00    3.536979e+00
  7.211667e+00    3.571027e+00
  7.227542e+00    3.558016e+00
  7.243418e+00    3.515258e+00
  7.259294e+00    3.563531e+00
  7.275169e+00    3.544966e+00
  7.291045e+00    3.490549e+00
  7.306920e+00    3.488525e+00
  7.322796e+00    3.450214e+00
  7.338671e+00    3.461863e+00
  7.354547e+00    3.487017e+00
  7.370423e+00    3.495614e+00
  7.386298e+00    3.519491e+00
  7.402174e+00    3.536344e+00
  7.418049e+00    3.470668e+00
  7.433925e+00    3.427273e+00
  7.449800e+00    3.428946e+00
  7.465676e+00    3.450713e+00
  7.481552e+00    3.466967e+00
  7.497427e+00    3.462391e+00
  7.513303e+00    3.463743e+00
  7.529178e+00    3.522792e+00
  7.545054e+00    3.457494e+00
  7.560929e+00    3.432450e+00
  7.576805e+00    3.419027e+00
  7.592681e+00    3.580384e+00
  7.608556e+00    3.536794e+00
  7.624432e+00    3.456086e+00
  7.640307e+00    3.420933e+00
  7.656183e+00    3.458068e+00
  7.672058e+00    3.514846e+00
  7.687934e+00    3.516965e+00
  7.703810e+00    3.490778e+00
  7.719685e+00    3.543786e+00
  7.735561e+00    3.539520e+00
  7.751436e+00    3.440444e+00
  7.767312e+00    3.471130e+00
  7.783187e+00    3.474297e+00
  7.799063e+00    3.448656e+00
  7.814939e+00    3.515686e+00
  7.830814e+00    3.500285e+00
  7.846690e+00    3.440545e+00
  7.862565e+00    3.407810e+00
  7.878441e+00    3.487477e+00
  7.894317e+00    3.486405e+00
  7.910192e+00    3.464487e+00
  7.926068e+00    3.391846e+00
  7.941943e+00    3.458230e+00
  7.957819e+00    3.395518e+00
  7.973694e+00    3.462486e+00
  7.989570e+00    3.361226e+00
  8.005446e+00    3.439930e+00
  8.021321e+00    3.420521e+00
  8.037197e+00    3.382971e+00
  8.053072e+00    3.428909e+00
  8.068948e+00    3.488591e+00
  8.084823e+00    3.462721e+00
  8.100699e+00    3.367985e+00
  8.116575e+00    3.420429e+00
  8.132450e+00    3.424586e+00
  8.148326e+00    3.508044e+00
  8.164201e+00    3.528382e+00
  8.180077e+00    3.501107e+00
  8.195952e+00    3.517241e+00
  8.211828e+00    3.489928e+00
  8.227704e+00    3.433004e+00
  8.243579e+00    3.395068e+00
  8.259455e+00    3.433789e+00
  8.275330e+00    3.416667e+00
  8.291206e+00    3.380975e+00
  8.307081e+00    3.432256e+00
  8.322957e+00    3.467481e+00
  8.338833e+00    3.445760e+00
  8.354708e+00    3.452502e+00
  8.370584e+00    3.428587e+00
  8.386459e+00    3.391064e+00
  8.402335e+00    3.381938e+00
  8.418210e+00    3.445663e+00
  8.434086e+00    3.419028e+00
  8.449962e+00    3.390438e+00
  8.465837e+00    3.363167e+00
  8.481713e+00    3.372312e+00
  8.497588e+00    3.395389e+00
  8.513464e+00    3.434973e+00
  8.529339e+00    3.430241e+00
  8.545215e+00    3.385375e+00
  8.561091e+00    3.332519e+00
  8.576966e+00    3.357104e+00
  8.592842e+00    3.323249e+00
  8.608717e+00    3.358340e+00
  8.624593e+00    3.432134e+00
  8.640468e+00    3.376877e+00
  8.656344e+00    3.325073e+00
  8.672220e+00    3.349866e+00
  8.688095e+00    3.357075e+00
  8.703971e+00    3.273607e+00
  8.719846e+00    3.294518e+00
  8.735722e+00    3.370858e+00
  8.751598e+00    3.380552e+00
  8.767473e+00    3.316529e+00
  8.783349e+00    3.359915e+00
  8.799224e+00    3.321483e+00
  8.815100e+00    3.338383e+00
  8.830975e+00    3.335525e+00
  8.846851e+00    3.310216e+00
  8.862727e+00    3.382164e+00
  8.878602e+00    3.334960e+00
  8.894478e+00    3.334636e+00
  8.910353e+00    3.323904e+00
  8.926229e+00    3.241456e+00
  8.942104e+00    3.276681e+00
  8.957980e+00    3.334323e+00
  8.973856e+00    3.366200e+00
  8.989731e+00    3.292825e+00
  9.005607e+00    3.296816e+00
  9.021482e+00    3.283134e+00
  9.037358e+00    3.229557e+00
  9.053233e+00    3.245171e+00
  9.069109e+00    3.270245e+00
  9.084985e+00    3.259012e+00
  9.100860e+00    3.300091e+00
  9.116736e+00    3.321246e+00
  9.132611e+00    3.272962e+00
  9.148487e+00    3.266231e+00
  9.164362e+00    3.280605e+00
  9.180238e+00    3.243975e+00
  9.196114e+00    3.277611e+00
  9.211989e+00    3.310590e+00
  9.227865e+00    3.282156e+00
  9.243740e+00    3.297074e+00
  9.259616e+00    3.264849e+00
  9.275491e+00    3.243624e+00
  9.291367e+00    3.280774e+00
  9.307243e+00    3.286813e+00
  9.323118e+00    3.175992e+00
  9.338994e+00    3.185746e+00
  9.354869e+00    3.206502e+00
  9.370745e+00    3.208433e+00
  9.386620e+00    3.240465e+00
  9.402496e+00    3.275925e+00
  9.418372e+00    3.270769e+00
  9.434247e+00    3.199082e+00
  9.450123e+00    3.221962e+00
  9.465998e+00    3.229951e+00
  9.481874e+00    3.240156e+00
  9.497749e+00    3.263033e+00
  9.513625e+00    3.213277e+00
  9.529501e+00    3.186952e+00
  9.545376e+00    3.185305e+00
  9.561252e+00    3.221748e+00
  9.577127e+00    3.274317e+00
  9.593003e+00    3.267151e+00
  9.608878e+00    3.255185e+00
  9.624754e+00    3.272237e+00
  9.640630e+00    3.268781e+00
  9.656505e+00    3.183693e+00
  9.672381e+00    3.166497e+00
  9.688256e+00    3.137570e+00
  9.704132e+00    3.177857e+00
  9.720008e+00    3.155072e+00
  9.735883e+00    3.196589e+00
  9.751759e+00    3.168524e+00
  9.767634e+00    3.140010e+00
  9.783510e+00    3.137282e+00
  9.799385e+00    3.186738e+00
  9.815261e+00    3.147226e+00
  9.831137e+00    3.183978e+00
  9.847012e+00    3.156229e+00
  9.862888e+00    3.122061e+00
  9.878763e+00    3.156438e+00
  9.894639e+00    3.193419e+00
  9.910514e+00    3.160548e+00
  9.926390e+00    3.170029e+00
  9.942266e+00    3.143590e+00
  9.958141e+00    3.156284e+00
  9.974017e+00    3.170136e+00
  9.989892e+00    3.103352e+00
  1.000577e+01    3.043440e+00
  1.002164e+01    3.090757e+00
  1.003752e+01    3.079069e+00
  1.005339e+01    3.106846e+00
  1.006927e+01    3.041426e+00
  1.008515e+01    3.051315e+00
  1.010102e+01    3.076660e+00
  1.011690e+01    3.080177e+00
  1.013277e+01    3.087222e+00
  1.014865e+01    3.086529e+00
  1.016452e+01    3.088540e+00
  1.018040e+01    3.127930e+00
  1.019627e+01    3.119477e+00
  1.021215e+01    3.055099e+00
  1.022803e+01    3.034914e+00
  1.024390e+01    3.099772e+00
  1.025978e+01    3.121585e+00
  1.027565e+01    3.113342e+00
  1.029153e+01    3.081617e+00
  1.030740e+01    3.091968e+00
  1.032328e+01    3.133571e+00
  1.033915e+01    3.104254e+00
  1.035503e+01    3.087659e+00
  1.037091e+01    3.036908e+00
  1.038678e+01    2.997070e+00
  1.040266e+01    3.029416e+00
  1.041853e+01    3.106408e+00
  1.043441e+01    3.082448e+00
  1.045028e+01    3.057752e+00
  1.046616e+01    3.095293e+00
  1.048204e+01    3.059603e+00
  1.049791e+01    3.059794e+00
  1.051379e+01    3.039823e+00
  1.052966e+01    3.022278e+00
  1.054554e+01    3.041929e+00
  1.056141e+01    2.973295e+00
  1.057729e+01    2.986556e+00
  1.059316e+01    2.977179e+00
  1.060904e+01    3.013352e+00
  1.062492e+01    2.984378e+00
  1.064079e+01    2.971833e+00
  1.065667e+01    2.978374e+00
  1.067254e+01    2.995088e+00
  1.068842e+01    2.987781e+00
  1.070429e+01    3.043050e+00
  1.072017e+01    2.959516e+00
  1.073604e+01    2.911296e+00
  1.075192e+01    2.882601e+00
  1.076780e+01    2.950277e+00
  1.078367e+01    3.001893e+00
  1.079955e+01    2.965154e+00
  1.081542e+01    2.973585e+00
  1.083130e+01    2.984638e+00
  1.084717e+01    2.957382e+00
  1.086305e+01    2.910599e+00
  1.087892e+01    2.916861e+00
  1.089480e+01    2.890098e+00
  1.091068e+01    2.921544e+00
  1.092655e+01    2.904205e+00
  1.094243e+01    2.924124e+00
  1.095830e+01    2.898327e+00
  1.097418e+01    2.920523e+00
  1.099005e+01    2.924884e+00
  1.100593e+01    2.893329e+00
  1.102180e+01    2.879687e+00
  1.103768e+01    2.907641e+00
  1.105356e+01    2.950168e+00
  1.106943e+01    2.925264e+00
  1.108531e+01    2.924526e+00
  1.110118e+01    2.985421e+00
  1.111706e+01    2.943991e+00
  1.113293e+01    2.934825e+00
  1.114881e+01    2.873164e+00
  1.116468e+01    2.860020e+00
  1.118056e+01    2.837806e+00
  1.119644e+01    2.857127e+00
  1.121231e+01    2.888164e+00
  1.122819e+01    2.828600e+00
  1.124406e+01    2.787826e+00
  1.125994e+01    2.852760e+00
  1.127581e+01    2.871285e+00
  1.129169e+01    2.826377e+00
  1.130756e+01    2.786751e+00
  1.132344e+01    2.860878e+00
  1.133932e+01    2.867181e+00
  1.135519e+01    2.849265e+00
  1.137107e+01    2.839802e+00
  1.138694e+01    2.845425e+00
  1.140282e+01    2.803442e+00
  1.141869e+01    2.803943e+00
  1.143457e+01    2.843368e+00
  1.145045e+01    2.784831e+00
  1.146632e+01    2.798333e+00
  1.148220e+01    2.826365e+00
  1.149807e+01    2.820761e+00
  1.151395e+01    2.816348e+00
  1.152982e+01    2.820789e+00
  1.154570e+01    2.852622e+00
  1.156157e+01    2.812021e+00
  1.157745e+01    2.776732e+00
  1.159333e+01    2.783446e+00
  1.160920e+01    2.785108e+00
  1.162508e+01    2.786446e+00
  1.164095e+01    2.743000e+00
  1.165683e+01    2.756646e+00
  1.167270e+01    2.748977e+00
  1.168858e+01    2.745006e+00
  1.170445e+01    2.726309e+00
  1.172033e+01    2.747367e+00
  1.173621e+01    2.777613e+00
  1.175208e+01    2.784889e+00
  1.176796e+01    2.780125e+00
  1.178383e+01    2.776857e+00
  1.179971e+01    2.703530e+00
  1.181558e+01    2.711749e+00
  1.183146e+01    2.739094e+00
  1.184733e+01    2.782036e+00
  1.186321e+01    2.809205e+00
  1.187909e+01    2.740596e+00
  1.189496e+01    2.791068e+00
  1.191084e+01    2.724669e+00
  1.192671e+01    2.677113e+00
  1.194259e+01    2.694948e+00
  1.195846e+01    2.664062e+00
  1.197434e+01    2.708202e+00
  1.199021e+01    2.691045e+00
  1.200609e+01    2.718591e+00
  1.202197e+01    2.717617e+00
  1.203784e+01    2.716432e+00
  1.205372e+01    2.697253e+00
  1.206959e+01    2.656971e+00
  1.208547e+01    2.699005e+00
  1.210134e+01    2.678802e+00
  1.211722e+01    2.704085e+00
  1.213309e+01    2.716594e+00
  1.214897e+01    2.764101e+00
  1.216485e+01    2.716071e+00
  1.218072e+01    2.700483e+00
  1.219660e+01    2.680483e+00
  1.221247e+01    2.691686e+00
  1.222835e+01    2.680048e+00
  1.224422e+01    2.650791e+00
  1.226010e+01    2.692813e+00
  1.227597e+01    2.670079e+00
  1.229185e+01    2.694710e+00
  1.230773e+01    2.746016e+00
  1.232360e+01    2.713568e+00
  1.233948e+01    2.704946e+00
  1.235535e+01    2.664589e+00
  1.237123e+01    2.736496e+00
  1.238710e+01    2.709300e+00
  1.240298e+01    2.725863e+00
  1.241886e+01    2.721807e+00
  1.243473e+01    2.671370e+00
  1.245061e+01    2.664668e+00
  1.246648e+01    2.696971e+00
  1.248236e+01    2.690288e+00
  1.249823e+01    2.644849e+00
  1.251411e+01    2.629216e+00
  1.252998e+01    2.660170e+00
  1.254586e+01    2.777767e+00
  1.256174e+01    2.719254e+00
  1.257761e+01    2.768899e+00
  1.259349e+01    2.754201e+00
  1.260936e+01    2.753667e+00
  1.262524e+01    2.730843e+00
  1.264111e+01    2.763307e+00
  1.265699e+01    2.791340e+00
  1.267286e+01    2.811380e+00
  1.268874e+01    2.812708e+00
  1.270462e+01    2.813447e+00
  1.272049e+01    2.861611e+00
  1.273637e+01    2.908733e+00
  1.275224e+01    2.903712e+00
  1.276812e+01    2.963054e+00
  1.278399e+01    2.968752e+00
  1.279987e+01    3.006555e+00
  1.281574e+01    3.056736e+00
  1.283162e+01    3.160713e+00
  1.284750e+01    3.210126e+00
  1.286337e+01    3.284590e+00
  1.287925e+01    3.414346e+00
  1.289512e+01    3.481650e+00
  1.291100e+01    3.692950e+00
  1.292687e+01    3.888330e+00
  1.294275e+01    4.102504e+00
  1.295862e+01    4.448605e+00
  1.297450e+01    4.756781e+00
  1.299038e+01    5.287616e+00
  1.300625e+01    5.991541e+00
  1.302213e+01    6.801888e+00
  1.303800e+01    7.757670e+00
  1.305388e+01    8.938342e+00
  1.306975e+01    1.022895e+01
  1.308563e+01    1.153181e+01
  1.310150e+01    1.282862e+01
  1.311738e+01    1.392562e+01
  1.313326e+01    1.486005e+01
  1.314913e+01    1.577154e+01
  1.316501e+01    1.643176e+01
  1.318088e+01    1.648063e+01
  1.319676e+01    1.582544e+01
  1.321263e+01    1.444450e+01
  1.322851e+01    1.260887e+01
  1.324438e+01    1.073518e+01
  1.326026e+01    9.167817e+00
  1.327614e+01    7.776755e+00
  1.329201e+01    6.796692e+00
  1.330789e+01    6.027779e+00
  1.332376e+01    5.371777e+00
  1.333964e+01    4.837077e+00
  1.335551e+01    4.414602e+00
  1.337139e+01    4.149166e+00
  1.338727e+01    3.906427e+00
  1.340314e+01    3.711895e+00
  1.341902e+01    3.529170e+00
  1.343489e+01    3.365353e+00
  1.345077e+01    3.269167e+00
  1.346664e+01    3.173738e+00
  1.348252e+01    3.069893e+00
  1.349839e+01    2.993379e+00
  1.351427e+01    2.929677e+00
  1.353015e+01    2.941412e+00
  1.354602e+01    2.846777e+00
  1.356190e+01    2.811031e+00
  1.357777e+01    2.722805e+00
  1.359365e+01    2.723019e+00
  1.360952e+01    2.676755e+00
  1.362540e+01    2.634508e+00
  1.364127e+01    2.614784e+00
  1.365715e+01    2.604559e+00
  1.367303e+01    2.611881e+00
  1.368890e+01    2.595421e+00
  1.370478e+01    2.579346e+00
  1.372065e+01    2.572431e+00
  1.373653e+01    2.531714e+00
  1.375240e+01    2.510577e+00
  1.376828e+01    2.517746e+00
  1.378415e+01    2.479946e+00
  1.380003e+01    2.521363e+00
  1.381591e+01    2.511465e+00
  1.383178e+01    2.506429e+00
  1.384766e+01    2.459763e+00
  1.386353e+01    2.463938e+00
  1.387941e+01    2.476966e+00
  1.389528e+01    2.419713e+00
  1.391116e+01    2.426640e+00
  1.392703e+01    2.426704e+00
  1.394291e+01    2.421332e+00
  1.395879e+01    2.421580e+00
  1.397466e+01    2.392687e+00
  1.399054e+01    2.376961e+00
  1.400641e+01    2.363619e+00
  1.402229e+01    2.358940e+00
  1.403816e+01    2.321865e+00
  1.405404e+01    2.322174e+00
  1.406991e+01    2.333208e+00
  1.408579e+01    2.345532e+00
  1.410167e+01    2.307669e+00
  1.411754e+01    2.318840e+00
  1.413342e+01    2.311415e+00
  1.414929e+01    2.311370e+00
  1.416517e+01    2.307392e+00
  1.418104e+01    2.313969e+00
  1.419692e+01    2.280563e+00
  1.421279e+01    2.255031e+00
  1.422867e+01    2.262084e+00
  1.424455e+01    2.256991e+00
  1.426042e+01    2.273543e+00
  1.427630e+01    2.249254e+00
  1.429217e+01    2.255880e+00
  1.430805e+01    2.292042e+00
  1.432392e+01    2.288981e+00
  1.433980e+01    2.301998e+00
  1.435568e+01    2.309619e+00
  1.437155e+01    2.249342e+00
  1.438743e+01    2.229370e+00
  1.440330e+01    2.231603e+00
  1.441918e+01    2.239628e+00
  1.443505e+01    2.263765e+00
  1.445093e+01    2.267246e+00
  1.446680e+01    2.236942e+00
  1.448268e+01    2.222016e+00
  1.449856e+01    2.229905e+00
  1.451443e+01    2.230004e+00
  1.453031e+01    2.194932e+00
  1.454618e+01    2.158351e+00
  1.456206e+01    2.180569e+00
  1.457793e+01    2.221302e+00
  1.459381e+01    2.234730e+00
  1.460968e+01    2.204226e+00
  1.462556e+01    2.191049e+00
  1.464144e+01    2.190161e+00
  1.465731e+01    2.219240e+00
  1.467319e+01    2.205601e+00
  1.468906e+01    2.163848e+00
  1.470494e+01    2.194489e+00
  1.472081e+01    2.225200e+00
  1.473669e+01    2.265321e+00
  1.475256e+01    2.229576e+00
  1.476844e+01    2.214967e+00
  1.478432e+01    2.210688e+00
  1.480019e+01    2.219347e+00
  1.481607e+01    2.218066e+00
  1.483194e+01    2.183834e+00
  1.484782e+01    2.221781e+00
  1.486369e+01    2.205795e+00
  1.487957e+01    2.192824e+00
  1.489544e+01    2.239377e+00
  1.491132e+01    2.281101e+00
  1.492720e+01    2.276556e+00
  1.494307e+01    2.295548e+00
  1.495895e+01    2.289823e+00
  1.497482e+01    2.351435e+00
  1.499070e+01    2.429439e+00
  1.500657e+01    2.439100e+00
  1.502245e+01    2.534493e+00
  1.503832e+01    2.640265e+00
  1.505420e+01    2.727032e+00
  1.507008e+01    2.835884e+00
  1.508595e+01    3.026005e+00
  1.510183e+01    3.187212e+00
  1.511770e+01    3.541136e+00
  1.513358e+01    3.857157e+00
  1.514945e+01    4.200966e+00
  1.516533e+01    4.568237e+00
  1.518120e+01    4.916842e+00
  1.519708e+01    5.171482e+00
  1.521296e+01    5.441555e+00
  1.522883e+01    5.669835e+00
  1.524471e+01    5.790111e+00
  1.526058e+01    5.893234e+00
  1.527646e+01    5.762741e+00
  1.529233e+01    5.544848e+00
  1.530821e+01    5.154450e+00
  1.532409e+01    4.656220e+00
  1.533996e+01    4.213210e+00
  1.535584e+01    3.833562e+00
  1.537171e+01    3.468149e+00
  1.538759e+01    3.174289e+00
  1.540346e+01    2.949921e+00
  1.541934e+01    2.790457e+00
  1.543521e+01    2.657143e+00
  1.545109e+01    2.507618e+00
  1.546697e+01    2.416976e+00
  1.548284e+01    2.354238e+00
  1.549872e+01    2.306476e+00
  1.551459e+01    2.269237e+00
  1.553047e+01    2.211351e+00
  1.554634e+01    2.168352e+00
  1.556222e+01    2.190090e+00
  1.557809e+01    2.154995e+00
  1.559397e+01    2.137315e+00
  1.560985e+01    2.129723e+00
  1.562572e+01    2.110226e+00
  1.564160e+01    2.115283e+00
  1.565747e+01    2.041882e+00
  1.567335e+01    2.010992e+00
  1.568922e+01    1.965697e+00
  1.570510e+01    2.000129e+00
  1.572097e+01    1.997386e+00
  1.573685e+01    2.009911e+00
  1.575273e+01    1.983590e+00
  1.576860e+01    1.963696e+00
  1.578448e+01    1.946765e+00
  1.580035e+01    1.939422e+00
  1.581623e+01    1.951374e+00
  1.583210e+01    1.955756e+00
  1.584798e+01    1.950068e+00
  1.586385e+01    1.931584e+00
  1.587973e+01    1.914940e+00
  1.589561e+01    1.915936e+00
  1.591148e+01    1.913718e+00
  1.592736e+01    1.869352e+00
  1.594323e+01    1.892559e+00
  1.595911e+01    1.912897e+00
  1.597498e+01    1.886608e+00
  1.599086e+01    1.890312e+00
  1.600673e+01    1.874993e+00
  1.602261e+01    1.896691e+00
  1.603849e+01    1.897219e+00
  1.605436e+01    1.891643e+00
  1.607024e+01    1.885429e+00
  1.608611e+01    1.850743e+00
  1.610199e+01    1.837870e+00
  1.611786e+01    1.831982e+00
  1.613374e+01    1.871523e+00
  1.614961e+01    1.854672e+00
  1.616549e+01    1.836855e+00
  1.618137e+01    1.842872e+00
  1.619724e+01    1.831490e+00
  1.621312e+01    1.798414e+00
  1.622899e+01    1.836076e+00
  1.624487e+01    1.831266e+00
  1.626074e+01    1.775804e+00
  1.627662e+01    1.786616e+00
  1.629250e+01    1.819248e+00
  1.630837e+01    1.797829e+00
  1.632425e+01    1.816511e+00
  1.634012e+01    1.800197e+00
  1.635600e+01    1.784897e+00
  1.637187e+01    1.774747e+00
  1.638775e+01    1.799122e+00
  1.640362e+01    1.812983e+00
  1.641950e+01    1.770545e+00
  1.643538e+01    1.794455e+00
  1.645125e+01    1.762128e+00
  1.646713e+01    1.774970e+00
  1.648300e+01    1.788702e+00
  1.649888e+01    1.760283e+00
  1.651475e+01    1.712090e+00
  1.653063e+01    1.733716e+00
  1.654650e+01    1.760110e+00
  1.656238e+01    1.737865e+00
  1.657826e+01    1.732658e+00
  1.659413e+01    1.761127e+00
  1.661001e+01    1.766512e+00
  1.662588e+01    1.794114e+00
  1.664176e+01    1.733267e+00
  1.665763e+01    1.726969e+00
  1.667351e+01    1.737730e+00
  1.668938e+01    1.722346e+00
  1.670526e+01    1.715957e+00
  1.672114e+01    1.723288e+00
  1.673701e+01    1.765604e+00
  1.675289e+01    1.717687e+00
  1.676876e+01    1.687334e+00
  1.678464e+01    1.684650e+00
  1.680051e+01    1.703353e+00
  1.681639e+01    1.712550e+00
  1.683226e+01    1.672271e+00
  1.684814e+01    1.676707e+00
  1.686402e+01    1.701028e+00
  1.687989e+01    1.707127e+00
  1.689577e+01    1.693856e+00
  1.691164e+01    1.698689e+00
  1.692752e+01    1.658746e+00
  1.694339e+01    1.658321e+00
  1.695927e+01    1.658740e+00
  1.697514e+01    1.676203e+00
  1.699102e+01    1.681660e+00
  1.700690e+01    1.686895e+00
  1.702277e+01    1.656646e+00
  1.703865e+01    1.655275e+00
  1.705452e+01    1.647404e+00
  1.707040e+01    1.640598e+00
  1.708627e+01    1.673867e+00
  1.710215e+01    1.670724e+00
  1.711802e+01    1.630494e+00
  1.713390e+01    1.630135e+00
  1.714978e+01    1.639375e+00
  1.716565e+01    1.659353e+00
  1.718153e+01    1.657747e+00
  1.719740e+01    1.638221e+00
  1.721328e+01    1.628166e+00
  1.722915e+01    1.637855e+00
  1.724503e+01    1.624193e+00
  1.726091e+01    1.640846e+00
  1.727678e+01    1.643001e+00
  1.729266e+01    1.625394e+00
  1.730853e+01    1.630445e+00
  1.732441e+01    1.616961e+00
  1.734028e+01    1.616766e+00
  1.735616e+01    1.615186e+00
  1.737203e+01    1.618535e+00
  1.738791e+01    1.604182e+00
  1.740379e+01    1.623111e+00
  1.741966e+01    1.629225e+00
  1.743554e+01    1.615939e+00
  1.745141e+01    1.598734e+00
  1.746729e+01    1.568123e+00
  1.748316e+01    1.605229e+00
  1.749904e+01    1.596484e+00
  1.751491e+01    1.567085e+00
  1.753079e+01    1.592040e+00
  1.754667e+01    1.600125e+00
  1.756254e+01    1.587278e+00
  1.757842e+01    1.569745e+00
  1.759429e+01    1.571401e+00
  1.761017e+01    1.572558e+00
  1.762604e+01    1.563228e+00
  1.764192e+01    1.544805e+00
  1.765779e+01    1.585714e+00
  1.767367e+01    1.562102e+00
  1.768955e+01    1.538111e+00
  1.770542e+01    1.549540e+00
  1.772130e+01    1.545670e+00
  1.773717e+01    1.536994e+00
  1.775305e+01    1.558196e+00
  1.776892e+01    1.571074e+00
  1.778480e+01    1.578995e+00
  1.780067e+01    1.555549e+00
  1.781655e+01    1.538665e+00
  1.783243e+01    1.540978e+00
  1.784830e+01    1.537091e+00
  1.786418e+01    1.516964e+00
  1.788005e+01    1.494567e+00
  1.789593e+01    1.525324e+00
  1.791180e+01    1.548543e+00
  1.792768e+01    1.517815e+00
  1.794355e+01    1.501781e+00
  1.795943e+01    1.515206e+00
  1.797531e+01    1.523553e+00
  1.799118e+01    1.517354e+00
  1.800706e+01    1.530997e+00
  1.802293e+01    1.500426e+00
  1.803881e+01    1.507777e+00
  1.805468e+01    1.516241e+00
  1.807056e+01    1.526998e+00
  1.808643e+01    1.502194e+00
  1.810231e+01    1.488894e+00
  1.811819e+01    1.511346e+00
  1.813406e+01    1.476347e+00
  1.814994e+01    1.506710e+00
  1.816581e+01    1.505749e+00
  1.818169e+01    1.444456e+00
  1.819756e+01    1.456549e+00
  1.821344e+01    1.467194e+00
  1.822932e+01    1.466496e+00
  1.824519e+01    1.455471e+00
  1.826107e+01    1.486844e+00
  1.827694e+01    1.466818e+00
  1.829282e+01    1.464451e+00
  1.830869e+01    1.487717e+00
  1.832457e+01    1.470669e+00
  1.834044e+01    1.461666e+00
  1.835632e+01    1.478511e+00
  1.837220e+01    1.465107e+00
  1.838807e+01    1.495274e+00
  1.840395e+01    1.486475e+00
  1.841982e+01    1.459761e+00
  1.843570e+01    1.468085e+00
  1.845157e+01    1.467260e+00
  1.846745e+01    1.476309e+00
  1.848332e+01    1.463318e+00
  1.849920e+01    1.450243e+00
  1.851508e+01    1.461262e+00
  1.853095e+01    1.451152e+00
  1.854683e+01    1.439803e+00
  1.856270e+01    1.408705e+00
  1.857858e+01    1.404580e+00
  1.859445e+01    1.436071e+00
  1.861033e+01    1.410059e+00
  1.862620e+01    1.416432e+00
  1.864208e+01    1.433131e+00
  1.865796e+01    1.441255e+00
  1.867383e+01    1.415310e+00
  1.868971e+01    1.419422e+00
  1.870558e+01    1.418794e+00
  1.872146e+01    1.403450e+00
  1.873733e+01    1.402383e+00
  1.875321e+01    1.383852e+00
  1.876908e+01    1.390153e+00
  1.878496e+01    1.397062e+00
  1.880084e+01    1.416812e+00
  1.881671e+01    1.412227e+00
  1.883259e+01    1.404646e+00
  1.884846e+01    1.419586e+00
  1.886434e+01    1.427912e+00
  1.888021e+01    1.415087e+00
  1.889609e+01    1.436076e+00
  1.891196e+01    1.433710e+00
  1.892784e+01    1.401386e+00
  1.894372e+01    1.369838e+00
  1.895959e+01    1.382300e+00
  1.897547e+01    1.413102e+00
  1.899134e+01    1.380381e+00
  1.900722e+01    1.363179e+00
  1.902309e+01    1.365972e+00
  1.903897e+01    1.379584e+00
  1.905484e+01    1.366433e+00
  1.907072e+01    1.356412e+00
  1.908660e+01    1.382261e+00
  1.910247e+01    1.386207e+00
  1.911835e+01    1.376608e+00
  1.913422e+01    1.365104e+00
  1.915010e+01    1.376344e+00
  1.916597e+01    1.370805e+00
  1.918185e+01    1.363982e+00
  1.919773e+01    1.376281e+00
  1.921360e+01    1.385977e+00
  1.922948e+01    1.363589e+00
  1.924535e+01    1.351897e+00
  1.926123e+01    1.359434e+00
  1.927710e+01    1.376408e+00
  1.929298e+01    1.374994e+00
  1.930885e+01    1.378275e+00
  1.932473e+01    1.380006e+00
  1.934061e+01    1.364758e+00
  1.935648e+01    1.340492e+00
  1.937236e+01    1.341978e+00
  1.938823e+01    1.343210e+00
  1.940411e+01    1.332576e+00
  1.941998e+01    1.316054e+00
  1.943586e+01    1.343685e+00
  1.945173e+01    1.326518e+00
  1.946761e+01    1.330741e+00
  1.948349e+01    1.311714e+00
  1.949936e+01    1.314842e+00
  1.951524e+01    1.345546e+00
  1.953111e+01    1.326203e+00
  1.954699e+01    1.294392e+00
  1.956286e+01    1.336986e+00
  1.957874e+01    1.332844e+00
  1.959461e+01    1.336956e+00
  1.961049e+01    1.327917e+00
  1.962637e+01    1.337847e+00
  1.964224e+01    1.340670e+00
  1.965812e+01    1.313323e+00
  1.967399e+01    1.284114e+00
  1.968987e+01    1.312806e+00
  1.970574e+01    1.333211e+00
  1.972162e+01    1.309589e+00
  1.973749e+01    1.299334e+00
  1.975337e+01    1.297285e+00
  1.976925e+01    1.313783e+00
  1.978512e+01    1.312448e+00
  1.980100e+01    1.315934e+00
  1.981687e+01    1.306303e+00
  1.983275e+01    1.326283e+00
  1.984862e+01    1.306413e+00
  1.986450e+01    1.270970e+00
  1.988037e+01    1.273759e+00
  1.989625e+01    1.312445e+00
  1.991213e+01    1.279540e+00
  1.992800e+01    1.278244e+00
  1.994388e+01    1.294123e+00
  1.995975e+01    1.294729e+00
  1.997563e+01    1.290939e+00
  1.999150e+01    1.297896e+00
  2.000738e+01    1.295527e+00
  2.002325e+01    1.297378e+00
  2.003913e+01    1.311851e+00
  2.005501e+01    1.322077e+00
  2.007088e+01    1.268417e+00
  2.008676e+01    1.243556e+00
  2.010263e+01    1.250853e+00
  2.011851e+01    1.270296e+00
  2.013438e+01    1.281741e+00
  2.015026e+01    1.276736e+00
  2.016614e+01    1.299379e+00
  2.018201e+01    1.298141e+00
  2.019789e+01    1.271198e+00
  2.021376e+01    1.257978e+00
  2.022964e+01    1.267399e+00
  2.024551e+01    1.262939e+00
  2.026139e+01    1.249736e+00
  2.027726e+01    1.253800e+00
  2.029314e+01    1.264581e+00
  2.030902e+01    1.269695e+00
  2.032489e+01    1.261045e+00
  2.034077e+01    1.245192e+00
  2.035664e+01    1.247948e+00
  2.037252e+01    1.277451e+00
  2.038839e+01    1.275423e+00
  2.040427e+01    1.249824e+00
  2.042014e+01    1.253031e+00
  2.043602e+01    1.267238e+00
  2.045190e+01    1.251827e+00
  2.046777e+01    1.253649e+00
  2.048365e+01    1.248952e+00
  2.049952e+01    1.252964e+00
  2.051540e+01    1.271695e+00
  2.053127e+01    1.270998e+00
  2.054715e+01    1.253123e+00
  2.056302e+01    1.234855e+00
  2.057890e+01    1.228129e+00
  2.059478e+01    1.241755e+00
  2.061065e+01    1.243407e+00
  2.062653e+01    1.228036e+00
  2.064240e+01    1.224617e+00
  2.065828e+01    1.247954e+00
  2.067415e+01    1.251988e+00
  2.069003e+01    1.213736e+00
  2.070590e+01    1.241845e+00
  2.072178e+01    1.239988e+00
  2.073766e+01    1.248595e+00
  2.075353e+01    1.258280e+00
  2.076941e+01    1.213055e+00
  2.078528e+01    1.217218e+00
  2.080116e+01    1.221087e+00
  2.081703e+01    1.215743e+00
  2.083291e+01    1.230071e+00
  2.084878e+01    1.222160e+00
  2.086466e+01    1.238886e+00
  2.088054e+01    1.217365e+00
  2.089641e+01    1.206562e+00
  2.091229e+01    1.203913e+00
  2.092816e+01    1.203337e+00
  2.094404e+01    1.205393e+00
  2.095991e+01    1.237846e+00
  2.097579e+01    1.228433e+00
  2.099166e+01    1.215056e+00
  2.100754e+01    1.231167e+00
  2.102342e+01    1.209576e+00
  2.103929e+01    1.218272e+00
  2.105517e+01    1.228822e+00
  2.107104e+01    1.239545e+00
  2.108692e+01    1.230070e+00
  2.110279e+01    1.207956e+00
  2.111867e+01    1.203331e+00
  2.113455e+01    1.229523e+00
  2.115042e+01    1.257273e+00
  2.116630e+01    1.255086e+00
  2.118217e+01    1.219548e+00
  2.119805e+01    1.235077e+00
  2.121392e+01    1.227482e+00
  2.122980e+01    1.241871e+00
  2.124567e+01    1.259365e+00
  2.126155e+01    1.247068e+00
  2.127743e+01    1.253542e+00
  2.129330e+01    1.252815e+00
  2.130918e+01    1.270085e+00
  2.132505e+01    1.279211e+00
  2.134093e+01    1.279888e+00
  2.135680e+01    1.303684e+00
  2.137268e+01    1.293951e+00
  2.138855e+01    1.314874e+00
  2.140443e+01    1.300258e+00
  2.142031e+01    1.343716e+00
  2.143618e+01    1.351515e+00
  2.145206e+01    1.398268e+00
  2.146793e+01    1.401557e+00
  2.148381e+01    1.405141e+00
  2.149968e+01    1.432568e+00
  2.151556e+01    1.462656e+00
  2.153143e+01    1.501960e+00
  2.154731e+01    1.546985e+00
  2.156319e+01    1.563592e+00
  2.157906e+01    1.618494e+00
  2.159494e+01    1.678090e+00
  2.161081e+01    1.783908e+00
  2.162669e+01    1.898057e+00
  2.164256e+01    2.012146e+00
  2.165844e+01    2.141716e+00
  2.167431e+01    2.307167e+00
  2.169019e+01    2.519879e+00
  2.170607e+01    2.789583e+00
  2.172194e+01    3.141009e+00
  2.173782e+01    3.539442e+00
  2.175369e+01    4.047668e+00
  2.176957e+01    4.616795e+00
  2.178544e+01    5.219465e+00
  2.180132e+01    5.905524e+00
  2.181719e+01    6.578668e+00
  2.183307e+01    7.206418e+00
  2.184895e+01    7.843111e+00
  2.186482e+01    8.400101e+00
  2.188070e+01    8.849860e+00
  2.189657e+01    8.972837e+00
  2.191245e+01    8.816202e+00
  2.192832e+01    8.312886e+00
  2.194420e+01    7.559953e+00
  2.196007e+01    6.609612e+00
  2.197595e+01    5.692308e+00
  2.199183e+01    4.887753e+00
  2.200770e+01    4.189412e+00
  2.202358e+01    3.669326e+00
  2.203945e+01    3.205618e+00
  2.205533e+01    2.898327e+00
  2.207120e+01    2.548923e+00
  2.208708e+01    2.332161e+00
  2.210296e+01    2.177902e+00
  2.211883e+01    2.033000e+00
  2.213471e+01    1.894419e+00
  2.215058e+01    1.790503e+00
  2.216646e+01    1.690029e+00
  2.218233e+01    1.583520e+00
  2.219821e+01    1.548083e+00
  2.221408e+01    1.464813e+00
  2.222996e+01    1.447531e+00
  2.224584e+01    1.427069e+00
  2.226171e+01    1.385706e+00
  2.227759e+01    1.336278e+00
  2.229346e+01    1.319453e+00
  2.230934e+01    1.335115e+00
  2.232521e+01    1.319781e+00
  2.234109e+01    1.250647e+00
  2.235696e+01    1.238173e+00
  2.237284e+01    1.245427e+00
  2.238872e+01    1.199437e+00
  2.240459e+01    1.191527e+00
  2.242047e+01    1.203293e+00
  2.243634e+01    1.205670e+00
  2.245222e+01    1.192835e+00
  2.246809e+01    1.149209e+00
  2.248397e+01    1.160240e+00
  2.249984e+01    1.143329e+00
  2.251572e+01    1.143194e+00
  2.253160e+01    1.141309e+00
  2.254747e+01    1.146653e+00
  2.256335e+01    1.130143e+00
  2.257922e+01    1.114541e+00
  2.259510e+01    1.107526e+00
  2.261097e+01    1.138736e+00
  2.262685e+01    1.096496e+00
  2.264272e+01    1.074164e+00
  2.265860e+01    1.095348e+00
  2.267448e+01    1.091039e+00
  2.269035e+01    1.081218e+00
  2.270623e+01    1.096396e+00
  2.272210e+01    1.089203e+00
  2.273798e+01    1.070394e+00
  2.275385e+01    1.087685e+00
  2.276973e+01    1.067085e+00
  2.278560e+01    1.048941e+00
  2.280148e+01    1.066926e+00
  2.281736e+01    1.059715e+00
  2.283323e+01    1.054343e+00
  2.284911e+01    1.066649e+00
  2.286498e+01    1.045316e+00
  2.288086e+01    1.045080e+00
  2.289673e+01    1.062284e+00
  2.291261e+01    1.049838e+00
  2.292848e+01    1.048130e+00
  2.294436e+01    1.026346e+00
  2.296024e+01    1.015775e+00
  2.297611e+01    1.025891e+00
  2.299199e+01    1.008779e+00
  2.300786e+01    1.023740e+00
  2.302374e+01    1.022434e+00
  2.303961e+01    1.020399e+00
  2.305549e+01    1.030085e+00
  2.307137e+01    1.016861e+00
  2.308724e+01    9.952023e-01
  2.310312e+01    1.017210e+00
  2.311899e+01    1.013520e+00
  2.313487e+01    1.002406e+00
  2.315074e+01    1.003218e+00
  2.316662e+01    9.984956e-01
  2.318249e+01    9.823745e-01
  2.319837e+01    9.983168e-01
  2.321425e+01    1.001378e+00
  2.323012e+01    1.000074e+00
  2.324600e+01    1.008834e+00
  2.326187e+01    9.919252e-01
  2.327775e+01    1.007133e+00
  2.329362e+01    9.961770e-01
  2.330950e+01    9.791065e-01
  2.332537e+01    9.694791e-01
  2.334125e+01    9.944288e-01
  2.335713e+01    9.863625e-01
  2.337300e+01    9.595271e-01
  2.338888e+01    9.768216e-01
  2.340475e+01    9.832447e-01
  2.342063e+01    9.834805e-01
  2.343650e+01    9.712127e-01
  2.345238e+01    9.764096e-01
  2.346825e+01    9.703569e-01
  2.348413e+01    9.610464e-01
  2.350001e+01    9.761824e-01
  2.351588e+01    9.740903e-01
  2.353176e+01    9.550183e-01
  2.354763e+01    9.606925e-01
  2.356351e+01    9.700240e-01
  2.357938e+01    9.704274e-01
  2.359526e+01    9.614104e-01
  2.361113e+01    9.649190e-01
  2.362701e+01    9.607102e-01
  2.364289e+01    9.468916e-01
  2.365876e+01    9.654030e-01
  2.367464e+01    9.335769e-01
  2.369051e+01    9.376237e-01
  2.370639e+01    9.435645e-01
  2.372226e+01    9.581800e-01
  2.373814e+01    9.614066e-01
  2.375401e+01    9.443490e-01
  2.376989e+01    9.259267e-01
  2.378577e+01    9.363705e-01
  2.380164e+01    9.404749e-01
  2.381752e+01    9.297423e-01
  2.383339e+01    9.298615e-01
  2.384927e+01    9.168528e-01
  2.386514e+01    9.244813e-01
  2.388102e+01    9.245793e-01
  2.389689e+01    8.831093e-01
  2.391277e+01    9.064327e-01
  2.392865e+01    9.139299e-01
  2.394452e+01    8.995713e-01
  2.396040e+01    8.880346e-01
  2.397627e+01    8.934375e-01
  2.399215e+01    9.123181e-01
  2.400802e+01    9.137633e-01
  2.402390e+01    9.132928e-01
  2.403978e+01    9.144557e-01
  2.405565e+01    9.052715e-01
  2.407153e+01    8.798210e-01
  2.408740e+01    8.959202e-01
  2.410328e+01    8.884378e-01
  2.411915e+01    8.801918e-01
  2.413503e+01    9.052126e-01
  2.415090e+01    8.883153e-01
  2.416678e+01    8.892755e-01
  2.418266e+01    8.877361e-01
  2.419853e+01    8.845747e-01
  2.421441e+01    8.790593e-01
  2.423028e+01    8.904964e-01
  2.424616e+01    8.963346e-01
  2.426203e+01    8.895736e-01
  2.427791e+01    8.922358e-01
  2.429378e+01    9.097742e-01
  2.430966e+01    9.144537e-01
  2.432554e+01    8.950711e-01
  2.434141e+01    8.876971e-01
  2.435729e+01    8.723270e-01
  2.437316e+01    9.010069e-01
  2.438904e+01    9.118803e-01
  2.440491e+01    8.977968e-01
  2.442079e+01    8.994620e-01
  2.443666e+01    9.056162e-01
  2.445254e+01    9.023384e-01
  2.446842e+01    8.952953e-01
  2.448429e+01    8.954441e-01
  2.450017e+01    9.119843e-01
  2.451604e+01    8.977993e-01
  2.453192e+01    8.921189e-01
  2.454779e+01    8.994849e-01
  2.456367e+01    9.248081e-01
  2.457954e+01    9.116361e-01
  2.459542e+01    8.895412e-01
  2.461130e+01    8.873343e-01
  2.462717e+01    8.994082e-01
  2.464305e+01    9.029019e-01
  2.465892e+01    9.098658e-01
  2.467480e+01    8.988189e-01
  2.469067e+01    8.844855e-01
  2.470655e+01    8.994929e-01
  2.472242e+01    8.840988e-01
  2.473830e+01    9.067199e-01
  2.475418e+01    8.904195e-01
  2.477005e+01    8.835666e-01
  2.478593e+01    9.123204e-01
  2.480180e+01    9.105304e-01
  2.481768e+01    8.922654e-01
  2.483355e+01    8.856467e-01
  2.484943e+01    9.076199e-01
  2.486530e+01    9.090335e-01
  2.488118e+01    9.050251e-01
  2.489706e+01    8.900223e-01
  2.491293e+01    9.017662e-01
  2.492881e+01    8.851725e-01
  2.494468e+01    9.037374e-01
  2.496056e+01    8.894118e-01
  2.497643e+01    8.895268e-01
  2.499231e+01    8.930044e-01
  2.500819e+01    8.887209e-01
  2.502406e+01    9.014024e-01
  2.503994e+01    9.268221e-01
  2.505581e+01    9.261947e-01
  2.507169e+01    9.358616e-01
  2.508756e+01    9.461226e-01
  2.510344e+01    9.372619e-01
  2.511931e+01    9.014459e-01
  2.513519e+01    8.807196e-01
  2.515107e+01    9.036803e-01
  2.516694e+01    9.077390e-01
  2.518282e+01    9.240484e-01
  2.519869e+01    9.188120e-01
  2.521457e+01    9.180400e-01
  2.523044e+01    9.300684e-01
  2.524632e+01    9.392008e-01
  2.526219e+01    9.559248e-01
  2.527807e+01    9.518939e-01
  2.529395e+01    9.553643e-01
  2.530982e+01    9.488309e-01
  2.532570e+01    9.583003e-01
  2.534157e+01    9.598287e-01
  2.535745e+01    9.850471e-01
  2.537332e+01    9.727249e-01
  2.538920e+01    9.898071e-01
  2.540507e+01    1.009717e+00
  2.542095e+01    9.867033e-01
  2.543683e+01    1.008046e+00
  2.545270e+01    1.023733e+00
  2.546858e+01    1.026031e+00
  2.548445e+01    1.056294e+00
  2.550033e+01    1.078982e+00
  2.551620e+01    1.094735e+00
  2.553208e+01    1.108705e+00
  2.554795e+01    1.105857e+00
  2.556383e+01    1.145436e+00
  2.557971e+01    1.179348e+00
  2.559558e+01    1.196285e+00
  2.561146e+01    1.237917e+00
  2.562733e+01    1.265881e+00
  2.564321e+01    1.331868e+00
  2.565908e+01    1.368848e+00
  2.567496e+01    1.443125e+00
  2.569083e+01    1.530943e+00
  2.570671e+01    1.592696e+00
  2.572259e+01    1.703292e+00
  2.573846e+01    1.860524e+00
  2.575434e+01    2.032238e+00
  2.577021e+01    2.241471e+00
  2.578609e+01    2.497128e+00
  2.580196e+01    2.813188e+00
  2.581784e+01    3.212813e+00
  2.583371e+01    3.694202e+00
  2.584959e+01    4.164196e+00
  2.586547e+01    4.718681e+00
  2.588134e+01    5.297405e+00
  2.589722e+01    5.849932e+00
  2.591309e+01    6.452229e+00
  2.592897e+01    6.856903e+00
  2.594484e+01    7.114332e+00
  2.596072e+01    7.179703e+00
  2.597660e+01    7.000843e+00
  2.599247e+01    6.636488e+00
  2.600835e+01    6.005546e+00
  2.602422e+01    5.336374e+00
  2.604010e+01    4.653850e+00
  2.605597e+01    4.033559e+00
  2.607185e+01    3.528430e+00
  2.608772e+01    3.031138e+00
  2.610360e+01    2.647359e+00
  2.611948e+01    2.394325e+00
  2.613535e+01    2.191209e+00
  2.615123e+01    2.004383e+00
  2.616710e+01    1.831446e+00
  2.618298e+01    1.679169e+00
  2.619885e+01    1.568667e+00
  2.621473e+01    1.485666e+00
  2.623060e+01    1.431826e+00
  2.624648e+01    1.387074e+00
  2.626236e+01    1.312937e+00
  2.627823e+01    1.236118e+00
  2.629411e+01    1.225656e+00
  2.630998e+01    1.200240e+00
  2.632586e+01    1.183124e+00
  2.634173e+01    1.143639e+00
  2.635761e+01    1.118441e+00
  2.637348e+01    1.102448e+00
  2.638936e+01    1.073607e+00
  2.640524e+01    1.031292e+00
  2.642111e+01    1.028399e+00
  2.643699e+01    1.032804e+00
  2.645286e+01    1.043939e+00
  2.646874e+01    1.016038e+00
  2.648461e+01    1.037590e+00
  2.650049e+01    1.025629e+00
  2.651636e+01    9.983841e-01
  2.653224e+01    9.953991e-01
  2.654812e+01    9.956460e-01
  2.656399e+01    1.001267e+00
  2.657987e+01    9.919653e-01
  2.659574e+01    9.947034e-01
  2.661162e+01    9.970999e-01
  2.662749e+01    9.901323e-01
  2.664337e+01    9.814579e-01
  2.665924e+01    9.731948e-01
  2.667512e+01    9.835225e-01
  2.669100e+01    9.800995e-01
  2.670687e+01    9.958441e-01
  2.672275e+01    9.539083e-01
  2.673862e+01    9.752991e-01
  2.675450e+01    9.708731e-01
  2.677037e+01    9.648567e-01
  2.678625e+01    9.877307e-01
  2.680212e+01    9.802577e-01
  2.681800e+01    9.731919e-01
  2.683388e+01    9.638306e-01
  2.684975e+01    9.700058e-01
  2.686563e+01    1.000876e+00
  2.688150e+01    9.809936e-01
  2.689738e+01    9.971371e-01
  2.691325e+01    1.021507e+00
  2.692913e+01    1.025263e+00
  2.694501e+01    1.025767e+00
  2.696088e+01    1.065217e+00
  2.697676e+01    1.088632e+00
  2.699263e+01    1.096074e+00
  2.700851e+01    1.131475e+00
  2.702438e+01    1.173063e+00
  2.704026e+01    1.217754e+00
  2.705613e+01    1.258282e+00
  2.707201e+01    1.343899e+00
  2.708789e+01    1.417932e+00
  2.710376e+01    1.508209e+00
  2.711964e+01    1.577309e+00
  2.713551e+01    1.760489e+00
  2.715139e+01    1.871868e+00
  2.716726e+01    1.982431e+00
  2.718314e+01    2.084502e+00
  2.719901e+01    2.145361e+00
  2.721489e+01    2.187766e+00
  2.723077e+01    2.175905e+00
  2.724664e+01    2.107747e+00
  2.726252e+01    1.977682e+00
  2.727839e+01    1.830058e+00
  2.729427e+01    1.676654e+00
  2.731014e+01    1.591885e+00
  2.732602e+01    1.481476e+00
  2.734189e+01    1.372005e+00
  2.735777e+01    1.274950e+00
  2.737365e+01    1.197449e+00
  2.738952e+01    1.187465e+00
  2.740540e+01    1.166842e+00
  2.742127e+01    1.121415e+00
  2.743715e+01    1.084046e+00
  2.745302e+01    1.063021e+00
  2.746890e+01    1.025019e+00
  2.748477e+01    1.000814e+00
  2.750065e+01    9.763573e-01
  2.751653e+01    9.704419e-01
  2.753240e+01    9.527201e-01
  2.754828e+01    9.631975e-01
  2.756415e+01    9.540437e-01
  2.758003e+01    9.457776e-01
  2.759590e+01    9.593604e-01
  2.761178e+01    9.465886e-01
  2.762765e+01    9.095076e-01
  2.764353e+01    9.149266e-01
  2.765941e+01    9.313400e-01
  2.767528e+01    9.272037e-01
  2.769116e+01    9.169794e-01
  2.770703e+01    9.219050e-01
  2.772291e+01    8.738906e-01
  2.773878e+01    8.845947e-01
  2.775466e+01    9.125864e-01
  2.777054e+01    8.860264e-01
  2.778641e+01    8.977106e-01
  2.780229e+01    9.072983e-01
  2.781816e+01    8.792704e-01
  2.783404e+01    8.759506e-01
  2.784991e+01    8.579531e-01
  2.786579e+01    8.714694e-01
  2.788166e+01    9.015753e-01
  2.789754e+01    9.035016e-01
  2.791342e+01    8.762004e-01
  2.792929e+01    8.683622e-01
  2.794517e+01    9.030802e-01
  2.796104e+01    8.987860e-01
  2.797692e+01    8.629465e-01
  2.799279e+01    8.704943e-01
  2.800867e+01    8.657533e-01
  2.802454e+01    8.836417e-01
  2.804042e+01    8.816527e-01
  2.805630e+01    8.975297e-01
  2.807217e+01    8.533175e-01
  2.808805e+01    8.559467e-01
  2.810392e+01    8.943757e-01
  2.811980e+01    8.667662e-01
  2.813567e+01    8.539883e-01
  2.815155e+01    8.755353e-01
  2.816742e+01    8.574975e-01
  2.818330e+01    8.569297e-01
  2.819918e+01    8.303245e-01
  2.821505e+01    8.553370e-01
  2.823093e+01    8.987592e-01
  2.824680e+01    8.591293e-01
  2.826268e+01    8.501618e-01
  2.827855e+01    8.660247e-01
  2.829443e+01    8.570982e-01
  2.831030e+01    8.500654e-01
  2.832618e+01    8.353769e-01
  2.834206e+01    8.311827e-01
  2.835793e+01    8.600459e-01
  2.837381e+01    8.555069e-01
  2.838968e+01    8.484393e-01
  2.840556e+01    8.779418e-01
  2.842143e+01    8.676417e-01
  2.843731e+01    8.574343e-01
  2.845318e+01    8.523387e-01
  2.846906e+01    8.402277e-01
  2.848494e+01    8.433242e-01
  2.850081e+01    8.507369e-01
  2.851669e+01    8.468079e-01
  2.853256e+01    8.387386e-01
  2.854844e+01    8.488957e-01
  2.856431e+01    8.326015e-01
  2.858019e+01    8.260881e-01
  2.859606e+01    8.297197e-01
  2.861194e+01    8.433909e-01
  2.862782e+01    8.469933e-01
  2.864369e+01    8.374853e-01
  2.865957e+01    8.284270e-01
  2.867544e+01    8.363957e-01
  2.869132e+01    8.309508e-01
  2.870719e+01    8.566148e-01
  2.872307e+01    8.332722e-01
  2.873895e+01    8.379997e-01
  2.875482e+01    8.384930e-01
  2.877070e+01    8.361127e-01
  2.878657e+01    8.385306e-01
  2.880245e+01    8.435495e-01
  2.881832e+01    8.273182e-01
  2.883420e+01    8.085468e-01
  2.885007e+01    8.312104e-01
  2.886595e+01    8.226100e-01
  2.888183e+01    8.287542e-01
  2.889770e+01    8.391758e-01
  2.891358e+01    8.268392e-01
  2.892945e+01    8.158877e-01
  2.894533e+01    8.235236e-01
  2.896120e+01    8.171471e-01
  2.897708e+01    8.213094e-01
  2.899295e+01    8.253615e-01
  2.900883e+01    8.295737e-01
  2.902471e+01    8.098657e-01
  2.904058e+01    7.996603e-01
  2.905646e+01    8.214678e-01
  2.907233e+01    8.207977e-01
  2.908821e+01    8.111863e-01
  2.910408e+01    8.161030e-01
  2.911996e+01    8.059427e-01
  2.913583e+01    8.223587e-01
  2.915171e+01    8.186008e-01
  2.916759e+01    8.227814e-01
  2.918346e+01    8.195005e-01
  2.919934e+01    8.145887e-01
  2.921521e+01    8.074990e-01
  2.923109e+01    8.104812e-01
  2.924696e+01    8.063565e-01
  2.926284e+01    7.987489e-01
  2.927871e+01    7.916034e-01
  2.929459e+01    8.013107e-01
  2.931047e+01    7.958712e-01
  2.932634e+01    8.003975e-01
  2.934222e+01    8.141451e-01
  2.935809e+01    8.009934e-01
  2.937397e+01    8.216379e-01
  2.938984e+01    8.076756e-01
  2.940572e+01    7.991974e-01
  2.942159e+01    8.114051e-01
  2.943747e+01    8.198045e-01
  2.945335e+01    8.080664e-01
  2.946922e+01    7.989857e-01
  2.948510e+01    7.986448e-01
  2.950097e+01    7.836655e-01
  2.951685e+01    7.851930e-01
  2.953272e+01    7.998500e-01
  2.954860e+01    8.058718e-01
  2.956447e+01    8.112323e-01
  2.958035e+01    7.874415e-01
  2.959623e+01    8.002372e-01
  2.961210e+01    8.101962e-01
  2.962798e+01    7.874206e-01
  2.964385e+01    7.797937e-01
  2.965973e+01    7.958463e-01
  2.967560e+01    8.019988e-01
  2.969148e+01    8.048274e-01
  2.970736e+01    7.987005e-01
  2.972323e+01    8.056984e-01
  2.973911e+01    8.176385e-01
  2.975498e+01    7.992632e-01
  2.977086e+01    8.052908e-01
  2.978673e+01    7.892594e-01
  2.980261e+01    7.803034e-01
  2.981848e+01    7.869024e-01
  2.983436e+01    8.018073e-01
  2.985024e+01    7.906154e-01
  2.986611e+01    7.856067e-01
  2.988199e+01    7.979337e-01
  2.989786e+01    7.968022e-01
  2.991374e+01    7.961209e-01
  2.992961e+01    8.189279e-01
  2.994549e+01    8.093757e-01
  2.996136e+01    8.131008e-01
  2.997724e+01    8.025012e-01
  2.999312e+01    8.000201e-01
  3.000899e+01    8.020376e-01
  3.002487e+01    7.804994e-01
  3.004074e+01    7.810319e-01
  3.005662e+01    8.214868e-01
  3.007249e+01    8.156205e-01
  3.008837e+01    8.139875e-01
  3.010424e+01    8.030427e-01
  3.012012e+01    8.207594e-01
  3.013600e+01    8.024270e-01
  3.015187e+01    8.053405e-01
  3.016775e+01    8.022792e-01
  3.018362e+01    7.764288e-01
  3.019950e+01    7.928367e-01
  3.021537e+01    8.007302e-01
  3.023125e+01    7.987852e-01
  3.024712e+01    7.856299e-01
  3.026300e+01    7.710696e-01
  3.027888e+01    7.938097e-01
  3.029475e+01    7.883094e-01
  3.031063e+01    7.743098e-01
  3.032650e+01    7.730514e-01
  3.034238e+01    7.806886e-01
  3.035825e+01    7.809550e-01
  3.037413e+01    7.892633e-01
  3.039000e+01    8.038241e-01
  3.040588e+01    7.891297e-01
  3.042176e+01    7.919681e-01
  3.043763e+01    7.855929e-01
  3.045351e+01    7.870682e-01
  3.046938e+01    7.855573e-01
  3.048526e+01    7.915870e-01
  3.050113e+01    7.960258e-01
  3.051701e+01    8.141762e-01
  3.053288e+01    7.764520e-01
  3.054876e+01    7.824653e-01
  3.056464e+01    7.739153e-01
  3.058051e+01    8.006943e-01
  3.059639e+01    7.944806e-01
  3.061226e+01    7.827853e-01
  3.062814e+01    7.878292e-01
  3.064401e+01    7.680192e-01
  3.065989e+01    7.928721e-01
  3.067577e+01    7.713531e-01
  3.069164e+01    7.770466e-01
  3.070752e+01    7.933568e-01
  3.072339e+01    7.957990e-01
  3.073927e+01    7.823093e-01
  3.075514e+01    7.570629e-01
  3.077102e+01    7.772041e-01
  3.078689e+01    7.900544e-01
  3.080277e+01    7.994542e-01
  3.081865e+01    7.797957e-01
  3.083452e+01    7.902806e-01
  3.085040e+01    7.960375e-01
  3.086627e+01    7.878234e-01
  3.088215e+01    7.874054e-01
  3.089802e+01    7.847552e-01
  3.091390e+01    7.896309e-01
  3.092977e+01    7.746046e-01
  3.094565e+01    7.952463e-01
  3.096153e+01    8.091275e-01
  3.097740e+01    7.936848e-01
  3.099328e+01    7.946654e-01
  3.100915e+01    7.928826e-01
  3.102503e+01    7.892992e-01
  3.104090e+01    7.506664e-01
  3.105678e+01    7.788236e-01
  3.107265e+01    7.990788e-01
  3.108853e+01    7.860898e-01
  3.110441e+01    7.806967e-01
  3.112028e+01    7.836879e-01
  3.113616e+01    7.910380e-01
  3.115203e+01    7.993791e-01
  3.116791e+01    7.873203e-01
  3.118378e+01    8.106493e-01
  3.119966e+01    8.194835e-01
  3.121553e+01    8.108043e-01
  3.123141e+01    7.824254e-01
  3.124729e+01    7.938668e-01
  3.126316e+01    7.993692e-01
  3.127904e+01    8.196718e-01
  3.129491e+01    8.131056e-01
  3.131079e+01    7.963630e-01
  3.132666e+01    7.885642e-01
  3.134254e+01    8.017769e-01
  3.135841e+01    7.917655e-01
  3.137429e+01    7.829980e-01
  3.139017e+01    7.660348e-01
  3.140604e+01    7.875803e-01
  3.142192e+01    7.837202e-01
  3.143779e+01    7.940008e-01
  3.145367e+01    8.194968e-01
  3.146954e+01    8.131450e-01
  3.148542e+01    8.469152e-01
  3.150129e+01    8.460960e-01
  3.151717e+01    8.175826e-01
  3.153305e+01    8.373804e-01
  3.154892e+01    8.519951e-01
  3.156480e+01    8.837689e-01
  3.158067e+01    8.822625e-01
  3.159655e+01    8.909978e-01
  3.161242e+01    8.978704e-01
  3.162830e+01    8.977125e-01
  3.164418e+01    9.106368e-01
  3.166005e+01    9.560566e-01
  3.167593e+01    9.867849e-01
  3.169180e+01    9.963056e-01
  3.170768e+01    1.046303e+00
  3.172355e+01    1.082169e+00
  3.173943e+01    1.148823e+00
  3.175530e+01    1.212393e+00
  3.177118e+01    1.238909e+00
  3.178706e+01    1.332466e+00
  3.180293e+01    1.473133e+00
  3.181881e+01    1.594986e+00
  3.183468e+01    1.708114e+00
  3.185056e+01    1.857130e+00
  3.186643e+01    1.991610e+00
  3.188231e+01    2.047777e+00
  3.189818e+01    2.117566e+00
  3.191406e+01    2.122946e+00
  3.192994e+01    2.061788e+00
  3.194581e+01    1.929495e+00
  3.196169e+01    1.816119e+00
  3.197756e+01    1.677956e+00
  3.199344e+01    1.542155e+00
  3.200931e+01    1.438947e+00
  3.202519e+01    1.334275e+00
  3.204106e+01    1.244333e+00
  3.205694e+01    1.186517e+00
  3.207282e+01    1.114464e+00
  3.208869e+01    1.042146e+00
  3.210457e+01    9.997567e-01
  3.212044e+01    9.750537e-01
  3.213632e+01    9.656104e-01
  3.215219e+01    9.411790e-01
  3.216807e+01    8.815007e-01
  3.218394e+01    8.746366e-01
  3.219982e+01    8.581651e-01
  3.221570e+01    8.342363e-01
  3.223157e+01    8.123480e-01
  3.224745e+01    8.336616e-01
  3.226332e+01    8.356348e-01
  3.227920e+01    8.563623e-01
  3.229507e+01    8.342133e-01
  3.231095e+01    8.119604e-01
  3.232682e+01    8.044534e-01
  3.234270e+01    8.030741e-01
  3.235858e+01    8.009116e-01
  3.237445e+01    8.017758e-01
  3.239033e+01    7.861839e-01
  3.240620e+01    8.023029e-01
  3.242208e+01    7.954809e-01
  3.243795e+01    7.750396e-01
  3.245383e+01    7.771888e-01
  3.246970e+01    7.897324e-01
  3.248558e+01    8.011224e-01
  3.250146e+01    7.760546e-01
  3.251733e+01    7.685698e-01
  3.253321e+01    7.881296e-01
  3.254908e+01    7.773405e-01
