# == pyFAI calibration ==
# Distance Sample to Detector: 0.3999999939076516 m
# PONI: 9.750e-02, 1.135e-01 m
# Rotations: -0.000175 0.000000 -0.000000 rad
# 
# == Fit2d calibration ==
# Distance Sample-beamCenter: 400.000 mm
# Center: x=1514.000, y=1300.000 pix
# Tilt: 0.010 deg  TiltPlanRot: 0.010 deg
# 
# Detector Detector	 Spline= None	 PixelSize= 7.500e-05, 7.500e-05 m
#    Detector has a mask: False 
#    Detector has a dark current: False 
#    detector has a flat field: False 
# 
# Wavelength: 6.888e-11 m
# Mask applied: user provided
# Dark current applied: False
# Flat field applied: False
# Polarization factor: 0.99
# Normalization factor: 1.0
# --> /home/myspot/data/2024_07_Rosario/Ru-CGO-ex/2024-07-27_003_Ru-CGO-ex_Reaction_dwell_000023_data_000128.dat
#       q_nm^-1             I 
  2.003187e-02    0.000000e+00
  3.590745e-02    3.429401e-02
  5.178302e-02    1.958585e-01
  6.765859e-02    2.175826e-01
  8.353417e-02    6.117518e-02
  9.940974e-02    1.872253e-01
  1.152853e-01    1.175509e-01
  1.311609e-01    3.562873e-02
  1.470365e-01    2.650365e-02
  1.629120e-01    5.816823e-02
  1.787876e-01    4.484555e-02
  1.946632e-01    7.192273e-02
  2.105388e-01    5.797187e-02
  2.264143e-01    1.702518e-02
  2.422899e-01    5.378176e-02
  2.581655e-01    6.784919e-02
  2.740411e-01    5.027415e-02
  2.899166e-01    2.458691e-02
  3.057922e-01    4.412389e-02
  3.216678e-01    5.430799e-02
  3.375433e-01    9.077607e-03
  3.534189e-01    2.407540e-02
  3.692945e-01    3.650875e-02
  3.851701e-01    7.694400e-02
  4.010456e-01    9.104996e-02
  4.169212e-01    3.525538e-02
  4.327968e-01    1.759989e-02
  4.486724e-01    3.707821e-02
  4.645479e-01    4.621903e-02
  4.804235e-01    2.778966e-02
  4.962991e-01    2.996002e-02
  5.121747e-01    5.686707e-02
  5.280502e-01    2.939387e-02
  5.439258e-01    2.318141e-02
  5.598014e-01    3.187615e-02
  5.756770e-01    5.657598e-02
  5.915525e-01    5.917722e-02
  6.074281e-01    4.573545e-02
  6.233037e-01    7.440592e-02
  6.391793e-01    5.894786e-02
  6.550548e-01    5.913015e-02
  6.709304e-01    4.487482e-02
  6.868060e-01    3.763973e-02
  7.026815e-01    4.240782e-02
  7.185571e-01    4.036908e-02
  7.344327e-01    4.220890e-02
  7.503083e-01    4.400452e-02
  7.661838e-01    6.510953e-02
  7.820594e-01    1.160544e-01
  7.979350e-01    1.791057e-01
  8.138106e-01    2.381889e-01
  8.296861e-01    3.184771e-01
  8.455617e-01    3.266340e-01
  8.614373e-01    4.374377e-01
  8.773129e-01    4.980769e-01
  8.931884e-01    5.863133e-01
  9.090640e-01    6.678551e-01
  9.249396e-01    7.812423e-01
  9.408152e-01    8.068538e-01
  9.566907e-01    9.294974e-01
  9.725663e-01    9.914269e-01
  9.884419e-01    1.053559e+00
  1.004317e+00    1.121741e+00
  1.020193e+00    1.277528e+00
  1.036069e+00    1.326595e+00
  1.051944e+00    1.375527e+00
  1.067820e+00    1.466481e+00
  1.083695e+00    1.517310e+00
  1.099571e+00    1.477763e+00
  1.115446e+00    1.488787e+00
  1.131322e+00    1.546005e+00
  1.147198e+00    1.567335e+00
  1.163073e+00    1.668329e+00
  1.178949e+00    1.700972e+00
  1.194824e+00    1.853795e+00
  1.210700e+00    2.001913e+00
  1.226575e+00    2.101874e+00
  1.242451e+00    2.359961e+00
  1.258327e+00    2.561832e+00
  1.274202e+00    2.737029e+00
  1.290078e+00    2.785026e+00
  1.305953e+00    2.751623e+00
  1.321829e+00    2.754636e+00
  1.337705e+00    2.695740e+00
  1.353580e+00    2.700362e+00
  1.369456e+00    2.818976e+00
  1.385331e+00    2.755484e+00
  1.401207e+00    2.800358e+00
  1.417082e+00    2.809453e+00
  1.432958e+00    2.949396e+00
  1.448834e+00    2.972802e+00
  1.464709e+00    3.117286e+00
  1.480585e+00    3.246996e+00
  1.496460e+00    3.118914e+00
  1.512336e+00    3.096218e+00
  1.528211e+00    3.075808e+00
  1.544087e+00    3.114694e+00
  1.559963e+00    3.264706e+00
  1.575838e+00    3.305358e+00
  1.591714e+00    3.168190e+00
  1.607589e+00    3.232722e+00
  1.623465e+00    3.137975e+00
  1.639340e+00    3.301721e+00
  1.655216e+00    3.099464e+00
  1.671092e+00    3.019457e+00
  1.686967e+00    3.203417e+00
  1.702843e+00    3.185351e+00
  1.718718e+00    3.022410e+00
  1.734594e+00    3.117732e+00
  1.750469e+00    3.248845e+00
  1.766345e+00    3.131291e+00
  1.782221e+00    3.040448e+00
  1.798096e+00    2.972539e+00
  1.813972e+00    2.886739e+00
  1.829847e+00    2.888656e+00
  1.845723e+00    3.011639e+00
  1.861598e+00    3.186877e+00
  1.877474e+00    2.988131e+00
  1.893350e+00    2.920018e+00
  1.909225e+00    2.955507e+00
  1.925101e+00    3.063217e+00
  1.940976e+00    3.007010e+00
  1.956852e+00    3.006424e+00
  1.972727e+00    3.018755e+00
  1.988603e+00    2.966447e+00
  2.004479e+00    3.072932e+00
  2.020354e+00    3.231550e+00
  2.036230e+00    3.228975e+00
  2.052105e+00    3.127438e+00
  2.067981e+00    3.105055e+00
  2.083856e+00    3.086427e+00
  2.099732e+00    3.084021e+00
  2.115608e+00    3.101627e+00
  2.131483e+00    3.128578e+00
  2.147359e+00    2.982173e+00
  2.163234e+00    3.107318e+00
  2.179110e+00    3.186711e+00
  2.194985e+00    3.201098e+00
  2.210861e+00    3.155395e+00
  2.226737e+00    3.124161e+00
  2.242612e+00    3.080171e+00
  2.258488e+00    3.055790e+00
  2.274363e+00    3.143173e+00
  2.290239e+00    3.180751e+00
  2.306115e+00    3.068746e+00
  2.321990e+00    3.131005e+00
  2.337866e+00    3.157932e+00
  2.353741e+00    3.149178e+00
  2.369617e+00    3.154930e+00
  2.385492e+00    3.156457e+00
  2.401368e+00    3.227264e+00
  2.417244e+00    3.198345e+00
  2.433119e+00    3.248830e+00
  2.448995e+00    3.205610e+00
  2.464870e+00    3.237679e+00
  2.480746e+00    3.399286e+00
  2.496621e+00    3.245304e+00
  2.512497e+00    3.027155e+00
  2.528373e+00    3.064317e+00
  2.544248e+00    3.112928e+00
  2.560124e+00    3.141398e+00
  2.575999e+00    3.154956e+00
  2.591875e+00    3.193015e+00
  2.607750e+00    3.247513e+00
  2.623626e+00    3.237239e+00
  2.639502e+00    3.240807e+00
  2.655377e+00    3.259351e+00
  2.671253e+00    3.266304e+00
  2.687128e+00    3.237291e+00
  2.703004e+00    3.214135e+00
  2.718879e+00    3.315849e+00
  2.734755e+00    3.364794e+00
  2.750631e+00    3.399366e+00
  2.766506e+00    3.358281e+00
  2.782382e+00    3.267087e+00
  2.798257e+00    3.171511e+00
  2.814133e+00    3.107591e+00
  2.830008e+00    3.334871e+00
  2.845884e+00    3.328991e+00
  2.861760e+00    3.200372e+00
  2.877635e+00    3.179239e+00
  2.893511e+00    3.316228e+00
  2.909386e+00    3.361172e+00
  2.925262e+00    3.341234e+00
  2.941137e+00    3.242969e+00
  2.957013e+00    3.237354e+00
  2.972889e+00    3.281748e+00
  2.988764e+00    3.354376e+00
  3.004640e+00    3.318536e+00
  3.020515e+00    3.395791e+00
  3.036391e+00    3.226607e+00
  3.052266e+00    3.349387e+00
  3.068142e+00    3.444598e+00
  3.084018e+00    3.421697e+00
  3.099893e+00    3.358506e+00
  3.115769e+00    3.323427e+00
  3.131644e+00    3.333391e+00
  3.147520e+00    3.296233e+00
  3.163395e+00    3.286314e+00
  3.179271e+00    3.271374e+00
  3.195147e+00    3.382108e+00
  3.211022e+00    3.400334e+00
  3.226898e+00    3.418955e+00
  3.242773e+00    3.458715e+00
  3.258649e+00    3.352112e+00
  3.274525e+00    3.303046e+00
  3.290400e+00    3.401721e+00
  3.306276e+00    3.335620e+00
  3.322151e+00    3.309151e+00
  3.338027e+00    3.446541e+00
  3.353902e+00    3.422547e+00
  3.369778e+00    3.386542e+00
  3.385654e+00    3.433510e+00
  3.401529e+00    3.461072e+00
  3.417405e+00    3.378432e+00
  3.433280e+00    3.393754e+00
  3.449156e+00    3.327460e+00
  3.465031e+00    3.499942e+00
  3.480907e+00    3.541997e+00
  3.496783e+00    3.468264e+00
  3.512658e+00    3.452415e+00
  3.528534e+00    3.489094e+00
  3.544409e+00    3.466972e+00
  3.560285e+00    3.448280e+00
  3.576160e+00    3.415841e+00
  3.592036e+00    3.350940e+00
  3.607912e+00    3.468423e+00
  3.623787e+00    3.422558e+00
  3.639663e+00    3.450089e+00
  3.655538e+00    3.488635e+00
  3.671414e+00    3.457387e+00
  3.687289e+00    3.459428e+00
  3.703165e+00    3.425697e+00
  3.719041e+00    3.471892e+00
  3.734916e+00    3.491240e+00
  3.750792e+00    3.503970e+00
  3.766667e+00    3.457076e+00
  3.782543e+00    3.460795e+00
  3.798418e+00    3.460279e+00
  3.814294e+00    3.478615e+00
  3.830170e+00    3.572967e+00
  3.846045e+00    3.568936e+00
  3.861921e+00    3.490286e+00
  3.877796e+00    3.453947e+00
  3.893672e+00    3.594838e+00
  3.909547e+00    3.574656e+00
  3.925423e+00    3.573873e+00
  3.941299e+00    3.561667e+00
  3.957174e+00    3.494306e+00
  3.973050e+00    3.540369e+00
  3.988925e+00    3.517575e+00
  4.004801e+00    3.595167e+00
  4.020676e+00    3.647269e+00
  4.036552e+00    3.503980e+00
  4.052428e+00    3.531518e+00
  4.068303e+00    3.548630e+00
  4.084179e+00    3.593149e+00
  4.100054e+00    3.499040e+00
  4.115930e+00    3.464088e+00
  4.131806e+00    3.500320e+00
  4.147681e+00    3.535318e+00
  4.163557e+00    3.564378e+00
  4.179432e+00    3.481857e+00
  4.195308e+00    3.459584e+00
  4.211183e+00    3.478790e+00
  4.227059e+00    3.489918e+00
  4.242935e+00    3.498397e+00
  4.258810e+00    3.549649e+00
  4.274686e+00    3.561867e+00
  4.290561e+00    3.529830e+00
  4.306437e+00    3.592033e+00
  4.322312e+00    3.580519e+00
  4.338188e+00    3.587857e+00
  4.354064e+00    3.525558e+00
  4.369939e+00    3.462904e+00
  4.385815e+00    3.494747e+00
  4.401690e+00    3.586696e+00
  4.417566e+00    3.613013e+00
  4.433441e+00    3.626474e+00
  4.449317e+00    3.575473e+00
  4.465193e+00    3.632468e+00
  4.481068e+00    3.693865e+00
  4.496944e+00    3.600003e+00
  4.512819e+00    3.650950e+00
  4.528695e+00    3.551538e+00
  4.544570e+00    3.511773e+00
  4.560446e+00    3.538215e+00
  4.576322e+00    3.537912e+00
  4.592197e+00    3.590666e+00
  4.608073e+00    3.634275e+00
  4.623948e+00    3.543120e+00
  4.639824e+00    3.619307e+00
  4.655699e+00    3.610156e+00
  4.671575e+00    3.586896e+00
  4.687451e+00    3.681455e+00
  4.703326e+00    3.648310e+00
  4.719202e+00    3.643420e+00
  4.735077e+00    3.645053e+00
  4.750953e+00    3.629312e+00
  4.766828e+00    3.693412e+00
  4.782704e+00    3.634258e+00
  4.798580e+00    3.626097e+00
  4.814455e+00    3.643771e+00
  4.830331e+00    3.695956e+00
  4.846206e+00    3.774182e+00
  4.862082e+00    3.654592e+00
  4.877957e+00    3.675461e+00
  4.893833e+00    3.634263e+00
  4.909709e+00    3.520355e+00
  4.925584e+00    3.576457e+00
  4.941460e+00    3.617661e+00
  4.957335e+00    3.578829e+00
  4.973211e+00    3.676552e+00
  4.989086e+00    3.706520e+00
  5.004962e+00    3.750841e+00
  5.020838e+00    3.605503e+00
  5.036713e+00    3.602556e+00
  5.052589e+00    3.668054e+00
  5.068464e+00    3.639939e+00
  5.084340e+00    3.573124e+00
  5.100216e+00    3.607325e+00
  5.116091e+00    3.623488e+00
  5.131967e+00    3.646218e+00
  5.147842e+00    3.651874e+00
  5.163718e+00    3.649839e+00
  5.179593e+00    3.629287e+00
  5.195469e+00    3.670577e+00
  5.211345e+00    3.583053e+00
  5.227220e+00    3.614210e+00
  5.243096e+00    3.657363e+00
  5.258971e+00    3.628993e+00
  5.274847e+00    3.703612e+00
  5.290722e+00    3.725586e+00
  5.306598e+00    3.733773e+00
  5.322474e+00    3.619891e+00
  5.338349e+00    3.625711e+00
  5.354225e+00    3.653893e+00
  5.370100e+00    3.716794e+00
  5.385976e+00    3.683648e+00
  5.401851e+00    3.646808e+00
  5.417727e+00    3.572428e+00
  5.433603e+00    3.566580e+00
  5.449478e+00    3.618252e+00
  5.465354e+00    3.620559e+00
  5.481229e+00    3.588110e+00
  5.497105e+00    3.555260e+00
  5.512980e+00    3.567168e+00
  5.528856e+00    3.599298e+00
  5.544732e+00    3.532916e+00
  5.560607e+00    3.583508e+00
  5.576483e+00    3.608676e+00
  5.592358e+00    3.548254e+00
  5.608234e+00    3.573356e+00
  5.624109e+00    3.532738e+00
  5.639985e+00    3.554656e+00
  5.655861e+00    3.587578e+00
  5.671736e+00    3.634379e+00
  5.687612e+00    3.600323e+00
  5.703487e+00    3.534914e+00
  5.719363e+00    3.495221e+00
  5.735238e+00    3.501441e+00
  5.751114e+00    3.549731e+00
  5.766990e+00    3.528585e+00
  5.782865e+00    3.559683e+00
  5.798741e+00    3.537195e+00
  5.814616e+00    3.493935e+00
  5.830492e+00    3.495817e+00
  5.846367e+00    3.591120e+00
  5.862243e+00    3.484640e+00
  5.878119e+00    3.381076e+00
  5.893994e+00    3.534264e+00
  5.909870e+00    3.563471e+00
  5.925745e+00    3.454023e+00
  5.941621e+00    3.464671e+00
  5.957497e+00    3.489556e+00
  5.973372e+00    3.536274e+00
  5.989248e+00    3.494070e+00
  6.005123e+00    3.385695e+00
  6.020999e+00    3.427606e+00
  6.036874e+00    3.453038e+00
  6.052750e+00    3.474008e+00
  6.068626e+00    3.535970e+00
  6.084501e+00    3.591712e+00
  6.100377e+00    3.567162e+00
  6.116252e+00    3.583795e+00
  6.132128e+00    3.531716e+00
  6.148003e+00    3.488752e+00
  6.163879e+00    3.614936e+00
  6.179755e+00    3.626774e+00
  6.195630e+00    3.643785e+00
  6.211506e+00    3.596790e+00
  6.227381e+00    3.575086e+00
  6.243257e+00    3.536396e+00
  6.259132e+00    3.548542e+00
  6.275008e+00    3.535699e+00
  6.290884e+00    3.523211e+00
  6.306759e+00    3.546990e+00
  6.322635e+00    3.486797e+00
  6.338510e+00    3.547950e+00
  6.354386e+00    3.545030e+00
  6.370261e+00    3.508466e+00
  6.386137e+00    3.479751e+00
  6.402013e+00    3.480451e+00
  6.417888e+00    3.539744e+00
  6.433764e+00    3.575885e+00
  6.449639e+00    3.529058e+00
  6.465515e+00    3.501109e+00
  6.481390e+00    3.635848e+00
  6.497266e+00    3.628808e+00
  6.513142e+00    3.531196e+00
  6.529017e+00    3.509659e+00
  6.544893e+00    3.493161e+00
  6.560768e+00    3.568650e+00
  6.576644e+00    3.574272e+00
  6.592519e+00    3.546753e+00
  6.608395e+00    3.542479e+00
  6.624271e+00    3.514645e+00
  6.640146e+00    3.537757e+00
  6.656022e+00    3.509219e+00
  6.671897e+00    3.600914e+00
  6.687773e+00    3.584329e+00
  6.703648e+00    3.517492e+00
  6.719524e+00    3.501695e+00
  6.735400e+00    3.547437e+00
  6.751275e+00    3.559944e+00
  6.767151e+00    3.578894e+00
  6.783026e+00    3.505765e+00
  6.798902e+00    3.395416e+00
  6.814777e+00    3.437983e+00
  6.830653e+00    3.512957e+00
  6.846529e+00    3.568062e+00
  6.862404e+00    3.494473e+00
  6.878280e+00    3.553007e+00
  6.894155e+00    3.543447e+00
  6.910031e+00    3.481873e+00
  6.925907e+00    3.487226e+00
  6.941782e+00    3.498832e+00
  6.957658e+00    3.519601e+00
  6.973533e+00    3.500385e+00
  6.989409e+00    3.531466e+00
  7.005284e+00    3.529767e+00
  7.021160e+00    3.488569e+00
  7.037036e+00    3.535828e+00
  7.052911e+00    3.587615e+00
  7.068787e+00    3.507087e+00
  7.084662e+00    3.518198e+00
  7.100538e+00    3.567735e+00
  7.116413e+00    3.495000e+00
  7.132289e+00    3.465725e+00
  7.148165e+00    3.467676e+00
  7.164040e+00    3.485157e+00
  7.179916e+00    3.473093e+00
  7.195791e+00    3.503839e+00
  7.211667e+00    3.497165e+00
  7.227542e+00    3.466518e+00
  7.243418e+00    3.487792e+00
  7.259294e+00    3.463315e+00
  7.275169e+00    3.480017e+00
  7.291045e+00    3.501500e+00
  7.306920e+00    3.562528e+00
  7.322796e+00    3.481579e+00
  7.338671e+00    3.498837e+00
  7.354547e+00    3.445776e+00
  7.370423e+00    3.453575e+00
  7.386298e+00    3.436112e+00
  7.402174e+00    3.459425e+00
  7.418049e+00    3.443239e+00
  7.433925e+00    3.442998e+00
  7.449800e+00    3.429998e+00
  7.465676e+00    3.460077e+00
  7.481552e+00    3.481951e+00
  7.497427e+00    3.519887e+00
  7.513303e+00    3.479094e+00
  7.529178e+00    3.435219e+00
  7.545054e+00    3.395427e+00
  7.560929e+00    3.471583e+00
  7.576805e+00    3.495329e+00
  7.592681e+00    3.480653e+00
  7.608556e+00    3.524606e+00
  7.624432e+00    3.511635e+00
  7.640307e+00    3.463918e+00
  7.656183e+00    3.458998e+00
  7.672058e+00    3.454525e+00
  7.687934e+00    3.422018e+00
  7.703810e+00    3.355317e+00
  7.719685e+00    3.363052e+00
  7.735561e+00    3.388384e+00
  7.751436e+00    3.475813e+00
  7.767312e+00    3.512848e+00
  7.783187e+00    3.513915e+00
  7.799063e+00    3.493286e+00
  7.814939e+00    3.449545e+00
  7.830814e+00    3.371228e+00
  7.846690e+00    3.420499e+00
  7.862565e+00    3.475164e+00
  7.878441e+00    3.393410e+00
  7.894317e+00    3.411399e+00
  7.910192e+00    3.429047e+00
  7.926068e+00    3.372218e+00
  7.941943e+00    3.426503e+00
  7.957819e+00    3.418257e+00
  7.973694e+00    3.391264e+00
  7.989570e+00    3.373813e+00
  8.005446e+00    3.377268e+00
  8.021321e+00    3.463863e+00
  8.037197e+00    3.446187e+00
  8.053072e+00    3.386270e+00
  8.068948e+00    3.403870e+00
  8.084823e+00    3.398772e+00
  8.100699e+00    3.427254e+00
  8.116575e+00    3.428215e+00
  8.132450e+00    3.457006e+00
  8.148326e+00    3.483623e+00
  8.164201e+00    3.450756e+00
  8.180077e+00    3.454550e+00
  8.195952e+00    3.461096e+00
  8.211828e+00    3.499329e+00
  8.227704e+00    3.499943e+00
  8.243579e+00    3.446212e+00
  8.259455e+00    3.414923e+00
  8.275330e+00    3.417073e+00
  8.291206e+00    3.401511e+00
  8.307081e+00    3.429792e+00
  8.322957e+00    3.390071e+00
  8.338833e+00    3.348349e+00
  8.354708e+00    3.381304e+00
  8.370584e+00    3.351126e+00
  8.386459e+00    3.413310e+00
  8.402335e+00    3.400626e+00
  8.418210e+00    3.431915e+00
  8.434086e+00    3.358776e+00
  8.449962e+00    3.318455e+00
  8.465837e+00    3.410238e+00
  8.481713e+00    3.328576e+00
  8.497588e+00    3.341630e+00
  8.513464e+00    3.400645e+00
  8.529339e+00    3.393501e+00
  8.545215e+00    3.326320e+00
  8.561091e+00    3.357332e+00
  8.576966e+00    3.343583e+00
  8.592842e+00    3.350664e+00
  8.608717e+00    3.321493e+00
  8.624593e+00    3.288744e+00
  8.640468e+00    3.287760e+00
  8.656344e+00    3.276023e+00
  8.672220e+00    3.313928e+00
  8.688095e+00    3.322981e+00
  8.703971e+00    3.315504e+00
  8.719846e+00    3.303930e+00
  8.735722e+00    3.316615e+00
  8.751598e+00    3.362175e+00
  8.767473e+00    3.340378e+00
  8.783349e+00    3.335508e+00
  8.799224e+00    3.307654e+00
  8.815100e+00    3.296716e+00
  8.830975e+00    3.278441e+00
  8.846851e+00    3.323626e+00
  8.862727e+00    3.262367e+00
  8.878602e+00    3.354430e+00
  8.894478e+00    3.390778e+00
  8.910353e+00    3.261593e+00
  8.926229e+00    3.280271e+00
  8.942104e+00    3.295843e+00
  8.957980e+00    3.341659e+00
  8.973856e+00    3.311260e+00
  8.989731e+00    3.210247e+00
  9.005607e+00    3.284207e+00
  9.021482e+00    3.284837e+00
  9.037358e+00    3.226914e+00
  9.053233e+00    3.243356e+00
  9.069109e+00    3.260560e+00
  9.084985e+00    3.253736e+00
  9.100860e+00    3.300869e+00
  9.116736e+00    3.212816e+00
  9.132611e+00    3.270531e+00
  9.148487e+00    3.221486e+00
  9.164362e+00    3.247532e+00
  9.180238e+00    3.256771e+00
  9.196114e+00    3.257030e+00
  9.211989e+00    3.229538e+00
  9.227865e+00    3.246863e+00
  9.243740e+00    3.241774e+00
  9.259616e+00    3.277522e+00
  9.275491e+00    3.245823e+00
  9.291367e+00    3.267924e+00
  9.307243e+00    3.244028e+00
  9.323118e+00    3.183892e+00
  9.338994e+00    3.186907e+00
  9.354869e+00    3.221275e+00
  9.370745e+00    3.234462e+00
  9.386620e+00    3.243806e+00
  9.402496e+00    3.197953e+00
  9.418372e+00    3.205512e+00
  9.434247e+00    3.229041e+00
  9.450123e+00    3.232856e+00
  9.465998e+00    3.164506e+00
  9.481874e+00    3.177658e+00
  9.497749e+00    3.148985e+00
  9.513625e+00    3.176411e+00
  9.529501e+00    3.178667e+00
  9.545376e+00    3.209709e+00
  9.561252e+00    3.262264e+00
  9.577127e+00    3.206708e+00
  9.593003e+00    3.204454e+00
  9.608878e+00    3.227502e+00
  9.624754e+00    3.162622e+00
  9.640630e+00    3.164896e+00
  9.656505e+00    3.194310e+00
  9.672381e+00    3.242354e+00
  9.688256e+00    3.149934e+00
  9.704132e+00    3.150310e+00
  9.720008e+00    3.204937e+00
  9.735883e+00    3.122018e+00
  9.751759e+00    3.126016e+00
  9.767634e+00    3.113265e+00
  9.783510e+00    3.135566e+00
  9.799385e+00    3.126018e+00
  9.815261e+00    3.160685e+00
  9.831137e+00    3.133593e+00
  9.847012e+00    3.116849e+00
  9.862888e+00    3.159170e+00
  9.878763e+00    3.112726e+00
  9.894639e+00    3.142726e+00
  9.910514e+00    3.105008e+00
  9.926390e+00    3.126750e+00
  9.942266e+00    3.147657e+00
  9.958141e+00    3.171638e+00
  9.974017e+00    3.122378e+00
  9.989892e+00    3.059579e+00
  1.000577e+01    3.032352e+00
  1.002164e+01    3.086637e+00
  1.003752e+01    3.139068e+00
  1.005339e+01    3.102437e+00
  1.006927e+01    3.080484e+00
  1.008515e+01    3.116817e+00
  1.010102e+01    3.044766e+00
  1.011690e+01    3.043370e+00
  1.013277e+01    3.097375e+00
  1.014865e+01    3.068389e+00
  1.016452e+01    3.089670e+00
  1.018040e+01    3.060180e+00
  1.019627e+01    3.085910e+00
  1.021215e+01    3.052710e+00
  1.022803e+01    3.084450e+00
  1.024390e+01    3.086672e+00
  1.025978e+01    3.039073e+00
  1.027565e+01    2.993027e+00
  1.029153e+01    3.023545e+00
  1.030740e+01    3.041111e+00
  1.032328e+01    3.024629e+00
  1.033915e+01    3.036310e+00
  1.035503e+01    3.034928e+00
  1.037091e+01    3.053372e+00
  1.038678e+01    3.029167e+00
  1.040266e+01    3.112652e+00
  1.041853e+01    3.113610e+00
  1.043441e+01    3.038696e+00
  1.045028e+01    2.999414e+00
  1.046616e+01    3.047936e+00
  1.048204e+01    3.053745e+00
  1.049791e+01    3.045323e+00
  1.051379e+01    2.991628e+00
  1.052966e+01    2.996689e+00
  1.054554e+01    2.981442e+00
  1.056141e+01    2.970410e+00
  1.057729e+01    2.932459e+00
  1.059316e+01    2.961975e+00
  1.060904e+01    3.020035e+00
  1.062492e+01    3.005003e+00
  1.064079e+01    2.978369e+00
  1.065667e+01    2.979303e+00
  1.067254e+01    2.996897e+00
  1.068842e+01    2.964716e+00
  1.070429e+01    2.951573e+00
  1.072017e+01    2.936313e+00
  1.073604e+01    2.935556e+00
  1.075192e+01    2.996509e+00
  1.076780e+01    2.944898e+00
  1.078367e+01    2.936736e+00
  1.079955e+01    2.914903e+00
  1.081542e+01    2.912834e+00
  1.083130e+01    2.905732e+00
  1.084717e+01    2.887410e+00
  1.086305e+01    2.894017e+00
  1.087892e+01    2.924307e+00
  1.089480e+01    2.885175e+00
  1.091068e+01    2.866475e+00
  1.092655e+01    2.881790e+00
  1.094243e+01    2.889041e+00
  1.095830e+01    2.872353e+00
  1.097418e+01    2.887339e+00
  1.099005e+01    2.903548e+00
  1.100593e+01    2.893011e+00
  1.102180e+01    2.869216e+00
  1.103768e+01    2.860035e+00
  1.105356e+01    2.877213e+00
  1.106943e+01    2.936131e+00
  1.108531e+01    2.913330e+00
  1.110118e+01    2.821380e+00
  1.111706e+01    2.814829e+00
  1.113293e+01    2.856642e+00
  1.114881e+01    2.849679e+00
  1.116468e+01    2.860838e+00
  1.118056e+01    2.904062e+00
  1.119644e+01    2.957118e+00
  1.121231e+01    2.913383e+00
  1.122819e+01    2.900079e+00
  1.124406e+01    2.913478e+00
  1.125994e+01    2.845502e+00
  1.127581e+01    2.832486e+00
  1.129169e+01    2.810373e+00
  1.130756e+01    2.848380e+00
  1.132344e+01    2.802947e+00
  1.133932e+01    2.810400e+00
  1.135519e+01    2.854536e+00
  1.137107e+01    2.801013e+00
  1.138694e+01    2.815966e+00
  1.140282e+01    2.815505e+00
  1.141869e+01    2.783672e+00
  1.143457e+01    2.745075e+00
  1.145045e+01    2.775105e+00
  1.146632e+01    2.796165e+00
  1.148220e+01    2.773175e+00
  1.149807e+01    2.808263e+00
  1.151395e+01    2.746625e+00
  1.152982e+01    2.711832e+00
  1.154570e+01    2.802673e+00
  1.156157e+01    2.796388e+00
  1.157745e+01    2.784917e+00
  1.159333e+01    2.734775e+00
  1.160920e+01    2.757409e+00
  1.162508e+01    2.753912e+00
  1.164095e+01    2.723704e+00
  1.165683e+01    2.709809e+00
  1.167270e+01    2.693197e+00
  1.168858e+01    2.749418e+00
  1.170445e+01    2.738831e+00
  1.172033e+01    2.738356e+00
  1.173621e+01    2.739164e+00
  1.175208e+01    2.749593e+00
  1.176796e+01    2.757931e+00
  1.178383e+01    2.762958e+00
  1.179971e+01    2.757252e+00
  1.181558e+01    2.744762e+00
  1.183146e+01    2.735720e+00
  1.184733e+01    2.716926e+00
  1.186321e+01    2.748892e+00
  1.187909e+01    2.752670e+00
  1.189496e+01    2.713753e+00
  1.191084e+01    2.704099e+00
  1.192671e+01    2.713523e+00
  1.194259e+01    2.712130e+00
  1.195846e+01    2.693966e+00
  1.197434e+01    2.696327e+00
  1.199021e+01    2.681268e+00
  1.200609e+01    2.649350e+00
  1.202197e+01    2.700166e+00
  1.203784e+01    2.711075e+00
  1.205372e+01    2.652241e+00
  1.206959e+01    2.661836e+00
  1.208547e+01    2.676982e+00
  1.210134e+01    2.681120e+00
  1.211722e+01    2.667099e+00
  1.213309e+01    2.656746e+00
  1.214897e+01    2.687196e+00
  1.216485e+01    2.723574e+00
  1.218072e+01    2.718250e+00
  1.219660e+01    2.726416e+00
  1.221247e+01    2.712248e+00
  1.222835e+01    2.678298e+00
  1.224422e+01    2.657715e+00
  1.226010e+01    2.674883e+00
  1.227597e+01    2.720027e+00
  1.229185e+01    2.694274e+00
  1.230773e+01    2.668377e+00
  1.232360e+01    2.711983e+00
  1.233948e+01    2.669080e+00
  1.235535e+01    2.676223e+00
  1.237123e+01    2.682644e+00
  1.238710e+01    2.679866e+00
  1.240298e+01    2.640115e+00
  1.241886e+01    2.660444e+00
  1.243473e+01    2.679378e+00
  1.245061e+01    2.709966e+00
  1.246648e+01    2.655251e+00
  1.248236e+01    2.699317e+00
  1.249823e+01    2.710922e+00
  1.251411e+01    2.706908e+00
  1.252998e+01    2.727552e+00
  1.254586e+01    2.708562e+00
  1.256174e+01    2.760466e+00
  1.257761e+01    2.723606e+00
  1.259349e+01    2.714306e+00
  1.260936e+01    2.723873e+00
  1.262524e+01    2.721145e+00
  1.264111e+01    2.694394e+00
  1.265699e+01    2.780344e+00
  1.267286e+01    2.801731e+00
  1.268874e+01    2.804921e+00
  1.270462e+01    2.826381e+00
  1.272049e+01    2.813995e+00
  1.273637e+01    2.850097e+00
  1.275224e+01    2.897439e+00
  1.276812e+01    2.908182e+00
  1.278399e+01    2.959228e+00
  1.279987e+01    3.000880e+00
  1.281574e+01    3.022048e+00
  1.283162e+01    3.089745e+00
  1.284750e+01    3.211399e+00
  1.286337e+01    3.312032e+00
  1.287925e+01    3.399181e+00
  1.289512e+01    3.483731e+00
  1.291100e+01    3.619867e+00
  1.292687e+01    3.827096e+00
  1.294275e+01    4.087095e+00
  1.295862e+01    4.354887e+00
  1.297450e+01    4.734603e+00
  1.299038e+01    5.154806e+00
  1.300625e+01    5.813852e+00
  1.302213e+01    6.670265e+00
  1.303800e+01    7.724422e+00
  1.305388e+01    8.887351e+00
  1.306975e+01    1.012200e+01
  1.308563e+01    1.145532e+01
  1.310150e+01    1.265325e+01
  1.311738e+01    1.384933e+01
  1.313326e+01    1.493293e+01
  1.314913e+01    1.570554e+01
  1.316501e+01    1.620916e+01
  1.318088e+01    1.626397e+01
  1.319676e+01    1.554941e+01
  1.321263e+01    1.436358e+01
  1.322851e+01    1.256192e+01
  1.324438e+01    1.075162e+01
  1.326026e+01    9.085380e+00
  1.327614e+01    7.762122e+00
  1.329201e+01    6.717726e+00
  1.330789e+01    5.956772e+00
  1.332376e+01    5.287017e+00
  1.333964e+01    4.787946e+00
  1.335551e+01    4.386100e+00
  1.337139e+01    4.121592e+00
  1.338727e+01    3.802871e+00
  1.340314e+01    3.595628e+00
  1.341902e+01    3.441388e+00
  1.343489e+01    3.356319e+00
  1.345077e+01    3.274675e+00
  1.346664e+01    3.165857e+00
  1.348252e+01    3.031609e+00
  1.349839e+01    2.937639e+00
  1.351427e+01    2.938209e+00
  1.353015e+01    2.898108e+00
  1.354602e+01    2.850852e+00
  1.356190e+01    2.782541e+00
  1.357777e+01    2.726213e+00
  1.359365e+01    2.675550e+00
  1.360952e+01    2.674276e+00
  1.362540e+01    2.657091e+00
  1.364127e+01    2.600652e+00
  1.365715e+01    2.593149e+00
  1.367303e+01    2.591585e+00
  1.368890e+01    2.566123e+00
  1.370478e+01    2.551597e+00
  1.372065e+01    2.548353e+00
  1.373653e+01    2.490803e+00
  1.375240e+01    2.496620e+00
  1.376828e+01    2.507430e+00
  1.378415e+01    2.495576e+00
  1.380003e+01    2.440153e+00
  1.381591e+01    2.427099e+00
  1.383178e+01    2.437816e+00
  1.384766e+01    2.445931e+00
  1.386353e+01    2.452156e+00
  1.387941e+01    2.458616e+00
  1.389528e+01    2.425886e+00
  1.391116e+01    2.398210e+00
  1.392703e+01    2.374309e+00
  1.394291e+01    2.399164e+00
  1.395879e+01    2.411830e+00
  1.397466e+01    2.378876e+00
  1.399054e+01    2.359337e+00
  1.400641e+01    2.365157e+00
  1.402229e+01    2.350093e+00
  1.403816e+01    2.325656e+00
  1.405404e+01    2.359905e+00
  1.406991e+01    2.360386e+00
  1.408579e+01    2.343280e+00
  1.410167e+01    2.313833e+00
  1.411754e+01    2.309369e+00
  1.413342e+01    2.329153e+00
  1.414929e+01    2.302260e+00
  1.416517e+01    2.312734e+00
  1.418104e+01    2.303658e+00
  1.419692e+01    2.296746e+00
  1.421279e+01    2.281834e+00
  1.422867e+01    2.271853e+00
  1.424455e+01    2.259595e+00
  1.426042e+01    2.239783e+00
  1.427630e+01    2.258250e+00
  1.429217e+01    2.263821e+00
  1.430805e+01    2.265660e+00
  1.432392e+01    2.283117e+00
  1.433980e+01    2.286023e+00
  1.435568e+01    2.233733e+00
  1.437155e+01    2.220083e+00
  1.438743e+01    2.225178e+00
  1.440330e+01    2.220619e+00
  1.441918e+01    2.204246e+00
  1.443505e+01    2.270290e+00
  1.445093e+01    2.275927e+00
  1.446680e+01    2.229970e+00
  1.448268e+01    2.184695e+00
  1.449856e+01    2.226192e+00
  1.451443e+01    2.241964e+00
  1.453031e+01    2.205130e+00
  1.454618e+01    2.213134e+00
  1.456206e+01    2.233624e+00
  1.457793e+01    2.209330e+00
  1.459381e+01    2.218683e+00
  1.460968e+01    2.154950e+00
  1.462556e+01    2.199925e+00
  1.464144e+01    2.215787e+00
  1.465731e+01    2.194575e+00
  1.467319e+01    2.174754e+00
  1.468906e+01    2.178996e+00
  1.470494e+01    2.171355e+00
  1.472081e+01    2.190791e+00
  1.473669e+01    2.166603e+00
  1.475256e+01    2.123248e+00
  1.476844e+01    2.137243e+00
  1.478432e+01    2.191813e+00
  1.480019e+01    2.186548e+00
  1.481607e+01    2.206839e+00
  1.483194e+01    2.208926e+00
  1.484782e+01    2.190517e+00
  1.486369e+01    2.216455e+00
  1.487957e+01    2.246144e+00
  1.489544e+01    2.236330e+00
  1.491132e+01    2.237445e+00
  1.492720e+01    2.253500e+00
  1.494307e+01    2.265264e+00
  1.495895e+01    2.374444e+00
  1.497482e+01    2.374125e+00
  1.499070e+01    2.407134e+00
  1.500657e+01    2.495594e+00
  1.502245e+01    2.477662e+00
  1.503832e+01    2.534016e+00
  1.505420e+01    2.676680e+00
  1.507008e+01    2.804617e+00
  1.508595e+01    2.989282e+00
  1.510183e+01    3.163019e+00
  1.511770e+01    3.403231e+00
  1.513358e+01    3.783328e+00
  1.514945e+01    4.178160e+00
  1.516533e+01    4.500130e+00
  1.518120e+01    4.836856e+00
  1.519708e+01    5.180824e+00
  1.521296e+01    5.390419e+00
  1.522883e+01    5.554191e+00
  1.524471e+01    5.694444e+00
  1.526058e+01    5.798147e+00
  1.527646e+01    5.760199e+00
  1.529233e+01    5.484609e+00
  1.530821e+01    5.146203e+00
  1.532409e+01    4.671317e+00
  1.533996e+01    4.168944e+00
  1.535584e+01    3.753102e+00
  1.537171e+01    3.472585e+00
  1.538759e+01    3.169452e+00
  1.540346e+01    2.935082e+00
  1.541934e+01    2.755455e+00
  1.543521e+01    2.564743e+00
  1.545109e+01    2.489434e+00
  1.546697e+01    2.440666e+00
  1.548284e+01    2.415438e+00
  1.549872e+01    2.298997e+00
  1.551459e+01    2.239262e+00
  1.553047e+01    2.229864e+00
  1.554634e+01    2.159530e+00
  1.556222e+01    2.106595e+00
  1.557809e+01    2.100458e+00
  1.559397e+01    2.101972e+00
  1.560985e+01    2.055979e+00
  1.562572e+01    2.016344e+00
  1.564160e+01    2.027179e+00
  1.565747e+01    2.012554e+00
  1.567335e+01    2.034494e+00
  1.568922e+01    2.025193e+00
  1.570510e+01    1.999900e+00
  1.572097e+01    1.952176e+00
  1.573685e+01    1.959640e+00
  1.575273e+01    1.976547e+00
  1.576860e+01    1.944714e+00
  1.578448e+01    1.908970e+00
  1.580035e+01    1.931873e+00
  1.581623e+01    1.927862e+00
  1.583210e+01    1.905839e+00
  1.584798e+01    1.897178e+00
  1.586385e+01    1.913009e+00
  1.587973e+01    1.917208e+00
  1.589561e+01    1.924263e+00
  1.591148e+01    1.903612e+00
  1.592736e+01    1.913493e+00
  1.594323e+01    1.905593e+00
  1.595911e+01    1.887813e+00
  1.597498e+01    1.884783e+00
  1.599086e+01    1.859923e+00
  1.600673e+01    1.844671e+00
  1.602261e+01    1.864695e+00
  1.603849e+01    1.843138e+00
  1.605436e+01    1.882012e+00
  1.607024e+01    1.858927e+00
  1.608611e+01    1.818821e+00
  1.610199e+01    1.816381e+00
  1.611786e+01    1.828290e+00
  1.613374e+01    1.821127e+00
  1.614961e+01    1.828045e+00
  1.616549e+01    1.822282e+00
  1.618137e+01    1.848619e+00
  1.619724e+01    1.829189e+00
  1.621312e+01    1.805872e+00
  1.622899e+01    1.797091e+00
  1.624487e+01    1.799939e+00
  1.626074e+01    1.783581e+00
  1.627662e+01    1.801722e+00
  1.629250e+01    1.786163e+00
  1.630837e+01    1.778606e+00
  1.632425e+01    1.814563e+00
  1.634012e+01    1.814879e+00
  1.635600e+01    1.781063e+00
  1.637187e+01    1.773293e+00
  1.638775e+01    1.775950e+00
  1.640362e+01    1.775824e+00
  1.641950e+01    1.780599e+00
  1.643538e+01    1.776462e+00
  1.645125e+01    1.800017e+00
  1.646713e+01    1.776813e+00
  1.648300e+01    1.759179e+00
  1.649888e+01    1.749948e+00
  1.651475e+01    1.745495e+00
  1.653063e+01    1.740263e+00
  1.654650e+01    1.757316e+00
  1.656238e+01    1.748849e+00
  1.657826e+01    1.721073e+00
  1.659413e+01    1.679446e+00
  1.661001e+01    1.717929e+00
  1.662588e+01    1.723016e+00
  1.664176e+01    1.713470e+00
  1.665763e+01    1.705760e+00
  1.667351e+01    1.674371e+00
  1.668938e+01    1.690449e+00
  1.670526e+01    1.726659e+00
  1.672114e+01    1.718833e+00
  1.673701e+01    1.702867e+00
  1.675289e+01    1.703529e+00
  1.676876e+01    1.693725e+00
  1.678464e+01    1.695743e+00
  1.680051e+01    1.734350e+00
  1.681639e+01    1.731516e+00
  1.683226e+01    1.713424e+00
  1.684814e+01    1.702013e+00
  1.686402e+01    1.697741e+00
  1.687989e+01    1.709491e+00
  1.689577e+01    1.707440e+00
  1.691164e+01    1.658342e+00
  1.692752e+01    1.650268e+00
  1.694339e+01    1.646801e+00
  1.695927e+01    1.657717e+00
  1.697514e+01    1.642465e+00
  1.699102e+01    1.653361e+00
  1.700690e+01    1.667516e+00
  1.702277e+01    1.662639e+00
  1.703865e+01    1.634265e+00
  1.705452e+01    1.664389e+00
  1.707040e+01    1.644642e+00
  1.708627e+01    1.634186e+00
  1.710215e+01    1.664389e+00
  1.711802e+01    1.663326e+00
  1.713390e+01    1.597334e+00
  1.714978e+01    1.607277e+00
  1.716565e+01    1.619867e+00
  1.718153e+01    1.624055e+00
  1.719740e+01    1.612523e+00
  1.721328e+01    1.604906e+00
  1.722915e+01    1.630280e+00
  1.724503e+01    1.623002e+00
  1.726091e+01    1.602917e+00
  1.727678e+01    1.596358e+00
  1.729266e+01    1.603694e+00
  1.730853e+01    1.613234e+00
  1.732441e+01    1.601783e+00
  1.734028e+01    1.590244e+00
  1.735616e+01    1.600054e+00
  1.737203e+01    1.600507e+00
  1.738791e+01    1.590333e+00
  1.740379e+01    1.566365e+00
  1.741966e+01    1.590625e+00
  1.743554e+01    1.598622e+00
  1.745141e+01    1.612180e+00
  1.746729e+01    1.585299e+00
  1.748316e+01    1.574949e+00
  1.749904e+01    1.589774e+00
  1.751491e+01    1.576782e+00
  1.753079e+01    1.565971e+00
  1.754667e+01    1.594284e+00
  1.756254e+01    1.582627e+00
  1.757842e+01    1.555015e+00
  1.759429e+01    1.550145e+00
  1.761017e+01    1.514047e+00
  1.762604e+01    1.542826e+00
  1.764192e+01    1.573312e+00
  1.765779e+01    1.563983e+00
  1.767367e+01    1.560349e+00
  1.768955e+01    1.560664e+00
  1.770542e+01    1.539281e+00
  1.772130e+01    1.573419e+00
  1.773717e+01    1.558148e+00
  1.775305e+01    1.534265e+00
  1.776892e+01    1.540997e+00
  1.778480e+01    1.499598e+00
  1.780067e+01    1.534609e+00
  1.781655e+01    1.561100e+00
  1.783243e+01    1.556877e+00
  1.784830e+01    1.530755e+00
  1.786418e+01    1.564680e+00
  1.788005e+01    1.551892e+00
  1.789593e+01    1.501085e+00
  1.791180e+01    1.502802e+00
  1.792768e+01    1.518312e+00
  1.794355e+01    1.510443e+00
  1.795943e+01    1.522391e+00
  1.797531e+01    1.511048e+00
  1.799118e+01    1.493494e+00
  1.800706e+01    1.468311e+00
  1.802293e+01    1.489941e+00
  1.803881e+01    1.526446e+00
  1.805468e+01    1.516817e+00
  1.807056e+01    1.531663e+00
  1.808643e+01    1.516004e+00
  1.810231e+01    1.483938e+00
  1.811819e+01    1.455376e+00
  1.813406e+01    1.469058e+00
  1.814994e+01    1.488306e+00
  1.816581e+01    1.473236e+00
  1.818169e+01    1.486356e+00
  1.819756e+01    1.455470e+00
  1.821344e+01    1.489287e+00
  1.822932e+01    1.507004e+00
  1.824519e+01    1.494366e+00
  1.826107e+01    1.500129e+00
  1.827694e+01    1.488793e+00
  1.829282e+01    1.454899e+00
  1.830869e+01    1.478031e+00
  1.832457e+01    1.507399e+00
  1.834044e+01    1.471343e+00
  1.835632e+01    1.455267e+00
  1.837220e+01    1.469294e+00
  1.838807e+01    1.451870e+00
  1.840395e+01    1.468351e+00
  1.841982e+01    1.439670e+00
  1.843570e+01    1.407115e+00
  1.845157e+01    1.453969e+00
  1.846745e+01    1.447400e+00
  1.848332e+01    1.441555e+00
  1.849920e+01    1.431518e+00
  1.851508e+01    1.417427e+00
  1.853095e+01    1.398648e+00
  1.854683e+01    1.408046e+00
  1.856270e+01    1.421695e+00
  1.857858e+01    1.452467e+00
  1.859445e+01    1.423706e+00
  1.861033e+01    1.428983e+00
  1.862620e+01    1.405330e+00
  1.864208e+01    1.442611e+00
  1.865796e+01    1.420883e+00
  1.867383e+01    1.429886e+00
  1.868971e+01    1.397211e+00
  1.870558e+01    1.419081e+00
  1.872146e+01    1.439426e+00
  1.873733e+01    1.425986e+00
  1.875321e+01    1.398971e+00
  1.876908e+01    1.378075e+00
  1.878496e+01    1.382871e+00
  1.880084e+01    1.412875e+00
  1.881671e+01    1.421515e+00
  1.883259e+01    1.419904e+00
  1.884846e+01    1.405294e+00
  1.886434e+01    1.386322e+00
  1.888021e+01    1.375936e+00
  1.889609e+01    1.386243e+00
  1.891196e+01    1.393901e+00
  1.892784e+01    1.383121e+00
  1.894372e+01    1.386882e+00
  1.895959e+01    1.408919e+00
  1.897547e+01    1.387311e+00
  1.899134e+01    1.397943e+00
  1.900722e+01    1.405602e+00
  1.902309e+01    1.397622e+00
  1.903897e+01    1.382974e+00
  1.905484e+01    1.384452e+00
  1.907072e+01    1.373642e+00
  1.908660e+01    1.372635e+00
  1.910247e+01    1.388350e+00
  1.911835e+01    1.359379e+00
  1.913422e+01    1.373511e+00
  1.915010e+01    1.399533e+00
  1.916597e+01    1.381975e+00
  1.918185e+01    1.367602e+00
  1.919773e+01    1.388287e+00
  1.921360e+01    1.344607e+00
  1.922948e+01    1.352550e+00
  1.924535e+01    1.359472e+00
  1.926123e+01    1.357552e+00
  1.927710e+01    1.355368e+00
  1.929298e+01    1.344424e+00
  1.930885e+01    1.360969e+00
  1.932473e+01    1.353057e+00
  1.934061e+01    1.352564e+00
  1.935648e+01    1.353117e+00
  1.937236e+01    1.379645e+00
  1.938823e+01    1.343274e+00
  1.940411e+01    1.331549e+00
  1.941998e+01    1.326126e+00
  1.943586e+01    1.314929e+00
  1.945173e+01    1.351564e+00
  1.946761e+01    1.334386e+00
  1.948349e+01    1.328036e+00
  1.949936e+01    1.343019e+00
  1.951524e+01    1.342837e+00
  1.953111e+01    1.339697e+00
  1.954699e+01    1.309942e+00
  1.956286e+01    1.327068e+00
  1.957874e+01    1.331629e+00
  1.959461e+01    1.321542e+00
  1.961049e+01    1.332812e+00
  1.962637e+01    1.354897e+00
  1.964224e+01    1.337474e+00
  1.965812e+01    1.325061e+00
  1.967399e+01    1.327561e+00
  1.968987e+01    1.312170e+00
  1.970574e+01    1.289517e+00
  1.972162e+01    1.270010e+00
  1.973749e+01    1.295734e+00
  1.975337e+01    1.292678e+00
  1.976925e+01    1.272639e+00
  1.978512e+01    1.299284e+00
  1.980100e+01    1.305874e+00
  1.981687e+01    1.277837e+00
  1.983275e+01    1.293456e+00
  1.984862e+01    1.315511e+00
  1.986450e+01    1.312329e+00
  1.988037e+01    1.322913e+00
  1.989625e+01    1.319144e+00
  1.991213e+01    1.283244e+00
  1.992800e+01    1.289331e+00
  1.994388e+01    1.297853e+00
  1.995975e+01    1.292119e+00
  1.997563e+01    1.276530e+00
  1.999150e+01    1.280440e+00
  2.000738e+01    1.278025e+00
  2.002325e+01    1.268116e+00
  2.003913e+01    1.264335e+00
  2.005501e+01    1.259553e+00
  2.007088e+01    1.259109e+00
  2.008676e+01    1.285183e+00
  2.010263e+01    1.282212e+00
  2.011851e+01    1.259292e+00
  2.013438e+01    1.265529e+00
  2.015026e+01    1.263196e+00
  2.016614e+01    1.262617e+00
  2.018201e+01    1.275296e+00
  2.019789e+01    1.269643e+00
  2.021376e+01    1.256680e+00
  2.022964e+01    1.267037e+00
  2.024551e+01    1.249029e+00
  2.026139e+01    1.277866e+00
  2.027726e+01    1.260176e+00
  2.029314e+01    1.248570e+00
  2.030902e+01    1.255786e+00
  2.032489e+01    1.242705e+00
  2.034077e+01    1.243584e+00
  2.035664e+01    1.245813e+00
  2.037252e+01    1.240053e+00
  2.038839e+01    1.237157e+00
  2.040427e+01    1.247284e+00
  2.042014e+01    1.232897e+00
  2.043602e+01    1.218494e+00
  2.045190e+01    1.234759e+00
  2.046777e+01    1.227044e+00
  2.048365e+01    1.245873e+00
  2.049952e+01    1.246250e+00
  2.051540e+01    1.219461e+00
  2.053127e+01    1.219303e+00
  2.054715e+01    1.230106e+00
  2.056302e+01    1.231307e+00
  2.057890e+01    1.236508e+00
  2.059478e+01    1.248331e+00
  2.061065e+01    1.236308e+00
  2.062653e+01    1.210263e+00
  2.064240e+01    1.223222e+00
  2.065828e+01    1.244385e+00
  2.067415e+01    1.229195e+00
  2.069003e+01    1.217465e+00
  2.070590e+01    1.242796e+00
  2.072178e+01    1.213975e+00
  2.073766e+01    1.205813e+00
  2.075353e+01    1.227664e+00
  2.076941e+01    1.240106e+00
  2.078528e+01    1.232094e+00
  2.080116e+01    1.224258e+00
  2.081703e+01    1.225396e+00
  2.083291e+01    1.230653e+00
  2.084878e+01    1.224568e+00
  2.086466e+01    1.214872e+00
  2.088054e+01    1.193374e+00
  2.089641e+01    1.208312e+00
  2.091229e+01    1.214737e+00
  2.092816e+01    1.211926e+00
  2.094404e+01    1.229670e+00
  2.095991e+01    1.216298e+00
  2.097579e+01    1.213945e+00
  2.099166e+01    1.212169e+00
  2.100754e+01    1.232797e+00
  2.102342e+01    1.211197e+00
  2.103929e+01    1.205283e+00
  2.105517e+01    1.227580e+00
  2.107104e+01    1.232419e+00
  2.108692e+01    1.220769e+00
  2.110279e+01    1.232758e+00
  2.111867e+01    1.210310e+00
  2.113455e+01    1.222319e+00
  2.115042e+01    1.238396e+00
  2.116630e+01    1.230523e+00
  2.118217e+01    1.226001e+00
  2.119805e+01    1.244811e+00
  2.121392e+01    1.260693e+00
  2.122980e+01    1.247400e+00
  2.124567e+01    1.226532e+00
  2.126155e+01    1.232448e+00
  2.127743e+01    1.254085e+00
  2.129330e+01    1.258723e+00
  2.130918e+01    1.263720e+00
  2.132505e+01    1.283525e+00
  2.134093e+01    1.282721e+00
  2.135680e+01    1.305342e+00
  2.137268e+01    1.301813e+00
  2.138855e+01    1.293441e+00
  2.140443e+01    1.306594e+00
  2.142031e+01    1.319697e+00
  2.143618e+01    1.355221e+00
  2.145206e+01    1.328528e+00
  2.146793e+01    1.358502e+00
  2.148381e+01    1.402346e+00
  2.149968e+01    1.410064e+00
  2.151556e+01    1.436925e+00
  2.153143e+01    1.463768e+00
  2.154731e+01    1.509474e+00
  2.156319e+01    1.572148e+00
  2.157906e+01    1.621128e+00
  2.159494e+01    1.665650e+00
  2.161081e+01    1.769583e+00
  2.162669e+01    1.851430e+00
  2.164256e+01    1.944661e+00
  2.165844e+01    2.082828e+00
  2.167431e+01    2.265699e+00
  2.169019e+01    2.476685e+00
  2.170607e+01    2.754266e+00
  2.172194e+01    3.113222e+00
  2.173782e+01    3.556534e+00
  2.175369e+01    4.010931e+00
  2.176957e+01    4.534328e+00
  2.178544e+01    5.181456e+00
  2.180132e+01    5.784819e+00
  2.181719e+01    6.483378e+00
  2.183307e+01    7.128918e+00
  2.184895e+01    7.723588e+00
  2.186482e+01    8.360393e+00
  2.188070e+01    8.808423e+00
  2.189657e+01    8.942856e+00
  2.191245e+01    8.736807e+00
  2.192832e+01    8.226874e+00
  2.194420e+01    7.501285e+00
  2.196007e+01    6.606316e+00
  2.197595e+01    5.694877e+00
  2.199183e+01    4.866295e+00
  2.200770e+01    4.182220e+00
  2.202358e+01    3.638542e+00
  2.203945e+01    3.205670e+00
  2.205533e+01    2.798158e+00
  2.207120e+01    2.515816e+00
  2.208708e+01    2.296404e+00
  2.210296e+01    2.101540e+00
  2.211883e+01    1.998415e+00
  2.213471e+01    1.871811e+00
  2.215058e+01    1.764188e+00
  2.216646e+01    1.691684e+00
  2.218233e+01    1.593178e+00
  2.219821e+01    1.518170e+00
  2.221408e+01    1.489223e+00
  2.222996e+01    1.437584e+00
  2.224584e+01    1.392379e+00
  2.226171e+01    1.361487e+00
  2.227759e+01    1.327290e+00
  2.229346e+01    1.329202e+00
  2.230934e+01    1.317375e+00
  2.232521e+01    1.258518e+00
  2.234109e+01    1.239654e+00
  2.235696e+01    1.244474e+00
  2.237284e+01    1.212017e+00
  2.238872e+01    1.206524e+00
  2.240459e+01    1.198238e+00
  2.242047e+01    1.181346e+00
  2.243634e+01    1.197841e+00
  2.245222e+01    1.189471e+00
  2.246809e+01    1.147464e+00
  2.248397e+01    1.148261e+00
  2.249984e+01    1.146186e+00
  2.251572e+01    1.125599e+00
  2.253160e+01    1.121743e+00
  2.254747e+01    1.104190e+00
  2.256335e+01    1.111098e+00
  2.257922e+01    1.106597e+00
  2.259510e+01    1.124549e+00
  2.261097e+01    1.108720e+00
  2.262685e+01    1.082602e+00
  2.264272e+01    1.088295e+00
  2.265860e+01    1.100497e+00
  2.267448e+01    1.064354e+00
  2.269035e+01    1.054394e+00
  2.270623e+01    1.065617e+00
  2.272210e+01    1.065102e+00
  2.273798e+01    1.072050e+00
  2.275385e+01    1.067316e+00
  2.276973e+01    1.081842e+00
  2.278560e+01    1.071423e+00
  2.280148e+01    1.046629e+00
  2.281736e+01    1.060168e+00
  2.283323e+01    1.039275e+00
  2.284911e+01    1.047812e+00
  2.286498e+01    1.072977e+00
  2.288086e+01    1.053053e+00
  2.289673e+01    1.045248e+00
  2.291261e+01    1.038489e+00
  2.292848e+01    1.029672e+00
  2.294436e+01    1.027697e+00
  2.296024e+01    1.025610e+00
  2.297611e+01    1.006198e+00
  2.299199e+01    1.011925e+00
  2.300786e+01    9.942514e-01
  2.302374e+01    9.948705e-01
  2.303961e+01    1.023590e+00
  2.305549e+01    1.028511e+00
  2.307137e+01    1.008727e+00
  2.308724e+01    1.028522e+00
  2.310312e+01    1.017029e+00
  2.311899e+01    9.994445e-01
  2.313487e+01    9.844363e-01
  2.315074e+01    9.768348e-01
  2.316662e+01    9.979150e-01
  2.318249e+01    9.948334e-01
  2.319837e+01    9.939843e-01
  2.321425e+01    9.849113e-01
  2.323012e+01    1.003960e+00
  2.324600e+01    9.894539e-01
  2.326187e+01    1.000937e+00
  2.327775e+01    9.834997e-01
  2.329362e+01    9.734783e-01
  2.330950e+01    9.914649e-01
  2.332537e+01    9.803928e-01
  2.334125e+01    9.908307e-01
  2.335713e+01    9.746738e-01
  2.337300e+01    9.715112e-01
  2.338888e+01    9.709269e-01
  2.340475e+01    9.628456e-01
  2.342063e+01    9.578916e-01
  2.343650e+01    9.530388e-01
  2.345238e+01    9.575879e-01
  2.346825e+01    9.502373e-01
  2.348413e+01    9.423622e-01
  2.350001e+01    9.572052e-01
  2.351588e+01    9.784654e-01
  2.353176e+01    9.747740e-01
  2.354763e+01    9.633660e-01
  2.356351e+01    9.694972e-01
  2.357938e+01    9.775733e-01
  2.359526e+01    9.608819e-01
  2.361113e+01    9.336793e-01
  2.362701e+01    9.380466e-01
  2.364289e+01    9.258807e-01
  2.365876e+01    9.261699e-01
  2.367464e+01    9.260244e-01
  2.369051e+01    9.484938e-01
  2.370639e+01    9.322771e-01
  2.372226e+01    9.299939e-01
  2.373814e+01    9.409910e-01
  2.375401e+01    9.389712e-01
  2.376989e+01    9.256811e-01
  2.378577e+01    9.319069e-01
  2.380164e+01    9.334502e-01
  2.381752e+01    9.255449e-01
  2.383339e+01    9.390059e-01
  2.384927e+01    9.319373e-01
  2.386514e+01    9.351419e-01
  2.388102e+01    9.056777e-01
  2.389689e+01    9.136102e-01
  2.391277e+01    9.198258e-01
  2.392865e+01    9.074653e-01
  2.394452e+01    9.156619e-01
  2.396040e+01    8.650624e-01
  2.397627e+01    8.961837e-01
  2.399215e+01    9.117911e-01
  2.400802e+01    9.055199e-01
  2.402390e+01    9.097310e-01
  2.403978e+01    9.029430e-01
  2.405565e+01    8.870655e-01
  2.407153e+01    9.075724e-01
  2.408740e+01    9.004628e-01
  2.410328e+01    8.788337e-01
  2.411915e+01    8.658798e-01
  2.413503e+01    8.811125e-01
  2.415090e+01    8.777847e-01
  2.416678e+01    8.873850e-01
  2.418266e+01    8.814569e-01
  2.419853e+01    8.865998e-01
  2.421441e+01    8.697934e-01
  2.423028e+01    8.587536e-01
  2.424616e+01    8.787099e-01
  2.426203e+01    8.982220e-01
  2.427791e+01    8.955694e-01
  2.429378e+01    8.879614e-01
  2.430966e+01    8.830730e-01
  2.432554e+01    9.019898e-01
  2.434141e+01    8.883783e-01
  2.435729e+01    8.679768e-01
  2.437316e+01    8.769827e-01
  2.438904e+01    8.817496e-01
  2.440491e+01    9.022152e-01
  2.442079e+01    8.824998e-01
  2.443666e+01    8.876662e-01
  2.445254e+01    8.945931e-01
  2.446842e+01    8.937113e-01
  2.448429e+01    8.897506e-01
  2.450017e+01    8.799725e-01
  2.451604e+01    8.795124e-01
  2.453192e+01    8.826173e-01
  2.454779e+01    9.008568e-01
  2.456367e+01    8.555171e-01
  2.457954e+01    8.781679e-01
  2.459542e+01    9.013180e-01
  2.461130e+01    8.810103e-01
  2.462717e+01    8.800570e-01
  2.464305e+01    8.869776e-01
  2.465892e+01    8.929676e-01
  2.467480e+01    8.900150e-01
  2.469067e+01    8.963869e-01
  2.470655e+01    8.929433e-01
  2.472242e+01    8.975129e-01
  2.473830e+01    8.934442e-01
  2.475418e+01    8.948782e-01
  2.477005e+01    8.783410e-01
  2.478593e+01    8.972579e-01
  2.480180e+01    9.057154e-01
  2.481768e+01    8.902311e-01
  2.483355e+01    8.668674e-01
  2.484943e+01    8.796693e-01
  2.486530e+01    8.729696e-01
  2.488118e+01    9.047105e-01
  2.489706e+01    9.017781e-01
  2.491293e+01    8.895631e-01
  2.492881e+01    9.153384e-01
  2.494468e+01    9.124842e-01
  2.496056e+01    8.906180e-01
  2.497643e+01    8.750088e-01
  2.499231e+01    8.956293e-01
  2.500819e+01    8.876436e-01
  2.502406e+01    8.927248e-01
  2.503994e+01    8.893806e-01
  2.505581e+01    8.867307e-01
  2.507169e+01    8.943169e-01
  2.508756e+01    9.152136e-01
  2.510344e+01    9.219339e-01
  2.511931e+01    8.979679e-01
  2.513519e+01    9.213714e-01
  2.515107e+01    9.179902e-01
  2.516694e+01    9.291201e-01
  2.518282e+01    9.326057e-01
  2.519869e+01    9.312519e-01
  2.521457e+01    9.216735e-01
  2.523044e+01    9.208464e-01
  2.524632e+01    9.411336e-01
  2.526219e+01    9.525665e-01
  2.527807e+01    9.601310e-01
  2.529395e+01    9.533929e-01
  2.530982e+01    9.726517e-01
  2.532570e+01    9.740973e-01
  2.534157e+01    9.572091e-01
  2.535745e+01    9.558368e-01
  2.537332e+01    9.504275e-01
  2.538920e+01    9.643673e-01
  2.540507e+01    9.662699e-01
  2.542095e+01    1.001261e+00
  2.543683e+01    1.029795e+00
  2.545270e+01    1.034827e+00
  2.546858e+01    1.043826e+00
  2.548445e+01    1.066066e+00
  2.550033e+01    1.078134e+00
  2.551620e+01    1.062568e+00
  2.553208e+01    1.081182e+00
  2.554795e+01    1.108814e+00
  2.556383e+01    1.136466e+00
  2.557971e+01    1.154966e+00
  2.559558e+01    1.179197e+00
  2.561146e+01    1.213207e+00
  2.562733e+01    1.280488e+00
  2.564321e+01    1.299747e+00
  2.565908e+01    1.358348e+00
  2.567496e+01    1.406766e+00
  2.569083e+01    1.490892e+00
  2.570671e+01    1.579900e+00
  2.572259e+01    1.688298e+00
  2.573846e+01    1.857310e+00
  2.575434e+01    2.035969e+00
  2.577021e+01    2.190351e+00
  2.578609e+01    2.470147e+00
  2.580196e+01    2.812949e+00
  2.581784e+01    3.162352e+00
  2.583371e+01    3.591189e+00
  2.584959e+01    4.058543e+00
  2.586547e+01    4.625603e+00
  2.588134e+01    5.243649e+00
  2.589722e+01    5.806382e+00
  2.591309e+01    6.339081e+00
  2.592897e+01    6.744103e+00
  2.594484e+01    6.986836e+00
  2.596072e+01    7.133667e+00
  2.597660e+01    7.016270e+00
  2.599247e+01    6.612253e+00
  2.600835e+01    6.028881e+00
  2.602422e+01    5.357004e+00
  2.604010e+01    4.629799e+00
  2.605597e+01    4.002450e+00
  2.607185e+01    3.443688e+00
  2.608772e+01    2.995555e+00
  2.610360e+01    2.639949e+00
  2.611948e+01    2.394365e+00
  2.613535e+01    2.143660e+00
  2.615123e+01    1.953304e+00
  2.616710e+01    1.786016e+00
  2.618298e+01    1.664374e+00
  2.619885e+01    1.597985e+00
  2.621473e+01    1.479980e+00
  2.623060e+01    1.402748e+00
  2.624648e+01    1.358146e+00
  2.626236e+01    1.271747e+00
  2.627823e+01    1.227900e+00
  2.629411e+01    1.188758e+00
  2.630998e+01    1.192894e+00
  2.632586e+01    1.161395e+00
  2.634173e+01    1.134337e+00
  2.635761e+01    1.107120e+00
  2.637348e+01    1.067976e+00
  2.638936e+01    1.053904e+00
  2.640524e+01    1.033173e+00
  2.642111e+01    1.046256e+00
  2.643699e+01    1.037310e+00
  2.645286e+01    1.010151e+00
  2.646874e+01    1.013071e+00
  2.648461e+01    1.002235e+00
  2.650049e+01    9.946077e-01
  2.651636e+01    9.872151e-01
  2.653224e+01    9.953531e-01
  2.654812e+01    9.952073e-01
  2.656399e+01    1.019031e+00
  2.657987e+01    9.937086e-01
  2.659574e+01    9.728202e-01
  2.661162e+01    9.806878e-01
  2.662749e+01    9.627135e-01
  2.664337e+01    9.638292e-01
  2.665924e+01    9.783556e-01
  2.667512e+01    9.769052e-01
  2.669100e+01    9.703456e-01
  2.670687e+01    9.606332e-01
  2.672275e+01    9.529448e-01
  2.673862e+01    9.995059e-01
  2.675450e+01    9.857816e-01
  2.677037e+01    9.730962e-01
  2.678625e+01    9.800962e-01
  2.680212e+01    9.823130e-01
  2.681800e+01    9.858242e-01
  2.683388e+01    9.851784e-01
  2.684975e+01    1.000507e+00
  2.686563e+01    9.693540e-01
  2.688150e+01    9.737173e-01
  2.689738e+01    1.020456e+00
  2.691325e+01    1.019488e+00
  2.692913e+01    9.920910e-01
  2.694501e+01    1.008935e+00
  2.696088e+01    1.039287e+00
  2.697676e+01    1.071231e+00
  2.699263e+01    1.086685e+00
  2.700851e+01    1.093168e+00
  2.702438e+01    1.147323e+00
  2.704026e+01    1.188473e+00
  2.705613e+01    1.220073e+00
  2.707201e+01    1.297043e+00
  2.708789e+01    1.365053e+00
  2.710376e+01    1.473271e+00
  2.711964e+01    1.600921e+00
  2.713551e+01    1.731149e+00
  2.715139e+01    1.848411e+00
  2.716726e+01    1.950895e+00
  2.718314e+01    2.088970e+00
  2.719901e+01    2.164359e+00
  2.721489e+01    2.182121e+00
  2.723077e+01    2.174323e+00
  2.724664e+01    2.098251e+00
  2.726252e+01    1.962056e+00
  2.727839e+01    1.816442e+00
  2.729427e+01    1.724551e+00
  2.731014e+01    1.569919e+00
  2.732602e+01    1.450362e+00
  2.734189e+01    1.361217e+00
  2.735777e+01    1.274822e+00
  2.737365e+01    1.211242e+00
  2.738952e+01    1.190495e+00
  2.740540e+01    1.126647e+00
  2.742127e+01    1.088641e+00
  2.743715e+01    1.045873e+00
  2.745302e+01    1.006313e+00
  2.746890e+01    9.990197e-01
  2.748477e+01    1.006753e+00
  2.750065e+01    9.924329e-01
  2.751653e+01    9.524732e-01
  2.753240e+01    9.591224e-01
  2.754828e+01    9.681634e-01
  2.756415e+01    9.678020e-01
  2.758003e+01    9.258070e-01
  2.759590e+01    9.170158e-01
  2.761178e+01    9.166772e-01
  2.762765e+01    9.386684e-01
  2.764353e+01    9.225694e-01
  2.765941e+01    8.979514e-01
  2.767528e+01    8.958964e-01
  2.769116e+01    9.008001e-01
  2.770703e+01    8.978208e-01
  2.772291e+01    8.904358e-01
  2.773878e+01    8.985998e-01
  2.775466e+01    8.946781e-01
  2.777054e+01    8.905966e-01
  2.778641e+01    8.985928e-01
  2.780229e+01    8.880450e-01
  2.781816e+01    8.863682e-01
  2.783404e+01    9.188176e-01
  2.784991e+01    8.958874e-01
  2.786579e+01    8.826792e-01
  2.788166e+01    8.846466e-01
  2.789754e+01    8.673166e-01
  2.791342e+01    8.607821e-01
  2.792929e+01    8.560039e-01
  2.794517e+01    8.813202e-01
  2.796104e+01    8.711060e-01
  2.797692e+01    8.648862e-01
  2.799279e+01    8.637604e-01
  2.800867e+01    8.363383e-01
  2.802454e+01    8.431397e-01
  2.804042e+01    8.417636e-01
  2.805630e+01    8.555456e-01
  2.807217e+01    8.615419e-01
  2.808805e+01    8.488285e-01
  2.810392e+01    8.628119e-01
  2.811980e+01    8.601539e-01
  2.813567e+01    8.698174e-01
  2.815155e+01    8.642962e-01
  2.816742e+01    8.457955e-01
  2.818330e+01    8.495079e-01
  2.819918e+01    8.539328e-01
  2.821505e+01    8.532134e-01
  2.823093e+01    8.554466e-01
  2.824680e+01    8.456870e-01
  2.826268e+01    8.465665e-01
  2.827855e+01    8.537768e-01
  2.829443e+01    8.315734e-01
  2.831030e+01    8.433638e-01
  2.832618e+01    8.652948e-01
  2.834206e+01    8.419801e-01
  2.835793e+01    8.246471e-01
  2.837381e+01    8.435356e-01
  2.838968e+01    8.634125e-01
  2.840556e+01    8.475931e-01
  2.842143e+01    8.461612e-01
  2.843731e+01    8.309134e-01
  2.845318e+01    8.179016e-01
  2.846906e+01    8.372036e-01
  2.848494e+01    8.466677e-01
  2.850081e+01    8.389775e-01
  2.851669e+01    8.363855e-01
  2.853256e+01    8.596066e-01
  2.854844e+01    8.481168e-01
  2.856431e+01    8.250198e-01
  2.858019e+01    8.298416e-01
  2.859606e+01    8.237683e-01
  2.861194e+01    8.273978e-01
  2.862782e+01    8.165891e-01
  2.864369e+01    8.145367e-01
  2.865957e+01    8.119292e-01
  2.867544e+01    8.024877e-01
  2.869132e+01    8.010288e-01
  2.870719e+01    8.337632e-01
  2.872307e+01    8.086244e-01
  2.873895e+01    8.302308e-01
  2.875482e+01    8.306055e-01
  2.877070e+01    8.198751e-01
  2.878657e+01    8.436652e-01
  2.880245e+01    8.578229e-01
  2.881832e+01    8.375674e-01
  2.883420e+01    8.154145e-01
  2.885007e+01    8.101107e-01
  2.886595e+01    8.043262e-01
  2.888183e+01    8.137922e-01
  2.889770e+01    8.236144e-01
  2.891358e+01    8.372995e-01
  2.892945e+01    8.209814e-01
  2.894533e+01    8.280608e-01
  2.896120e+01    8.263969e-01
  2.897708e+01    8.099070e-01
  2.899295e+01    8.314546e-01
  2.900883e+01    8.291433e-01
  2.902471e+01    8.378630e-01
  2.904058e+01    8.142369e-01
  2.905646e+01    8.057912e-01
  2.907233e+01    8.237806e-01
  2.908821e+01    8.227205e-01
  2.910408e+01    8.075064e-01
  2.911996e+01    8.047882e-01
  2.913583e+01    8.045233e-01
  2.915171e+01    8.451931e-01
  2.916759e+01    8.081008e-01
  2.918346e+01    8.042558e-01
  2.919934e+01    8.043100e-01
  2.921521e+01    8.179964e-01
  2.923109e+01    8.188755e-01
  2.924696e+01    8.123559e-01
  2.926284e+01    8.037651e-01
  2.927871e+01    7.664825e-01
  2.929459e+01    8.028327e-01
  2.931047e+01    8.076371e-01
  2.932634e+01    8.012341e-01
  2.934222e+01    8.174005e-01
  2.935809e+01    8.136146e-01
  2.937397e+01    8.040597e-01
  2.938984e+01    8.134173e-01
  2.940572e+01    8.122332e-01
  2.942159e+01    7.961030e-01
  2.943747e+01    8.026350e-01
  2.945335e+01    8.065197e-01
  2.946922e+01    7.900820e-01
  2.948510e+01    7.986544e-01
  2.950097e+01    8.102031e-01
  2.951685e+01    8.078749e-01
  2.953272e+01    8.132913e-01
  2.954860e+01    7.964711e-01
  2.956447e+01    8.093494e-01
  2.958035e+01    7.902147e-01
  2.959623e+01    7.990841e-01
  2.961210e+01    8.060642e-01
  2.962798e+01    7.782006e-01
  2.964385e+01    7.714302e-01
  2.965973e+01    7.750679e-01
  2.967560e+01    7.922049e-01
  2.969148e+01    7.816440e-01
  2.970736e+01    8.023496e-01
  2.972323e+01    8.299919e-01
  2.973911e+01    8.066908e-01
  2.975498e+01    7.990769e-01
  2.977086e+01    7.774844e-01
  2.978673e+01    7.964054e-01
  2.980261e+01    7.885833e-01
  2.981848e+01    7.828083e-01
  2.983436e+01    7.707264e-01
  2.985024e+01    8.049877e-01
  2.986611e+01    8.060898e-01
  2.988199e+01    7.811367e-01
  2.989786e+01    7.778535e-01
  2.991374e+01    7.798641e-01
  2.992961e+01    7.870125e-01
  2.994549e+01    7.962156e-01
  2.996136e+01    7.928612e-01
  2.997724e+01    8.048114e-01
  2.999312e+01    8.045191e-01
  3.000899e+01    8.143901e-01
  3.002487e+01    8.420602e-01
  3.004074e+01    8.289151e-01
  3.005662e+01    8.397240e-01
  3.007249e+01    7.990834e-01
  3.008837e+01    8.105673e-01
  3.010424e+01    8.031305e-01
  3.012012e+01    7.980285e-01
  3.013600e+01    7.897404e-01
  3.015187e+01    7.876297e-01
  3.016775e+01    7.851865e-01
  3.018362e+01    7.936696e-01
  3.019950e+01    8.104021e-01
  3.021537e+01    8.057342e-01
  3.023125e+01    7.856570e-01
  3.024712e+01    7.816377e-01
  3.026300e+01    7.758906e-01
  3.027888e+01    7.767857e-01
  3.029475e+01    7.828360e-01
  3.031063e+01    7.703445e-01
  3.032650e+01    7.733887e-01
  3.034238e+01    7.885687e-01
  3.035825e+01    7.916806e-01
  3.037413e+01    7.884760e-01
  3.039000e+01    7.693591e-01
  3.040588e+01    7.883514e-01
  3.042176e+01    7.933452e-01
  3.043763e+01    7.776517e-01
  3.045351e+01    7.831664e-01
  3.046938e+01    7.929432e-01
  3.048526e+01    7.634906e-01
  3.050113e+01    7.701731e-01
  3.051701e+01    7.869433e-01
  3.053288e+01    7.901486e-01
  3.054876e+01    7.812392e-01
  3.056464e+01    7.788579e-01
  3.058051e+01    8.055245e-01
  3.059639e+01    7.862231e-01
  3.061226e+01    7.637730e-01
  3.062814e+01    7.859363e-01
  3.064401e+01    7.836185e-01
  3.065989e+01    7.767506e-01
  3.067577e+01    7.973055e-01
  3.069164e+01    7.851276e-01
  3.070752e+01    7.738726e-01
  3.072339e+01    7.864218e-01
  3.073927e+01    7.800782e-01
  3.075514e+01    7.708967e-01
  3.077102e+01    7.745244e-01
  3.078689e+01    7.707289e-01
  3.080277e+01    7.592859e-01
  3.081865e+01    7.598844e-01
  3.083452e+01    7.798932e-01
  3.085040e+01    7.789968e-01
  3.086627e+01    7.525169e-01
  3.088215e+01    7.537119e-01
  3.089802e+01    7.862819e-01
  3.091390e+01    7.738830e-01
  3.092977e+01    7.733299e-01
  3.094565e+01    7.588190e-01
  3.096153e+01    7.709540e-01
  3.097740e+01    7.794926e-01
  3.099328e+01    8.106157e-01
  3.100915e+01    7.974845e-01
  3.102503e+01    7.723763e-01
  3.104090e+01    7.871159e-01
  3.105678e+01    8.019355e-01
  3.107265e+01    7.905715e-01
  3.108853e+01    7.696636e-01
  3.110441e+01    7.945420e-01
  3.112028e+01    7.780702e-01
  3.113616e+01    7.935172e-01
  3.115203e+01    7.827505e-01
  3.116791e+01    7.762731e-01
  3.118378e+01    7.800751e-01
  3.119966e+01    7.886100e-01
  3.121553e+01    8.085697e-01
  3.123141e+01    7.909700e-01
  3.124729e+01    7.931625e-01
  3.126316e+01    7.818564e-01
  3.127904e+01    7.856435e-01
  3.129491e+01    8.016512e-01
  3.131079e+01    7.871050e-01
  3.132666e+01    7.868302e-01
  3.134254e+01    8.057426e-01
  3.135841e+01    8.072886e-01
  3.137429e+01    8.170629e-01
  3.139017e+01    8.013753e-01
  3.140604e+01    7.780591e-01
  3.142192e+01    7.786110e-01
  3.143779e+01    8.031525e-01
  3.145367e+01    8.292797e-01
  3.146954e+01    8.249965e-01
  3.148542e+01    8.111268e-01
  3.150129e+01    8.226668e-01
  3.151717e+01    8.327541e-01
  3.153305e+01    8.373409e-01
  3.154892e+01    8.394513e-01
  3.156480e+01    8.508024e-01
  3.158067e+01    8.707269e-01
  3.159655e+01    8.670248e-01
  3.161242e+01    8.828899e-01
  3.162830e+01    8.780038e-01
  3.164418e+01    8.968501e-01
  3.166005e+01    9.370649e-01
  3.167593e+01    9.787276e-01
  3.169180e+01    1.001723e+00
  3.170768e+01    1.025496e+00
  3.172355e+01    1.073486e+00
  3.173943e+01    1.125966e+00
  3.175530e+01    1.181239e+00
  3.177118e+01    1.285563e+00
  3.178706e+01    1.355572e+00
  3.180293e+01    1.465858e+00
  3.181881e+01    1.595663e+00
  3.183468e+01    1.720630e+00
  3.185056e+01    1.804976e+00
  3.186643e+01    1.942435e+00
  3.188231e+01    2.048698e+00
  3.189818e+01    2.060760e+00
  3.191406e+01    2.085152e+00
  3.192994e+01    2.040705e+00
  3.194581e+01    1.934279e+00
  3.196169e+01    1.823481e+00
  3.197756e+01    1.673475e+00
  3.199344e+01    1.528410e+00
  3.200931e+01    1.421056e+00
  3.202519e+01    1.303771e+00
  3.204106e+01    1.239022e+00
  3.205694e+01    1.148422e+00
  3.207282e+01    1.091689e+00
  3.208869e+01    1.046597e+00
  3.210457e+01    9.837890e-01
  3.212044e+01    1.001553e+00
  3.213632e+01    9.503169e-01
  3.215219e+01    9.080297e-01
  3.216807e+01    8.881763e-01
  3.218394e+01    8.888200e-01
  3.219982e+01    8.777959e-01
  3.221570e+01    8.650520e-01
  3.223157e+01    8.514510e-01
  3.224745e+01    8.413107e-01
  3.226332e+01    8.251008e-01
  3.227920e+01    8.228559e-01
  3.229507e+01    8.151718e-01
  3.231095e+01    7.892520e-01
  3.232682e+01    8.001838e-01
  3.234270e+01    8.166770e-01
  3.235858e+01    7.986304e-01
  3.237445e+01    7.866977e-01
  3.239033e+01    7.854631e-01
  3.240620e+01    8.084581e-01
  3.242208e+01    8.032164e-01
  3.243795e+01    7.904789e-01
  3.245383e+01    7.687835e-01
  3.246970e+01    7.958308e-01
  3.248558e+01    7.874011e-01
  3.250146e+01    7.740224e-01
  3.251733e+01    7.857950e-01
  3.253321e+01    7.882662e-01
  3.254908e+01    7.913934e-01
