# == pyFAI calibration ==
# Distance Sample to Detector: 0.3999999939076516 m
# PONI: 9.750e-02, 1.135e-01 m
# Rotations: -0.000175 0.000000 -0.000000 rad
# 
# == Fit2d calibration ==
# Distance Sample-beamCenter: 400.000 mm
# Center: x=1514.000, y=1300.000 pix
# Tilt: 0.010 deg  TiltPlanRot: 0.010 deg
# 
# Detector Detector	 Spline= None	 PixelSize= 7.500e-05, 7.500e-05 m
#    Detector has a mask: False 
#    Detector has a dark current: False 
#    detector has a flat field: False 
# 
# Wavelength: 6.888e-11 m
# Mask applied: user provided
# Dark current applied: False
# Flat field applied: False
# Polarization factor: 0.99
# Normalization factor: 1.0
# --> /home/myspot/data/2024_07_Rosario/Ru-CGO-ex/2024-07-27_003_Ru-CGO-ex_Reaction_dwell_000023_data_000130.dat
#       q_nm^-1             I 
  2.003187e-02    0.000000e+00
  3.590745e-02    3.427850e-02
  5.178302e-02    6.858626e-02
  6.765859e-02    1.003179e-01
  8.353417e-02    1.245697e-01
  9.940974e-02    1.681744e-01
  1.152853e-01    4.575606e-02
  1.311609e-01    3.549683e-02
  1.470365e-01    4.883472e-02
  1.629120e-01    4.634435e-02
  1.787876e-01    5.986679e-02
  1.946632e-01    4.983254e-02
  2.105388e-01    0.000000e+00
  2.264143e-01    1.646886e-02
  2.422899e-01    2.936014e-02
  2.581655e-01    3.328235e-02
  2.740411e-01    4.517043e-02
  2.899166e-01    1.528884e-02
  3.057922e-01    1.704653e-02
  3.216678e-01    2.518480e-02
  3.375433e-01    5.215214e-02
  3.534189e-01    3.855338e-02
  3.692945e-01    5.652253e-02
  3.851701e-01    8.232094e-02
  4.010456e-01    4.107898e-02
  4.169212e-01    6.053994e-02
  4.327968e-01    5.916918e-02
  4.486724e-01    3.885349e-02
  4.645479e-01    1.557230e-02
  4.804235e-01    2.140604e-02
  4.962991e-01    4.789200e-02
  5.121747e-01    4.626679e-02
  5.280502e-01    5.467499e-02
  5.439258e-01    3.086520e-02
  5.598014e-01    7.191623e-03
  5.756770e-01    3.347207e-02
  5.915525e-01    4.479938e-02
  6.074281e-01    3.887887e-02
  6.233037e-01    4.257578e-02
  6.391793e-01    6.089064e-02
  6.550548e-01    4.146415e-02
  6.709304e-01    4.627132e-02
  6.868060e-01    1.764149e-02
  7.026815e-01    2.066647e-02
  7.185571e-01    3.150289e-02
  7.344327e-01    5.533454e-02
  7.503083e-01    6.573529e-02
  7.661838e-01    7.996509e-02
  7.820594e-01    1.212772e-01
  7.979350e-01    1.929902e-01
  8.138106e-01    2.259337e-01
  8.296861e-01    2.639621e-01
  8.455617e-01    3.743424e-01
  8.614373e-01    4.622561e-01
  8.773129e-01    5.092168e-01
  8.931884e-01    5.098380e-01
  9.090640e-01    6.040795e-01
  9.249396e-01    7.057897e-01
  9.408152e-01    8.377330e-01
  9.566907e-01    8.229030e-01
  9.725663e-01    9.367479e-01
  9.884419e-01    1.059826e+00
  1.004317e+00    1.196049e+00
  1.020193e+00    1.319666e+00
  1.036069e+00    1.361145e+00
  1.051944e+00    1.280475e+00
  1.067820e+00    1.443359e+00
  1.083695e+00    1.492309e+00
  1.099571e+00    1.510221e+00
  1.115446e+00    1.499620e+00
  1.131322e+00    1.622618e+00
  1.147198e+00    1.580522e+00
  1.163073e+00    1.629816e+00
  1.178949e+00    1.699335e+00
  1.194824e+00    1.733190e+00
  1.210700e+00    1.944785e+00
  1.226575e+00    2.251667e+00
  1.242451e+00    2.507713e+00
  1.258327e+00    2.522555e+00
  1.274202e+00    2.551687e+00
  1.290078e+00    2.613120e+00
  1.305953e+00    2.664171e+00
  1.321829e+00    2.822917e+00
  1.337705e+00    2.750390e+00
  1.353580e+00    2.586805e+00
  1.369456e+00    2.711606e+00
  1.385331e+00    2.798389e+00
  1.401207e+00    2.843273e+00
  1.417082e+00    2.851970e+00
  1.432958e+00    2.824387e+00
  1.448834e+00    3.037636e+00
  1.464709e+00    2.991472e+00
  1.480585e+00    3.097806e+00
  1.496460e+00    3.216677e+00
  1.512336e+00    3.241904e+00
  1.528211e+00    3.166339e+00
  1.544087e+00    3.243190e+00
  1.559963e+00    3.190403e+00
  1.575838e+00    3.045886e+00
  1.591714e+00    3.180675e+00
  1.607589e+00    3.281775e+00
  1.623465e+00    3.363112e+00
  1.639340e+00    3.314703e+00
  1.655216e+00    3.215589e+00
  1.671092e+00    3.084482e+00
  1.686967e+00    3.062258e+00
  1.702843e+00    3.011761e+00
  1.718718e+00    3.155971e+00
  1.734594e+00    3.078650e+00
  1.750469e+00    3.067115e+00
  1.766345e+00    3.081506e+00
  1.782221e+00    3.059102e+00
  1.798096e+00    3.136591e+00
  1.813972e+00    3.109336e+00
  1.829847e+00    3.233639e+00
  1.845723e+00    3.142771e+00
  1.861598e+00    2.953656e+00
  1.877474e+00    2.921835e+00
  1.893350e+00    2.996087e+00
  1.909225e+00    2.994593e+00
  1.925101e+00    3.155668e+00
  1.940976e+00    3.230806e+00
  1.956852e+00    3.107244e+00
  1.972727e+00    3.079716e+00
  1.988603e+00    3.125633e+00
  2.004479e+00    3.088421e+00
  2.020354e+00    3.054554e+00
  2.036230e+00    2.979422e+00
  2.052105e+00    3.054016e+00
  2.067981e+00    3.015422e+00
  2.083856e+00    2.958250e+00
  2.099732e+00    3.022325e+00
  2.115608e+00    3.076564e+00
  2.131483e+00    2.993788e+00
  2.147359e+00    3.000820e+00
  2.163234e+00    3.090466e+00
  2.179110e+00    3.102827e+00
  2.194985e+00    3.136772e+00
  2.210861e+00    3.025922e+00
  2.226737e+00    3.026399e+00
  2.242612e+00    3.026941e+00
  2.258488e+00    3.145616e+00
  2.274363e+00    3.145731e+00
  2.290239e+00    3.205951e+00
  2.306115e+00    3.226224e+00
  2.321990e+00    3.171913e+00
  2.337866e+00    3.109069e+00
  2.353741e+00    3.049689e+00
  2.369617e+00    3.146511e+00
  2.385492e+00    3.064492e+00
  2.401368e+00    3.105975e+00
  2.417244e+00    3.086366e+00
  2.433119e+00    3.133911e+00
  2.448995e+00    3.209635e+00
  2.464870e+00    3.244485e+00
  2.480746e+00    3.296804e+00
  2.496621e+00    3.266197e+00
  2.512497e+00    3.217562e+00
  2.528373e+00    3.229707e+00
  2.544248e+00    3.142667e+00
  2.560124e+00    3.148811e+00
  2.575999e+00    3.186048e+00
  2.591875e+00    3.218728e+00
  2.607750e+00    3.218312e+00
  2.623626e+00    3.196984e+00
  2.639502e+00    3.249640e+00
  2.655377e+00    3.192479e+00
  2.671253e+00    3.242367e+00
  2.687128e+00    3.240112e+00
  2.703004e+00    3.277406e+00
  2.718879e+00    3.295741e+00
  2.734755e+00    3.285487e+00
  2.750631e+00    3.242204e+00
  2.766506e+00    3.204384e+00
  2.782382e+00    3.187826e+00
  2.798257e+00    3.212272e+00
  2.814133e+00    3.251695e+00
  2.830008e+00    3.126577e+00
  2.845884e+00    3.156707e+00
  2.861760e+00    3.257359e+00
  2.877635e+00    3.349611e+00
  2.893511e+00    3.407796e+00
  2.909386e+00    3.348371e+00
  2.925262e+00    3.495529e+00
  2.941137e+00    3.380317e+00
  2.957013e+00    3.330368e+00
  2.972889e+00    3.386855e+00
  2.988764e+00    3.402800e+00
  3.004640e+00    3.384998e+00
  3.020515e+00    3.354964e+00
  3.036391e+00    3.323807e+00
  3.052266e+00    3.481185e+00
  3.068142e+00    3.425420e+00
  3.084018e+00    3.316493e+00
  3.099893e+00    3.373262e+00
  3.115769e+00    3.341156e+00
  3.131644e+00    3.350920e+00
  3.147520e+00    3.311118e+00
  3.163395e+00    3.293334e+00
  3.179271e+00    3.292723e+00
  3.195147e+00    3.358938e+00
  3.211022e+00    3.324360e+00
  3.226898e+00    3.297952e+00
  3.242773e+00    3.351594e+00
  3.258649e+00    3.352549e+00
  3.274525e+00    3.452970e+00
  3.290400e+00    3.405037e+00
  3.306276e+00    3.325601e+00
  3.322151e+00    3.365208e+00
  3.338027e+00    3.475387e+00
  3.353902e+00    3.402392e+00
  3.369778e+00    3.374355e+00
  3.385654e+00    3.379026e+00
  3.401529e+00    3.477122e+00
  3.417405e+00    3.453607e+00
  3.433280e+00    3.482184e+00
  3.449156e+00    3.461085e+00
  3.465031e+00    3.528117e+00
  3.480907e+00    3.452568e+00
  3.496783e+00    3.483034e+00
  3.512658e+00    3.381178e+00
  3.528534e+00    3.382870e+00
  3.544409e+00    3.421278e+00
  3.560285e+00    3.444799e+00
  3.576160e+00    3.437279e+00
  3.592036e+00    3.426658e+00
  3.607912e+00    3.408485e+00
  3.623787e+00    3.439594e+00
  3.639663e+00    3.361780e+00
  3.655538e+00    3.339820e+00
  3.671414e+00    3.350141e+00
  3.687289e+00    3.447244e+00
  3.703165e+00    3.479608e+00
  3.719041e+00    3.381957e+00
  3.734916e+00    3.280256e+00
  3.750792e+00    3.421668e+00
  3.766667e+00    3.438028e+00
  3.782543e+00    3.431297e+00
  3.798418e+00    3.446105e+00
  3.814294e+00    3.381787e+00
  3.830170e+00    3.486475e+00
  3.846045e+00    3.601469e+00
  3.861921e+00    3.579631e+00
  3.877796e+00    3.583768e+00
  3.893672e+00    3.542931e+00
  3.909547e+00    3.497505e+00
  3.925423e+00    3.486616e+00
  3.941299e+00    3.518593e+00
  3.957174e+00    3.639114e+00
  3.973050e+00    3.548348e+00
  3.988925e+00    3.569703e+00
  4.004801e+00    3.553939e+00
  4.020676e+00    3.570936e+00
  4.036552e+00    3.565203e+00
  4.052428e+00    3.552364e+00
  4.068303e+00    3.521207e+00
  4.084179e+00    3.517871e+00
  4.100054e+00    3.631386e+00
  4.115930e+00    3.646762e+00
  4.131806e+00    3.597623e+00
  4.147681e+00    3.649088e+00
  4.163557e+00    3.551275e+00
  4.179432e+00    3.483512e+00
  4.195308e+00    3.568842e+00
  4.211183e+00    3.519409e+00
  4.227059e+00    3.528963e+00
  4.242935e+00    3.552973e+00
  4.258810e+00    3.625937e+00
  4.274686e+00    3.653378e+00
  4.290561e+00    3.575580e+00
  4.306437e+00    3.565783e+00
  4.322312e+00    3.590589e+00
  4.338188e+00    3.561949e+00
  4.354064e+00    3.594883e+00
  4.369939e+00    3.571240e+00
  4.385815e+00    3.537155e+00
  4.401690e+00    3.553026e+00
  4.417566e+00    3.608079e+00
  4.433441e+00    3.518765e+00
  4.449317e+00    3.566252e+00
  4.465193e+00    3.557481e+00
  4.481068e+00    3.569625e+00
  4.496944e+00    3.613376e+00
  4.512819e+00    3.548922e+00
  4.528695e+00    3.572142e+00
  4.544570e+00    3.543049e+00
  4.560446e+00    3.518627e+00
  4.576322e+00    3.453534e+00
  4.592197e+00    3.575030e+00
  4.608073e+00    3.590220e+00
  4.623948e+00    3.660656e+00
  4.639824e+00    3.657698e+00
  4.655699e+00    3.650911e+00
  4.671575e+00    3.592350e+00
  4.687451e+00    3.646318e+00
  4.703326e+00    3.605871e+00
  4.719202e+00    3.596145e+00
  4.735077e+00    3.655072e+00
  4.750953e+00    3.639706e+00
  4.766828e+00    3.628966e+00
  4.782704e+00    3.721009e+00
  4.798580e+00    3.672935e+00
  4.814455e+00    3.641056e+00
  4.830331e+00    3.700652e+00
  4.846206e+00    3.687820e+00
  4.862082e+00    3.631240e+00
  4.877957e+00    3.639785e+00
  4.893833e+00    3.569720e+00
  4.909709e+00    3.574975e+00
  4.925584e+00    3.589159e+00
  4.941460e+00    3.583801e+00
  4.957335e+00    3.571445e+00
  4.973211e+00    3.588897e+00
  4.989086e+00    3.637256e+00
  5.004962e+00    3.678595e+00
  5.020838e+00    3.722306e+00
  5.036713e+00    3.646029e+00
  5.052589e+00    3.651044e+00
  5.068464e+00    3.706149e+00
  5.084340e+00    3.800607e+00
  5.100216e+00    3.690864e+00
  5.116091e+00    3.605253e+00
  5.131967e+00    3.664162e+00
  5.147842e+00    3.586846e+00
  5.163718e+00    3.558275e+00
  5.179593e+00    3.582644e+00
  5.195469e+00    3.617210e+00
  5.211345e+00    3.649673e+00
  5.227220e+00    3.622626e+00
  5.243096e+00    3.651752e+00
  5.258971e+00    3.658635e+00
  5.274847e+00    3.701336e+00
  5.290722e+00    3.693394e+00
  5.306598e+00    3.654924e+00
  5.322474e+00    3.682438e+00
  5.338349e+00    3.632889e+00
  5.354225e+00    3.579137e+00
  5.370100e+00    3.613323e+00
  5.385976e+00    3.667563e+00
  5.401851e+00    3.754257e+00
  5.417727e+00    3.627255e+00
  5.433603e+00    3.541870e+00
  5.449478e+00    3.599274e+00
  5.465354e+00    3.595183e+00
  5.481229e+00    3.653831e+00
  5.497105e+00    3.614797e+00
  5.512980e+00    3.652414e+00
  5.528856e+00    3.631945e+00
  5.544732e+00    3.652090e+00
  5.560607e+00    3.678302e+00
  5.576483e+00    3.615064e+00
  5.592358e+00    3.572459e+00
  5.608234e+00    3.478462e+00
  5.624109e+00    3.565834e+00
  5.639985e+00    3.615801e+00
  5.655861e+00    3.585304e+00
  5.671736e+00    3.563439e+00
  5.687612e+00    3.621684e+00
  5.703487e+00    3.612578e+00
  5.719363e+00    3.610453e+00
  5.735238e+00    3.627823e+00
  5.751114e+00    3.534790e+00
  5.766990e+00    3.512398e+00
  5.782865e+00    3.613040e+00
  5.798741e+00    3.537748e+00
  5.814616e+00    3.546980e+00
  5.830492e+00    3.526320e+00
  5.846367e+00    3.438438e+00
  5.862243e+00    3.526788e+00
  5.878119e+00    3.614603e+00
  5.893994e+00    3.586813e+00
  5.909870e+00    3.627398e+00
  5.925745e+00    3.510892e+00
  5.941621e+00    3.481185e+00
  5.957497e+00    3.478104e+00
  5.973372e+00    3.494481e+00
  5.989248e+00    3.467056e+00
  6.005123e+00    3.556084e+00
  6.020999e+00    3.548193e+00
  6.036874e+00    3.554377e+00
  6.052750e+00    3.654270e+00
  6.068626e+00    3.573784e+00
  6.084501e+00    3.583920e+00
  6.100377e+00    3.648736e+00
  6.116252e+00    3.530748e+00
  6.132128e+00    3.486215e+00
  6.148003e+00    3.544297e+00
  6.163879e+00    3.520917e+00
  6.179755e+00    3.543363e+00
  6.195630e+00    3.542940e+00
  6.211506e+00    3.520897e+00
  6.227381e+00    3.497440e+00
  6.243257e+00    3.527153e+00
  6.259132e+00    3.567057e+00
  6.275008e+00    3.451895e+00
  6.290884e+00    3.546670e+00
  6.306759e+00    3.493479e+00
  6.322635e+00    3.536564e+00
  6.338510e+00    3.567848e+00
  6.354386e+00    3.573270e+00
  6.370261e+00    3.594096e+00
  6.386137e+00    3.606263e+00
  6.402013e+00    3.589874e+00
  6.417888e+00    3.542444e+00
  6.433764e+00    3.504488e+00
  6.449639e+00    3.496423e+00
  6.465515e+00    3.521481e+00
  6.481390e+00    3.519165e+00
  6.497266e+00    3.579127e+00
  6.513142e+00    3.501415e+00
  6.529017e+00    3.579020e+00
  6.544893e+00    3.584994e+00
  6.560768e+00    3.483557e+00
  6.576644e+00    3.500431e+00
  6.592519e+00    3.493174e+00
  6.608395e+00    3.510356e+00
  6.624271e+00    3.562994e+00
  6.640146e+00    3.479028e+00
  6.656022e+00    3.488843e+00
  6.671897e+00    3.541825e+00
  6.687773e+00    3.504128e+00
  6.703648e+00    3.526983e+00
  6.719524e+00    3.519069e+00
  6.735400e+00    3.491228e+00
  6.751275e+00    3.512056e+00
  6.767151e+00    3.522788e+00
  6.783026e+00    3.513168e+00
  6.798902e+00    3.479254e+00
  6.814777e+00    3.461840e+00
  6.830653e+00    3.471015e+00
  6.846529e+00    3.546090e+00
  6.862404e+00    3.561967e+00
  6.878280e+00    3.558996e+00
  6.894155e+00    3.516625e+00
  6.910031e+00    3.515085e+00
  6.925907e+00    3.566915e+00
  6.941782e+00    3.530775e+00
  6.957658e+00    3.575457e+00
  6.973533e+00    3.506592e+00
  6.989409e+00    3.443984e+00
  7.005284e+00    3.551162e+00
  7.021160e+00    3.537263e+00
  7.037036e+00    3.564073e+00
  7.052911e+00    3.518192e+00
  7.068787e+00    3.470662e+00
  7.084662e+00    3.503349e+00
  7.100538e+00    3.493905e+00
  7.116413e+00    3.468701e+00
  7.132289e+00    3.468837e+00
  7.148165e+00    3.495387e+00
  7.164040e+00    3.617628e+00
  7.179916e+00    3.534866e+00
  7.195791e+00    3.522936e+00
  7.211667e+00    3.516490e+00
  7.227542e+00    3.526401e+00
  7.243418e+00    3.479954e+00
  7.259294e+00    3.543769e+00
  7.275169e+00    3.567236e+00
  7.291045e+00    3.532932e+00
  7.306920e+00    3.498650e+00
  7.322796e+00    3.496109e+00
  7.338671e+00    3.515698e+00
  7.354547e+00    3.551680e+00
  7.370423e+00    3.506926e+00
  7.386298e+00    3.485381e+00
  7.402174e+00    3.544399e+00
  7.418049e+00    3.476178e+00
  7.433925e+00    3.438567e+00
  7.449800e+00    3.503110e+00
  7.465676e+00    3.513267e+00
  7.481552e+00    3.476734e+00
  7.497427e+00    3.461751e+00
  7.513303e+00    3.435216e+00
  7.529178e+00    3.434328e+00
  7.545054e+00    3.429553e+00
  7.560929e+00    3.425607e+00
  7.576805e+00    3.490618e+00
  7.592681e+00    3.507657e+00
  7.608556e+00    3.528467e+00
  7.624432e+00    3.468064e+00
  7.640307e+00    3.383207e+00
  7.656183e+00    3.432263e+00
  7.672058e+00    3.491569e+00
  7.687934e+00    3.553491e+00
  7.703810e+00    3.483358e+00
  7.719685e+00    3.394176e+00
  7.735561e+00    3.402405e+00
  7.751436e+00    3.472051e+00
  7.767312e+00    3.437942e+00
  7.783187e+00    3.400023e+00
  7.799063e+00    3.439408e+00
  7.814939e+00    3.418200e+00
  7.830814e+00    3.423494e+00
  7.846690e+00    3.495628e+00
  7.862565e+00    3.405196e+00
  7.878441e+00    3.389189e+00
  7.894317e+00    3.422070e+00
  7.910192e+00    3.433696e+00
  7.926068e+00    3.378504e+00
  7.941943e+00    3.446002e+00
  7.957819e+00    3.412442e+00
  7.973694e+00    3.404865e+00
  7.989570e+00    3.452020e+00
  8.005446e+00    3.445050e+00
  8.021321e+00    3.418972e+00
  8.037197e+00    3.399289e+00
  8.053072e+00    3.411193e+00
  8.068948e+00    3.356608e+00
  8.084823e+00    3.349855e+00
  8.100699e+00    3.433211e+00
  8.116575e+00    3.474861e+00
  8.132450e+00    3.411258e+00
  8.148326e+00    3.388998e+00
  8.164201e+00    3.451338e+00
  8.180077e+00    3.510360e+00
  8.195952e+00    3.451778e+00
  8.211828e+00    3.428729e+00
  8.227704e+00    3.504953e+00
  8.243579e+00    3.525580e+00
  8.259455e+00    3.405087e+00
  8.275330e+00    3.407306e+00
  8.291206e+00    3.401017e+00
  8.307081e+00    3.361285e+00
  8.322957e+00    3.451669e+00
  8.338833e+00    3.372520e+00
  8.354708e+00    3.373066e+00
  8.370584e+00    3.382042e+00
  8.386459e+00    3.318857e+00
  8.402335e+00    3.355407e+00
  8.418210e+00    3.401033e+00
  8.434086e+00    3.334731e+00
  8.449962e+00    3.314600e+00
  8.465837e+00    3.404419e+00
  8.481713e+00    3.359413e+00
  8.497588e+00    3.322107e+00
  8.513464e+00    3.356743e+00
  8.529339e+00    3.308282e+00
  8.545215e+00    3.371104e+00
  8.561091e+00    3.359941e+00
  8.576966e+00    3.342236e+00
  8.592842e+00    3.354110e+00
  8.608717e+00    3.339285e+00
  8.624593e+00    3.337548e+00
  8.640468e+00    3.304934e+00
  8.656344e+00    3.334200e+00
  8.672220e+00    3.339271e+00
  8.688095e+00    3.393956e+00
  8.703971e+00    3.351676e+00
  8.719846e+00    3.389602e+00
  8.735722e+00    3.358082e+00
  8.751598e+00    3.346062e+00
  8.767473e+00    3.411200e+00
  8.783349e+00    3.347787e+00
  8.799224e+00    3.307282e+00
  8.815100e+00    3.294103e+00
  8.830975e+00    3.309159e+00
  8.846851e+00    3.333239e+00
  8.862727e+00    3.370372e+00
  8.878602e+00    3.296710e+00
  8.894478e+00    3.291212e+00
  8.910353e+00    3.281279e+00
  8.926229e+00    3.278703e+00
  8.942104e+00    3.333566e+00
  8.957980e+00    3.346571e+00
  8.973856e+00    3.264829e+00
  8.989731e+00    3.281254e+00
  9.005607e+00    3.339596e+00
  9.021482e+00    3.280038e+00
  9.037358e+00    3.267636e+00
  9.053233e+00    3.313488e+00
  9.069109e+00    3.277032e+00
  9.084985e+00    3.258865e+00
  9.100860e+00    3.225921e+00
  9.116736e+00    3.310295e+00
  9.132611e+00    3.382172e+00
  9.148487e+00    3.306113e+00
  9.164362e+00    3.303059e+00
  9.180238e+00    3.321378e+00
  9.196114e+00    3.280148e+00
  9.211989e+00    3.233635e+00
  9.227865e+00    3.257328e+00
  9.243740e+00    3.203444e+00
  9.259616e+00    3.249596e+00
  9.275491e+00    3.220891e+00
  9.291367e+00    3.249655e+00
  9.307243e+00    3.271621e+00
  9.323118e+00    3.184505e+00
  9.338994e+00    3.197004e+00
  9.354869e+00    3.190182e+00
  9.370745e+00    3.237720e+00
  9.386620e+00    3.210723e+00
  9.402496e+00    3.197663e+00
  9.418372e+00    3.222027e+00
  9.434247e+00    3.208098e+00
  9.450123e+00    3.176696e+00
  9.465998e+00    3.189360e+00
  9.481874e+00    3.199436e+00
  9.497749e+00    3.186111e+00
  9.513625e+00    3.222028e+00
  9.529501e+00    3.211652e+00
  9.545376e+00    3.196218e+00
  9.561252e+00    3.196424e+00
  9.577127e+00    3.170588e+00
  9.593003e+00    3.189428e+00
  9.608878e+00    3.211570e+00
  9.624754e+00    3.255207e+00
  9.640630e+00    3.229942e+00
  9.656505e+00    3.135016e+00
  9.672381e+00    3.088586e+00
  9.688256e+00    3.109975e+00
  9.704132e+00    3.127328e+00
  9.720008e+00    3.196652e+00
  9.735883e+00    3.161855e+00
  9.751759e+00    3.163506e+00
  9.767634e+00    3.163827e+00
  9.783510e+00    3.132565e+00
  9.799385e+00    3.163106e+00
  9.815261e+00    3.161628e+00
  9.831137e+00    3.121963e+00
  9.847012e+00    3.122908e+00
  9.862888e+00    3.144747e+00
  9.878763e+00    3.163725e+00
  9.894639e+00    3.141517e+00
  9.910514e+00    3.120565e+00
  9.926390e+00    3.138638e+00
  9.942266e+00    3.160451e+00
  9.958141e+00    3.096324e+00
  9.974017e+00    3.075609e+00
  9.989892e+00    3.048131e+00
  1.000577e+01    3.046447e+00
  1.002164e+01    3.066245e+00
  1.003752e+01    3.044328e+00
  1.005339e+01    3.083805e+00
  1.006927e+01    3.143665e+00
  1.008515e+01    3.108494e+00
  1.010102e+01    3.057789e+00
  1.011690e+01    3.032851e+00
  1.013277e+01    3.041032e+00
  1.014865e+01    3.046587e+00
  1.016452e+01    3.051965e+00
  1.018040e+01    3.093832e+00
  1.019627e+01    3.051690e+00
  1.021215e+01    3.005677e+00
  1.022803e+01    3.067539e+00
  1.024390e+01    3.084816e+00
  1.025978e+01    3.055453e+00
  1.027565e+01    3.089786e+00
  1.029153e+01    3.101224e+00
  1.030740e+01    2.999547e+00
  1.032328e+01    3.028741e+00
  1.033915e+01    3.019230e+00
  1.035503e+01    3.021435e+00
  1.037091e+01    3.012385e+00
  1.038678e+01    3.038002e+00
  1.040266e+01    3.044264e+00
  1.041853e+01    3.035253e+00
  1.043441e+01    2.992496e+00
  1.045028e+01    2.981809e+00
  1.046616e+01    3.041045e+00
  1.048204e+01    3.025994e+00
  1.049791e+01    3.011261e+00
  1.051379e+01    3.044431e+00
  1.052966e+01    3.061101e+00
  1.054554e+01    3.041250e+00
  1.056141e+01    2.989100e+00
  1.057729e+01    2.986232e+00
  1.059316e+01    2.997625e+00
  1.060904e+01    2.989189e+00
  1.062492e+01    2.970412e+00
  1.064079e+01    3.001391e+00
  1.065667e+01    3.009278e+00
  1.067254e+01    3.002035e+00
  1.068842e+01    2.969729e+00
  1.070429e+01    2.928140e+00
  1.072017e+01    2.938068e+00
  1.073604e+01    2.944875e+00
  1.075192e+01    2.988893e+00
  1.076780e+01    2.955996e+00
  1.078367e+01    2.894158e+00
  1.079955e+01    2.933129e+00
  1.081542e+01    2.930639e+00
  1.083130e+01    2.911870e+00
  1.084717e+01    2.945117e+00
  1.086305e+01    2.932887e+00
  1.087892e+01    2.893326e+00
  1.089480e+01    2.927713e+00
  1.091068e+01    2.944169e+00
  1.092655e+01    2.956008e+00
  1.094243e+01    2.899588e+00
  1.095830e+01    2.918138e+00
  1.097418e+01    2.931888e+00
  1.099005e+01    2.881048e+00
  1.100593e+01    2.859335e+00
  1.102180e+01    2.896051e+00
  1.103768e+01    2.927201e+00
  1.105356e+01    2.875107e+00
  1.106943e+01    2.866631e+00
  1.108531e+01    2.872459e+00
  1.110118e+01    2.885371e+00
  1.111706e+01    2.865717e+00
  1.113293e+01    2.873976e+00
  1.114881e+01    2.860153e+00
  1.116468e+01    2.897619e+00
  1.118056e+01    2.880355e+00
  1.119644e+01    2.871818e+00
  1.121231e+01    2.861574e+00
  1.122819e+01    2.862483e+00
  1.124406e+01    2.839737e+00
  1.125994e+01    2.866640e+00
  1.127581e+01    2.822526e+00
  1.129169e+01    2.803304e+00
  1.130756e+01    2.836482e+00
  1.132344e+01    2.827684e+00
  1.133932e+01    2.808479e+00
  1.135519e+01    2.819548e+00
  1.137107e+01    2.826710e+00
  1.138694e+01    2.818209e+00
  1.140282e+01    2.789063e+00
  1.141869e+01    2.800619e+00
  1.143457e+01    2.859957e+00
  1.145045e+01    2.824590e+00
  1.146632e+01    2.849228e+00
  1.148220e+01    2.769258e+00
  1.149807e+01    2.760313e+00
  1.151395e+01    2.763568e+00
  1.152982e+01    2.797270e+00
  1.154570e+01    2.803065e+00
  1.156157e+01    2.747277e+00
  1.157745e+01    2.745791e+00
  1.159333e+01    2.765261e+00
  1.160920e+01    2.755763e+00
  1.162508e+01    2.769226e+00
  1.164095e+01    2.763838e+00
  1.165683e+01    2.734231e+00
  1.167270e+01    2.773461e+00
  1.168858e+01    2.745532e+00
  1.170445e+01    2.726443e+00
  1.172033e+01    2.779313e+00
  1.173621e+01    2.745494e+00
  1.175208e+01    2.728629e+00
  1.176796e+01    2.711873e+00
  1.178383e+01    2.728112e+00
  1.179971e+01    2.744842e+00
  1.181558e+01    2.727329e+00
  1.183146e+01    2.658564e+00
  1.184733e+01    2.718980e+00
  1.186321e+01    2.776765e+00
  1.187909e+01    2.768099e+00
  1.189496e+01    2.718941e+00
  1.191084e+01    2.681224e+00
  1.192671e+01    2.713850e+00
  1.194259e+01    2.747336e+00
  1.195846e+01    2.706750e+00
  1.197434e+01    2.659372e+00
  1.199021e+01    2.663996e+00
  1.200609e+01    2.662448e+00
  1.202197e+01    2.632769e+00
  1.203784e+01    2.617186e+00
  1.205372e+01    2.695344e+00
  1.206959e+01    2.674705e+00
  1.208547e+01    2.686119e+00
  1.210134e+01    2.688859e+00
  1.211722e+01    2.696670e+00
  1.213309e+01    2.694487e+00
  1.214897e+01    2.676419e+00
  1.216485e+01    2.671069e+00
  1.218072e+01    2.712292e+00
  1.219660e+01    2.723609e+00
  1.221247e+01    2.706110e+00
  1.222835e+01    2.684258e+00
  1.224422e+01    2.676663e+00
  1.226010e+01    2.666895e+00
  1.227597e+01    2.654710e+00
  1.229185e+01    2.649932e+00
  1.230773e+01    2.637851e+00
  1.232360e+01    2.670664e+00
  1.233948e+01    2.662480e+00
  1.235535e+01    2.661276e+00
  1.237123e+01    2.693594e+00
  1.238710e+01    2.676189e+00
  1.240298e+01    2.683665e+00
  1.241886e+01    2.711439e+00
  1.243473e+01    2.718438e+00
  1.245061e+01    2.688480e+00
  1.246648e+01    2.740327e+00
  1.248236e+01    2.700950e+00
  1.249823e+01    2.707304e+00
  1.251411e+01    2.711012e+00
  1.252998e+01    2.713330e+00
  1.254586e+01    2.717752e+00
  1.256174e+01    2.722541e+00
  1.257761e+01    2.753274e+00
  1.259349e+01    2.725641e+00
  1.260936e+01    2.744180e+00
  1.262524e+01    2.765399e+00
  1.264111e+01    2.720778e+00
  1.265699e+01    2.773014e+00
  1.267286e+01    2.818707e+00
  1.268874e+01    2.789656e+00
  1.270462e+01    2.771407e+00
  1.272049e+01    2.847406e+00
  1.273637e+01    2.857885e+00
  1.275224e+01    2.895050e+00
  1.276812e+01    2.906983e+00
  1.278399e+01    2.922050e+00
  1.279987e+01    2.987638e+00
  1.281574e+01    3.022629e+00
  1.283162e+01    3.092928e+00
  1.284750e+01    3.129375e+00
  1.286337e+01    3.193645e+00
  1.287925e+01    3.351204e+00
  1.289512e+01    3.510053e+00
  1.291100e+01    3.656150e+00
  1.292687e+01    3.862134e+00
  1.294275e+01    4.058561e+00
  1.295862e+01    4.383860e+00
  1.297450e+01    4.775403e+00
  1.299038e+01    5.330291e+00
  1.300625e+01    5.821094e+00
  1.302213e+01    6.639429e+00
  1.303800e+01    7.673885e+00
  1.305388e+01    8.801243e+00
  1.306975e+01    1.003891e+01
  1.308563e+01    1.141786e+01
  1.310150e+01    1.268725e+01
  1.311738e+01    1.373858e+01
  1.313326e+01    1.465448e+01
  1.314913e+01    1.553186e+01
  1.316501e+01    1.619023e+01
  1.318088e+01    1.638549e+01
  1.319676e+01    1.568610e+01
  1.321263e+01    1.432341e+01
  1.322851e+01    1.241545e+01
  1.324438e+01    1.066145e+01
  1.326026e+01    9.127203e+00
  1.327614e+01    7.774384e+00
  1.329201e+01    6.795920e+00
  1.330789e+01    6.008635e+00
  1.332376e+01    5.346158e+00
  1.333964e+01    4.813138e+00
  1.335551e+01    4.389143e+00
  1.337139e+01    4.146951e+00
  1.338727e+01    3.884660e+00
  1.340314e+01    3.696349e+00
  1.341902e+01    3.525553e+00
  1.343489e+01    3.335854e+00
  1.345077e+01    3.194898e+00
  1.346664e+01    3.138995e+00
  1.348252e+01    3.086084e+00
  1.349839e+01    3.008618e+00
  1.351427e+01    2.924266e+00
  1.353015e+01    2.864396e+00
  1.354602e+01    2.805841e+00
  1.356190e+01    2.741662e+00
  1.357777e+01    2.705043e+00
  1.359365e+01    2.730545e+00
  1.360952e+01    2.676527e+00
  1.362540e+01    2.629392e+00
  1.364127e+01    2.622731e+00
  1.365715e+01    2.619212e+00
  1.367303e+01    2.612696e+00
  1.368890e+01    2.555450e+00
  1.370478e+01    2.530400e+00
  1.372065e+01    2.571368e+00
  1.373653e+01    2.571815e+00
  1.375240e+01    2.486870e+00
  1.376828e+01    2.465305e+00
  1.378415e+01    2.424613e+00
  1.380003e+01    2.497555e+00
  1.381591e+01    2.474470e+00
  1.383178e+01    2.445486e+00
  1.384766e+01    2.453566e+00
  1.386353e+01    2.435030e+00
  1.387941e+01    2.412492e+00
  1.389528e+01    2.388923e+00
  1.391116e+01    2.372988e+00
  1.392703e+01    2.367887e+00
  1.394291e+01    2.396283e+00
  1.395879e+01    2.425612e+00
  1.397466e+01    2.364896e+00
  1.399054e+01    2.348257e+00
  1.400641e+01    2.328038e+00
  1.402229e+01    2.333652e+00
  1.403816e+01    2.351731e+00
  1.405404e+01    2.320081e+00
  1.406991e+01    2.291796e+00
  1.408579e+01    2.342402e+00
  1.410167e+01    2.314641e+00
  1.411754e+01    2.317189e+00
  1.413342e+01    2.332757e+00
  1.414929e+01    2.312836e+00
  1.416517e+01    2.328087e+00
  1.418104e+01    2.286474e+00
  1.419692e+01    2.280433e+00
  1.421279e+01    2.232430e+00
  1.422867e+01    2.278024e+00
  1.424455e+01    2.312347e+00
  1.426042e+01    2.286650e+00
  1.427630e+01    2.306378e+00
  1.429217e+01    2.274024e+00
  1.430805e+01    2.274068e+00
  1.432392e+01    2.261814e+00
  1.433980e+01    2.258723e+00
  1.435568e+01    2.275537e+00
  1.437155e+01    2.264669e+00
  1.438743e+01    2.243979e+00
  1.440330e+01    2.199090e+00
  1.441918e+01    2.224370e+00
  1.443505e+01    2.211881e+00
  1.445093e+01    2.205110e+00
  1.446680e+01    2.231071e+00
  1.448268e+01    2.204547e+00
  1.449856e+01    2.228070e+00
  1.451443e+01    2.211763e+00
  1.453031e+01    2.205991e+00
  1.454618e+01    2.220417e+00
  1.456206e+01    2.188136e+00
  1.457793e+01    2.205712e+00
  1.459381e+01    2.196040e+00
  1.460968e+01    2.206848e+00
  1.462556e+01    2.232500e+00
  1.464144e+01    2.232834e+00
  1.465731e+01    2.249104e+00
  1.467319e+01    2.214671e+00
  1.468906e+01    2.196964e+00
  1.470494e+01    2.195411e+00
  1.472081e+01    2.193237e+00
  1.473669e+01    2.176842e+00
  1.475256e+01    2.189318e+00
  1.476844e+01    2.201483e+00
  1.478432e+01    2.220171e+00
  1.480019e+01    2.241266e+00
  1.481607e+01    2.240564e+00
  1.483194e+01    2.168542e+00
  1.484782e+01    2.204675e+00
  1.486369e+01    2.223095e+00
  1.487957e+01    2.186096e+00
  1.489544e+01    2.246228e+00
  1.491132e+01    2.249455e+00
  1.492720e+01    2.232466e+00
  1.494307e+01    2.268413e+00
  1.495895e+01    2.300573e+00
  1.497482e+01    2.338522e+00
  1.499070e+01    2.356514e+00
  1.500657e+01    2.403173e+00
  1.502245e+01    2.467962e+00
  1.503832e+01    2.572784e+00
  1.505420e+01    2.694673e+00
  1.507008e+01    2.788884e+00
  1.508595e+01    2.966476e+00
  1.510183e+01    3.176489e+00
  1.511770e+01    3.431070e+00
  1.513358e+01    3.797038e+00
  1.514945e+01    4.175083e+00
  1.516533e+01    4.426081e+00
  1.518120e+01    4.742402e+00
  1.519708e+01    5.087026e+00
  1.521296e+01    5.385746e+00
  1.522883e+01    5.567034e+00
  1.524471e+01    5.689349e+00
  1.526058e+01    5.769767e+00
  1.527646e+01    5.650774e+00
  1.529233e+01    5.427819e+00
  1.530821e+01    5.117127e+00
  1.532409e+01    4.669142e+00
  1.533996e+01    4.215391e+00
  1.535584e+01    3.765020e+00
  1.537171e+01    3.397978e+00
  1.538759e+01    3.160643e+00
  1.540346e+01    2.966717e+00
  1.541934e+01    2.781235e+00
  1.543521e+01    2.611594e+00
  1.545109e+01    2.532985e+00
  1.546697e+01    2.441163e+00
  1.548284e+01    2.351083e+00
  1.549872e+01    2.300051e+00
  1.551459e+01    2.226164e+00
  1.553047e+01    2.166898e+00
  1.554634e+01    2.170601e+00
  1.556222e+01    2.134401e+00
  1.557809e+01    2.114420e+00
  1.559397e+01    2.099286e+00
  1.560985e+01    2.100680e+00
  1.562572e+01    2.065915e+00
  1.564160e+01    2.028558e+00
  1.565747e+01    2.018840e+00
  1.567335e+01    1.999639e+00
  1.568922e+01    1.964158e+00
  1.570510e+01    2.008377e+00
  1.572097e+01    1.965105e+00
  1.573685e+01    1.937147e+00
  1.575273e+01    1.970639e+00
  1.576860e+01    1.959133e+00
  1.578448e+01    1.947915e+00
  1.580035e+01    1.933313e+00
  1.581623e+01    1.923586e+00
  1.583210e+01    1.918181e+00
  1.584798e+01    1.902407e+00
  1.586385e+01    1.899261e+00
  1.587973e+01    1.906184e+00
  1.589561e+01    1.878578e+00
  1.591148e+01    1.889702e+00
  1.592736e+01    1.902500e+00
  1.594323e+01    1.893246e+00
  1.595911e+01    1.897647e+00
  1.597498e+01    1.915855e+00
  1.599086e+01    1.882866e+00
  1.600673e+01    1.848063e+00
  1.602261e+01    1.866277e+00
  1.603849e+01    1.883355e+00
  1.605436e+01    1.859325e+00
  1.607024e+01    1.834788e+00
  1.608611e+01    1.820663e+00
  1.610199e+01    1.814165e+00
  1.611786e+01    1.813679e+00
  1.613374e+01    1.807919e+00
  1.614961e+01    1.812772e+00
  1.616549e+01    1.840716e+00
  1.618137e+01    1.826836e+00
  1.619724e+01    1.841678e+00
  1.621312e+01    1.789474e+00
  1.622899e+01    1.795936e+00
  1.624487e+01    1.794024e+00
  1.626074e+01    1.822190e+00
  1.627662e+01    1.848399e+00
  1.629250e+01    1.831301e+00
  1.630837e+01    1.751581e+00
  1.632425e+01    1.753200e+00
  1.634012e+01    1.758418e+00
  1.635600e+01    1.777624e+00
  1.637187e+01    1.797333e+00
  1.638775e+01    1.767575e+00
  1.640362e+01    1.750600e+00
  1.641950e+01    1.785051e+00
  1.643538e+01    1.796289e+00
  1.645125e+01    1.753614e+00
  1.646713e+01    1.758580e+00
  1.648300e+01    1.794883e+00
  1.649888e+01    1.759954e+00
  1.651475e+01    1.767172e+00
  1.653063e+01    1.748540e+00
  1.654650e+01    1.745185e+00
  1.656238e+01    1.740043e+00
  1.657826e+01    1.770827e+00
  1.659413e+01    1.750456e+00
  1.661001e+01    1.736332e+00
  1.662588e+01    1.743432e+00
  1.664176e+01    1.704741e+00
  1.665763e+01    1.742250e+00
  1.667351e+01    1.719883e+00
  1.668938e+01    1.742493e+00
  1.670526e+01    1.718834e+00
  1.672114e+01    1.691570e+00
  1.673701e+01    1.699972e+00
  1.675289e+01    1.687834e+00
  1.676876e+01    1.699974e+00
  1.678464e+01    1.724173e+00
  1.680051e+01    1.686971e+00
  1.681639e+01    1.667749e+00
  1.683226e+01    1.693102e+00
  1.684814e+01    1.706567e+00
  1.686402e+01    1.691741e+00
  1.687989e+01    1.684866e+00
  1.689577e+01    1.656857e+00
  1.691164e+01    1.652082e+00
  1.692752e+01    1.664152e+00
  1.694339e+01    1.658860e+00
  1.695927e+01    1.669951e+00
  1.697514e+01    1.690936e+00
  1.699102e+01    1.669244e+00
  1.700690e+01    1.677164e+00
  1.702277e+01    1.647877e+00
  1.703865e+01    1.663041e+00
  1.705452e+01    1.691834e+00
  1.707040e+01    1.642434e+00
  1.708627e+01    1.665815e+00
  1.710215e+01    1.635571e+00
  1.711802e+01    1.652705e+00
  1.713390e+01    1.653104e+00
  1.714978e+01    1.639292e+00
  1.716565e+01    1.666631e+00
  1.718153e+01    1.670341e+00
  1.719740e+01    1.615275e+00
  1.721328e+01    1.606928e+00
  1.722915e+01    1.593814e+00
  1.724503e+01    1.635072e+00
  1.726091e+01    1.652242e+00
  1.727678e+01    1.629845e+00
  1.729266e+01    1.627640e+00
  1.730853e+01    1.623208e+00
  1.732441e+01    1.660397e+00
  1.734028e+01    1.646913e+00
  1.735616e+01    1.629657e+00
  1.737203e+01    1.611282e+00
  1.738791e+01    1.607334e+00
  1.740379e+01    1.590841e+00
  1.741966e+01    1.562677e+00
  1.743554e+01    1.591013e+00
  1.745141e+01    1.593361e+00
  1.746729e+01    1.580453e+00
  1.748316e+01    1.586679e+00
  1.749904e+01    1.564744e+00
  1.751491e+01    1.590684e+00
  1.753079e+01    1.568488e+00
  1.754667e+01    1.559565e+00
  1.756254e+01    1.566472e+00
  1.757842e+01    1.562778e+00
  1.759429e+01    1.583887e+00
  1.761017e+01    1.587256e+00
  1.762604e+01    1.565036e+00
  1.764192e+01    1.548044e+00
  1.765779e+01    1.529490e+00
  1.767367e+01    1.551703e+00
  1.768955e+01    1.554586e+00
  1.770542e+01    1.539941e+00
  1.772130e+01    1.519238e+00
  1.773717e+01    1.541250e+00
  1.775305e+01    1.555353e+00
  1.776892e+01    1.550310e+00
  1.778480e+01    1.529459e+00
  1.780067e+01    1.537669e+00
  1.781655e+01    1.552957e+00
  1.783243e+01    1.517688e+00
  1.784830e+01    1.521420e+00
  1.786418e+01    1.530772e+00
  1.788005e+01    1.536760e+00
  1.789593e+01    1.528580e+00
  1.791180e+01    1.550844e+00
  1.792768e+01    1.556453e+00
  1.794355e+01    1.544359e+00
  1.795943e+01    1.524356e+00
  1.797531e+01    1.523037e+00
  1.799118e+01    1.515668e+00
  1.800706e+01    1.471888e+00
  1.802293e+01    1.516305e+00
  1.803881e+01    1.501930e+00
  1.805468e+01    1.502957e+00
  1.807056e+01    1.494537e+00
  1.808643e+01    1.482588e+00
  1.810231e+01    1.486536e+00
  1.811819e+01    1.496023e+00
  1.813406e+01    1.483082e+00
  1.814994e+01    1.457258e+00
  1.816581e+01    1.464787e+00
  1.818169e+01    1.480705e+00
  1.819756e+01    1.477317e+00
  1.821344e+01    1.482714e+00
  1.822932e+01    1.469101e+00
  1.824519e+01    1.460946e+00
  1.826107e+01    1.458172e+00
  1.827694e+01    1.486297e+00
  1.829282e+01    1.472096e+00
  1.830869e+01    1.454936e+00
  1.832457e+01    1.477141e+00
  1.834044e+01    1.472466e+00
  1.835632e+01    1.454767e+00
  1.837220e+01    1.466492e+00
  1.838807e+01    1.463658e+00
  1.840395e+01    1.496315e+00
  1.841982e+01    1.456506e+00
  1.843570e+01    1.451837e+00
  1.845157e+01    1.461621e+00
  1.846745e+01    1.451874e+00
  1.848332e+01    1.425901e+00
  1.849920e+01    1.421672e+00
  1.851508e+01    1.414965e+00
  1.853095e+01    1.409641e+00
  1.854683e+01    1.417119e+00
  1.856270e+01    1.413869e+00
  1.857858e+01    1.418730e+00
  1.859445e+01    1.429306e+00
  1.861033e+01    1.402847e+00
  1.862620e+01    1.396613e+00
  1.864208e+01    1.409615e+00
  1.865796e+01    1.428948e+00
  1.867383e+01    1.446073e+00
  1.868971e+01    1.421246e+00
  1.870558e+01    1.391978e+00
  1.872146e+01    1.388868e+00
  1.873733e+01    1.435881e+00
  1.875321e+01    1.404599e+00
  1.876908e+01    1.413223e+00
  1.878496e+01    1.420977e+00
  1.880084e+01    1.419951e+00
  1.881671e+01    1.407962e+00
  1.883259e+01    1.397669e+00
  1.884846e+01    1.394939e+00
  1.886434e+01    1.399214e+00
  1.888021e+01    1.398793e+00
  1.889609e+01    1.422277e+00
  1.891196e+01    1.410583e+00
  1.892784e+01    1.408317e+00
  1.894372e+01    1.401566e+00
  1.895959e+01    1.392888e+00
  1.897547e+01    1.398769e+00
  1.899134e+01    1.372699e+00
  1.900722e+01    1.359091e+00
  1.902309e+01    1.376656e+00
  1.903897e+01    1.366844e+00
  1.905484e+01    1.372732e+00
  1.907072e+01    1.384496e+00
  1.908660e+01    1.377338e+00
  1.910247e+01    1.381015e+00
  1.911835e+01    1.377121e+00
  1.913422e+01    1.392345e+00
  1.915010e+01    1.398498e+00
  1.916597e+01    1.368674e+00
  1.918185e+01    1.360248e+00
  1.919773e+01    1.373314e+00
  1.921360e+01    1.388917e+00
  1.922948e+01    1.395094e+00
  1.924535e+01    1.363632e+00
  1.926123e+01    1.347758e+00
  1.927710e+01    1.340461e+00
  1.929298e+01    1.349945e+00
  1.930885e+01    1.351691e+00
  1.932473e+01    1.368433e+00
  1.934061e+01    1.357345e+00
  1.935648e+01    1.359043e+00
  1.937236e+01    1.349227e+00
  1.938823e+01    1.334180e+00
  1.940411e+01    1.326447e+00
  1.941998e+01    1.349019e+00
  1.943586e+01    1.370739e+00
  1.945173e+01    1.352250e+00
  1.946761e+01    1.337760e+00
  1.948349e+01    1.322840e+00
  1.949936e+01    1.343553e+00
  1.951524e+01    1.319367e+00
  1.953111e+01    1.316102e+00
  1.954699e+01    1.325294e+00
  1.956286e+01    1.338225e+00
  1.957874e+01    1.335765e+00
  1.959461e+01    1.319526e+00
  1.961049e+01    1.306614e+00
  1.962637e+01    1.340514e+00
  1.964224e+01    1.357803e+00
  1.965812e+01    1.338927e+00
  1.967399e+01    1.341822e+00
  1.968987e+01    1.318643e+00
  1.970574e+01    1.288601e+00
  1.972162e+01    1.273075e+00
  1.973749e+01    1.318865e+00
  1.975337e+01    1.330614e+00
  1.976925e+01    1.319549e+00
  1.978512e+01    1.277299e+00
  1.980100e+01    1.271868e+00
  1.981687e+01    1.275576e+00
  1.983275e+01    1.274172e+00
  1.984862e+01    1.285644e+00
  1.986450e+01    1.264005e+00
  1.988037e+01    1.288959e+00
  1.989625e+01    1.286608e+00
  1.991213e+01    1.285912e+00
  1.992800e+01    1.281722e+00
  1.994388e+01    1.276981e+00
  1.995975e+01    1.274821e+00
  1.997563e+01    1.259120e+00
  1.999150e+01    1.269961e+00
  2.000738e+01    1.289716e+00
  2.002325e+01    1.263721e+00
  2.003913e+01    1.265937e+00
  2.005501e+01    1.292910e+00
  2.007088e+01    1.298198e+00
  2.008676e+01    1.284053e+00
  2.010263e+01    1.289224e+00
  2.011851e+01    1.282057e+00
  2.013438e+01    1.278396e+00
  2.015026e+01    1.282223e+00
  2.016614e+01    1.277160e+00
  2.018201e+01    1.261844e+00
  2.019789e+01    1.255008e+00
  2.021376e+01    1.246451e+00
  2.022964e+01    1.250208e+00
  2.024551e+01    1.263098e+00
  2.026139e+01    1.230065e+00
  2.027726e+01    1.236188e+00
  2.029314e+01    1.260731e+00
  2.030902e+01    1.254780e+00
  2.032489e+01    1.244347e+00
  2.034077e+01    1.246562e+00
  2.035664e+01    1.236727e+00
  2.037252e+01    1.279961e+00
  2.038839e+01    1.240321e+00
  2.040427e+01    1.220247e+00
  2.042014e+01    1.234795e+00
  2.043602e+01    1.247578e+00
  2.045190e+01    1.245840e+00
  2.046777e+01    1.242921e+00
  2.048365e+01    1.240338e+00
  2.049952e+01    1.254161e+00
  2.051540e+01    1.237086e+00
  2.053127e+01    1.217398e+00
  2.054715e+01    1.216856e+00
  2.056302e+01    1.223528e+00
  2.057890e+01    1.211145e+00
  2.059478e+01    1.210156e+00
  2.061065e+01    1.215124e+00
  2.062653e+01    1.224598e+00
  2.064240e+01    1.231479e+00
  2.065828e+01    1.231604e+00
  2.067415e+01    1.219785e+00
  2.069003e+01    1.207171e+00
  2.070590e+01    1.203442e+00
  2.072178e+01    1.196841e+00
  2.073766e+01    1.200198e+00
  2.075353e+01    1.197122e+00
  2.076941e+01    1.203154e+00
  2.078528e+01    1.210847e+00
  2.080116e+01    1.215508e+00
  2.081703e+01    1.228604e+00
  2.083291e+01    1.222317e+00
  2.084878e+01    1.215422e+00
  2.086466e+01    1.212836e+00
  2.088054e+01    1.211221e+00
  2.089641e+01    1.217154e+00
  2.091229e+01    1.235974e+00
  2.092816e+01    1.217518e+00
  2.094404e+01    1.229219e+00
  2.095991e+01    1.171581e+00
  2.097579e+01    1.200449e+00
  2.099166e+01    1.228698e+00
  2.100754e+01    1.222087e+00
  2.102342e+01    1.212131e+00
  2.103929e+01    1.203462e+00
  2.105517e+01    1.223631e+00
  2.107104e+01    1.229403e+00
  2.108692e+01    1.237837e+00
  2.110279e+01    1.234458e+00
  2.111867e+01    1.243861e+00
  2.113455e+01    1.240724e+00
  2.115042e+01    1.214974e+00
  2.116630e+01    1.227936e+00
  2.118217e+01    1.207942e+00
  2.119805e+01    1.207428e+00
  2.121392e+01    1.204883e+00
  2.122980e+01    1.241031e+00
  2.124567e+01    1.270380e+00
  2.126155e+01    1.261087e+00
  2.127743e+01    1.252164e+00
  2.129330e+01    1.239886e+00
  2.130918e+01    1.233560e+00
  2.132505e+01    1.267494e+00
  2.134093e+01    1.274196e+00
  2.135680e+01    1.293348e+00
  2.137268e+01    1.277803e+00
  2.138855e+01    1.295631e+00
  2.140443e+01    1.310527e+00
  2.142031e+01    1.317550e+00
  2.143618e+01    1.325547e+00
  2.145206e+01    1.345079e+00
  2.146793e+01    1.368134e+00
  2.148381e+01    1.404961e+00
  2.149968e+01    1.399463e+00
  2.151556e+01    1.427940e+00
  2.153143e+01    1.482218e+00
  2.154731e+01    1.520874e+00
  2.156319e+01    1.562032e+00
  2.157906e+01    1.609436e+00
  2.159494e+01    1.639450e+00
  2.161081e+01    1.739344e+00
  2.162669e+01    1.849340e+00
  2.164256e+01    1.981676e+00
  2.165844e+01    2.120282e+00
  2.167431e+01    2.274363e+00
  2.169019e+01    2.502739e+00
  2.170607e+01    2.790107e+00
  2.172194e+01    3.131948e+00
  2.173782e+01    3.544418e+00
  2.175369e+01    4.024146e+00
  2.176957e+01    4.535541e+00
  2.178544e+01    5.120428e+00
  2.180132e+01    5.726380e+00
  2.181719e+01    6.399249e+00
  2.183307e+01    7.090345e+00
  2.184895e+01    7.716316e+00
  2.186482e+01    8.267738e+00
  2.188070e+01    8.699140e+00
  2.189657e+01    8.908062e+00
  2.191245e+01    8.798503e+00
  2.192832e+01    8.237331e+00
  2.194420e+01    7.467623e+00
  2.196007e+01    6.640915e+00
  2.197595e+01    5.738667e+00
  2.199183e+01    4.848805e+00
  2.200770e+01    4.178157e+00
  2.202358e+01    3.596993e+00
  2.203945e+01    3.165354e+00
  2.205533e+01    2.846500e+00
  2.207120e+01    2.582217e+00
  2.208708e+01    2.354090e+00
  2.210296e+01    2.148322e+00
  2.211883e+01    1.971593e+00
  2.213471e+01    1.856554e+00
  2.215058e+01    1.754218e+00
  2.216646e+01    1.664280e+00
  2.218233e+01    1.600856e+00
  2.219821e+01    1.529803e+00
  2.221408e+01    1.472857e+00
  2.222996e+01    1.429015e+00
  2.224584e+01    1.401006e+00
  2.226171e+01    1.362017e+00
  2.227759e+01    1.330147e+00
  2.229346e+01    1.310368e+00
  2.230934e+01    1.292948e+00
  2.232521e+01    1.292061e+00
  2.234109e+01    1.264634e+00
  2.235696e+01    1.228455e+00
  2.237284e+01    1.226056e+00
  2.238872e+01    1.195992e+00
  2.240459e+01    1.181291e+00
  2.242047e+01    1.190668e+00
  2.243634e+01    1.190779e+00
  2.245222e+01    1.181637e+00
  2.246809e+01    1.163450e+00
  2.248397e+01    1.144991e+00
  2.249984e+01    1.131617e+00
  2.251572e+01    1.134059e+00
  2.253160e+01    1.134291e+00
  2.254747e+01    1.104573e+00
  2.256335e+01    1.100274e+00
  2.257922e+01    1.095109e+00
  2.259510e+01    1.094723e+00
  2.261097e+01    1.098046e+00
  2.262685e+01    1.100925e+00
  2.264272e+01    1.095825e+00
  2.265860e+01    1.080013e+00
  2.267448e+01    1.054866e+00
  2.269035e+01    1.078449e+00
  2.270623e+01    1.085592e+00
  2.272210e+01    1.075444e+00
  2.273798e+01    1.060916e+00
  2.275385e+01    1.050257e+00
  2.276973e+01    1.065107e+00
  2.278560e+01    1.064164e+00
  2.280148e+01    1.053475e+00
  2.281736e+01    1.053852e+00
  2.283323e+01    1.037796e+00
  2.284911e+01    1.035705e+00
  2.286498e+01    1.024182e+00
  2.288086e+01    1.017448e+00
  2.289673e+01    1.058835e+00
  2.291261e+01    1.026923e+00
  2.292848e+01    1.030450e+00
  2.294436e+01    1.049925e+00
  2.296024e+01    1.029555e+00
  2.297611e+01    1.003478e+00
  2.299199e+01    1.004490e+00
  2.300786e+01    1.026490e+00
  2.302374e+01    1.015351e+00
  2.303961e+01    1.029323e+00
  2.305549e+01    1.016250e+00
  2.307137e+01    1.006109e+00
  2.308724e+01    1.001319e+00
  2.310312e+01    1.004005e+00
  2.311899e+01    1.002469e+00
  2.313487e+01    1.007631e+00
  2.315074e+01    1.008572e+00
  2.316662e+01    9.870866e-01
  2.318249e+01    9.828817e-01
  2.319837e+01    1.004245e+00
  2.321425e+01    9.764180e-01
  2.323012e+01    9.856585e-01
  2.324600e+01    9.859024e-01
  2.326187e+01    9.781955e-01
  2.327775e+01    9.687734e-01
  2.329362e+01    9.702892e-01
  2.330950e+01    9.713116e-01
  2.332537e+01    9.858333e-01
  2.334125e+01    9.873781e-01
  2.335713e+01    9.624979e-01
  2.337300e+01    9.819353e-01
  2.338888e+01    9.522722e-01
  2.340475e+01    9.547172e-01
  2.342063e+01    9.669675e-01
  2.343650e+01    9.897425e-01
  2.345238e+01    1.002349e+00
  2.346825e+01    9.810471e-01
  2.348413e+01    9.496514e-01
  2.350001e+01    9.533041e-01
  2.351588e+01    9.390844e-01
  2.353176e+01    9.650595e-01
  2.354763e+01    9.880891e-01
  2.356351e+01    9.616334e-01
  2.357938e+01    9.589711e-01
  2.359526e+01    9.550226e-01
  2.361113e+01    9.590041e-01
  2.362701e+01    9.726263e-01
  2.364289e+01    9.474377e-01
  2.365876e+01    9.385690e-01
  2.367464e+01    9.507795e-01
  2.369051e+01    9.471709e-01
  2.370639e+01    9.188757e-01
  2.372226e+01    9.273586e-01
  2.373814e+01    9.444743e-01
  2.375401e+01    9.402500e-01
  2.376989e+01    9.347918e-01
  2.378577e+01    9.294495e-01
  2.380164e+01    9.301180e-01
  2.381752e+01    9.230518e-01
  2.383339e+01    9.233042e-01
  2.384927e+01    9.074736e-01
  2.386514e+01    9.149007e-01
  2.388102e+01    9.009255e-01
  2.389689e+01    9.157671e-01
  2.391277e+01    8.848564e-01
  2.392865e+01    9.036254e-01
  2.394452e+01    9.116246e-01
  2.396040e+01    8.777784e-01
  2.397627e+01    8.867619e-01
  2.399215e+01    8.967667e-01
  2.400802e+01    8.899072e-01
  2.402390e+01    8.971362e-01
  2.403978e+01    9.070030e-01
  2.405565e+01    8.933321e-01
  2.407153e+01    9.026807e-01
  2.408740e+01    8.963577e-01
  2.410328e+01    8.820122e-01
  2.411915e+01    8.782869e-01
  2.413503e+01    8.718593e-01
  2.415090e+01    8.732226e-01
  2.416678e+01    8.828142e-01
  2.418266e+01    8.854302e-01
  2.419853e+01    8.713289e-01
  2.421441e+01    8.742424e-01
  2.423028e+01    8.830380e-01
  2.424616e+01    8.778350e-01
  2.426203e+01    9.047170e-01
  2.427791e+01    8.822930e-01
  2.429378e+01    8.645687e-01
  2.430966e+01    8.838415e-01
  2.432554e+01    8.809393e-01
  2.434141e+01    9.026357e-01
  2.435729e+01    9.113202e-01
  2.437316e+01    8.935302e-01
  2.438904e+01    8.864461e-01
  2.440491e+01    8.960060e-01
  2.442079e+01    8.916836e-01
  2.443666e+01    9.212924e-01
  2.445254e+01    9.297733e-01
  2.446842e+01    8.846779e-01
  2.448429e+01    8.998803e-01
  2.450017e+01    8.705971e-01
  2.451604e+01    8.881493e-01
  2.453192e+01    9.059733e-01
  2.454779e+01    8.999475e-01
  2.456367e+01    8.940733e-01
  2.457954e+01    8.893203e-01
  2.459542e+01    9.082801e-01
  2.461130e+01    8.820567e-01
  2.462717e+01    8.681006e-01
  2.464305e+01    8.914696e-01
  2.465892e+01    8.902095e-01
  2.467480e+01    9.055034e-01
  2.469067e+01    9.028787e-01
  2.470655e+01    8.800492e-01
  2.472242e+01    8.972592e-01
  2.473830e+01    8.831257e-01
  2.475418e+01    8.711010e-01
  2.477005e+01    9.014720e-01
  2.478593e+01    8.935505e-01
  2.480180e+01    8.981699e-01
  2.481768e+01    8.720111e-01
  2.483355e+01    8.739923e-01
  2.484943e+01    8.704648e-01
  2.486530e+01    8.875003e-01
  2.488118e+01    9.105668e-01
  2.489706e+01    9.250935e-01
  2.491293e+01    9.003937e-01
  2.492881e+01    8.887782e-01
  2.494468e+01    8.776574e-01
  2.496056e+01    8.848137e-01
  2.497643e+01    9.002840e-01
  2.499231e+01    9.287547e-01
  2.500819e+01    9.254843e-01
  2.502406e+01    8.890914e-01
  2.503994e+01    8.873855e-01
  2.505581e+01    8.991950e-01
  2.507169e+01    9.026586e-01
  2.508756e+01    9.050262e-01
  2.510344e+01    9.046447e-01
  2.511931e+01    9.119326e-01
  2.513519e+01    9.045410e-01
  2.515107e+01    9.041387e-01
  2.516694e+01    9.034325e-01
  2.518282e+01    9.293920e-01
  2.519869e+01    9.392882e-01
  2.521457e+01    9.254639e-01
  2.523044e+01    9.322753e-01
  2.524632e+01    9.512634e-01
  2.526219e+01    9.607016e-01
  2.527807e+01    9.335781e-01
  2.529395e+01    9.494178e-01
  2.530982e+01    9.391935e-01
  2.532570e+01    9.551255e-01
  2.534157e+01    9.504923e-01
  2.535745e+01    9.669926e-01
  2.537332e+01    9.674737e-01
  2.538920e+01    9.922025e-01
  2.540507e+01    1.003718e+00
  2.542095e+01    1.001547e+00
  2.543683e+01    1.004418e+00
  2.545270e+01    1.001813e+00
  2.546858e+01    1.033822e+00
  2.548445e+01    1.043438e+00
  2.550033e+01    1.033716e+00
  2.551620e+01    1.048057e+00
  2.553208e+01    1.057787e+00
  2.554795e+01    1.098793e+00
  2.556383e+01    1.143873e+00
  2.557971e+01    1.178815e+00
  2.559558e+01    1.181665e+00
  2.561146e+01    1.203696e+00
  2.562733e+01    1.247737e+00
  2.564321e+01    1.294734e+00
  2.565908e+01    1.338877e+00
  2.567496e+01    1.400416e+00
  2.569083e+01    1.485442e+00
  2.570671e+01    1.570557e+00
  2.572259e+01    1.672991e+00
  2.573846e+01    1.846357e+00
  2.575434e+01    2.034425e+00
  2.577021e+01    2.240729e+00
  2.578609e+01    2.445636e+00
  2.580196e+01    2.776587e+00
  2.581784e+01    3.175312e+00
  2.583371e+01    3.602652e+00
  2.584959e+01    4.121452e+00
  2.586547e+01    4.615400e+00
  2.588134e+01    5.164875e+00
  2.589722e+01    5.776636e+00
  2.591309e+01    6.313695e+00
  2.592897e+01    6.709479e+00
  2.594484e+01    7.022543e+00
  2.596072e+01    7.111202e+00
  2.597660e+01    6.919025e+00
  2.599247e+01    6.533171e+00
  2.600835e+01    5.999223e+00
  2.602422e+01    5.300054e+00
  2.604010e+01    4.636958e+00
  2.605597e+01    3.973613e+00
  2.607185e+01    3.482495e+00
  2.608772e+01    3.027858e+00
  2.610360e+01    2.645116e+00
  2.611948e+01    2.349492e+00
  2.613535e+01    2.161927e+00
  2.615123e+01    1.933003e+00
  2.616710e+01    1.774166e+00
  2.618298e+01    1.684133e+00
  2.619885e+01    1.557108e+00
  2.621473e+01    1.458962e+00
  2.623060e+01    1.387621e+00
  2.624648e+01    1.340682e+00
  2.626236e+01    1.304622e+00
  2.627823e+01    1.266286e+00
  2.629411e+01    1.205178e+00
  2.630998e+01    1.201921e+00
  2.632586e+01    1.159775e+00
  2.634173e+01    1.122265e+00
  2.635761e+01    1.109443e+00
  2.637348e+01    1.086516e+00
  2.638936e+01    1.082136e+00
  2.640524e+01    1.047168e+00
  2.642111e+01    1.052192e+00
  2.643699e+01    1.022506e+00
  2.645286e+01    1.024418e+00
  2.646874e+01    1.012949e+00
  2.648461e+01    1.002556e+00
  2.650049e+01    1.003272e+00
  2.651636e+01    9.789160e-01
  2.653224e+01    9.814109e-01
  2.654812e+01    9.956500e-01
  2.656399e+01    9.723346e-01
  2.657987e+01    9.906108e-01
  2.659574e+01    9.901958e-01
  2.661162e+01    9.777182e-01
  2.662749e+01    9.690034e-01
  2.664337e+01    9.500749e-01
  2.665924e+01    9.371812e-01
  2.667512e+01    9.638426e-01
  2.669100e+01    9.860368e-01
  2.670687e+01    9.731698e-01
  2.672275e+01    9.648969e-01
  2.673862e+01    9.727368e-01
  2.675450e+01    9.617974e-01
  2.677037e+01    9.577210e-01
  2.678625e+01    9.790394e-01
  2.680212e+01    9.828458e-01
  2.681800e+01    9.792885e-01
  2.683388e+01    9.974763e-01
  2.684975e+01    1.001348e+00
  2.686563e+01    9.864575e-01
  2.688150e+01    1.000763e+00
  2.689738e+01    1.015267e+00
  2.691325e+01    1.002530e+00
  2.692913e+01    1.015899e+00
  2.694501e+01    1.019283e+00
  2.696088e+01    1.045967e+00
  2.697676e+01    1.051535e+00
  2.699263e+01    1.085174e+00
  2.700851e+01    1.118067e+00
  2.702438e+01    1.133417e+00
  2.704026e+01    1.188160e+00
  2.705613e+01    1.243142e+00
  2.707201e+01    1.318153e+00
  2.708789e+01    1.393177e+00
  2.710376e+01    1.523388e+00
  2.711964e+01    1.614841e+00
  2.713551e+01    1.707065e+00
  2.715139e+01    1.842374e+00
  2.716726e+01    1.974291e+00
  2.718314e+01    2.073583e+00
  2.719901e+01    2.114048e+00
  2.721489e+01    2.132308e+00
  2.723077e+01    2.110781e+00
  2.724664e+01    2.072471e+00
  2.726252e+01    1.967125e+00
  2.727839e+01    1.842055e+00
  2.729427e+01    1.702368e+00
  2.731014e+01    1.580019e+00
  2.732602e+01    1.467593e+00
  2.734189e+01    1.350940e+00
  2.735777e+01    1.286968e+00
  2.737365e+01    1.223295e+00
  2.738952e+01    1.168422e+00
  2.740540e+01    1.124826e+00
  2.742127e+01    1.079398e+00
  2.743715e+01    1.048835e+00
  2.745302e+01    1.038429e+00
  2.746890e+01    1.028971e+00
  2.748477e+01    9.945710e-01
  2.750065e+01    9.884562e-01
  2.751653e+01    9.609434e-01
  2.753240e+01    9.507397e-01
  2.754828e+01    9.592238e-01
  2.756415e+01    9.452692e-01
  2.758003e+01    9.199045e-01
  2.759590e+01    9.289600e-01
  2.761178e+01    9.193999e-01
  2.762765e+01    9.239584e-01
  2.764353e+01    9.104949e-01
  2.765941e+01    8.843446e-01
  2.767528e+01    9.053959e-01
  2.769116e+01    8.996978e-01
  2.770703e+01    9.113194e-01
  2.772291e+01    8.952985e-01
  2.773878e+01    8.978809e-01
  2.775466e+01    9.015752e-01
  2.777054e+01    9.098001e-01
  2.778641e+01    8.902172e-01
  2.780229e+01    8.846013e-01
  2.781816e+01    8.821565e-01
  2.783404e+01    8.898737e-01
  2.784991e+01    8.937570e-01
  2.786579e+01    8.942612e-01
  2.788166e+01    8.849746e-01
  2.789754e+01    8.664469e-01
  2.791342e+01    8.619518e-01
  2.792929e+01    8.568392e-01
  2.794517e+01    8.604757e-01
  2.796104e+01    8.845581e-01
  2.797692e+01    8.864465e-01
  2.799279e+01    8.872140e-01
  2.800867e+01    8.951562e-01
  2.802454e+01    8.595543e-01
  2.804042e+01    8.696189e-01
  2.805630e+01    8.831182e-01
  2.807217e+01    8.691522e-01
  2.808805e+01    8.524910e-01
  2.810392e+01    8.554040e-01
  2.811980e+01    8.466226e-01
  2.813567e+01    8.569030e-01
  2.815155e+01    8.531530e-01
  2.816742e+01    8.427901e-01
  2.818330e+01    8.395038e-01
  2.819918e+01    8.533216e-01
  2.821505e+01    8.752710e-01
  2.823093e+01    8.699490e-01
  2.824680e+01    8.434268e-01
  2.826268e+01    8.460152e-01
  2.827855e+01    8.709508e-01
  2.829443e+01    8.719328e-01
  2.831030e+01    8.603666e-01
  2.832618e+01    8.490173e-01
  2.834206e+01    8.448071e-01
  2.835793e+01    8.610588e-01
  2.837381e+01    8.693556e-01
  2.838968e+01    8.745118e-01
  2.840556e+01    8.466484e-01
  2.842143e+01    8.024953e-01
  2.843731e+01    8.223539e-01
  2.845318e+01    8.649402e-01
  2.846906e+01    8.562333e-01
  2.848494e+01    8.247257e-01
  2.850081e+01    8.352315e-01
  2.851669e+01    8.558539e-01
  2.853256e+01    8.595074e-01
  2.854844e+01    8.404304e-01
  2.856431e+01    8.406113e-01
  2.858019e+01    8.663793e-01
  2.859606e+01    8.347479e-01
  2.861194e+01    8.158953e-01
  2.862782e+01    8.470276e-01
  2.864369e+01    8.296770e-01
  2.865957e+01    8.375122e-01
  2.867544e+01    8.506238e-01
  2.869132e+01    8.323544e-01
  2.870719e+01    8.371184e-01
  2.872307e+01    8.277544e-01
  2.873895e+01    8.288879e-01
  2.875482e+01    8.292788e-01
  2.877070e+01    8.149336e-01
  2.878657e+01    8.339784e-01
  2.880245e+01    8.403261e-01
  2.881832e+01    8.413010e-01
  2.883420e+01    8.536089e-01
  2.885007e+01    8.278171e-01
  2.886595e+01    8.446622e-01
  2.888183e+01    8.442349e-01
  2.889770e+01    8.191796e-01
  2.891358e+01    8.024053e-01
  2.892945e+01    8.076831e-01
  2.894533e+01    8.094447e-01
  2.896120e+01    8.157502e-01
  2.897708e+01    8.307908e-01
  2.899295e+01    8.441442e-01
  2.900883e+01    8.135221e-01
  2.902471e+01    8.171822e-01
  2.904058e+01    8.303159e-01
  2.905646e+01    8.133292e-01
  2.907233e+01    8.036303e-01
  2.908821e+01    7.964536e-01
  2.910408e+01    7.910524e-01
  2.911996e+01    7.894524e-01
  2.913583e+01    7.815568e-01
  2.915171e+01    7.883806e-01
  2.916759e+01    7.876123e-01
  2.918346e+01    7.955109e-01
  2.919934e+01    8.029158e-01
  2.921521e+01    8.006294e-01
  2.923109e+01    7.918205e-01
  2.924696e+01    7.950746e-01
  2.926284e+01    8.072031e-01
  2.927871e+01    8.242664e-01
  2.929459e+01    8.067178e-01
  2.931047e+01    7.966959e-01
  2.932634e+01    8.062218e-01
  2.934222e+01    8.327242e-01
  2.935809e+01    8.082436e-01
  2.937397e+01    8.291335e-01
  2.938984e+01    8.174188e-01
  2.940572e+01    8.124653e-01
  2.942159e+01    7.986704e-01
  2.943747e+01    7.969221e-01
  2.945335e+01    8.073553e-01
  2.946922e+01    8.034711e-01
  2.948510e+01    8.024464e-01
  2.950097e+01    7.953680e-01
  2.951685e+01    7.927309e-01
  2.953272e+01    7.851588e-01
  2.954860e+01    7.912521e-01
  2.956447e+01    8.046784e-01
  2.958035e+01    7.770075e-01
  2.959623e+01    7.756785e-01
  2.961210e+01    7.945672e-01
  2.962798e+01    7.864935e-01
  2.964385e+01    7.910495e-01
  2.965973e+01    7.923337e-01
  2.967560e+01    8.100804e-01
  2.969148e+01    7.943156e-01
  2.970736e+01    8.052764e-01
  2.972323e+01    7.870303e-01
  2.973911e+01    7.959701e-01
  2.975498e+01    7.857928e-01
  2.977086e+01    7.884437e-01
  2.978673e+01    7.995035e-01
  2.980261e+01    7.848450e-01
  2.981848e+01    7.895641e-01
  2.983436e+01    8.036656e-01
  2.985024e+01    8.040000e-01
  2.986611e+01    7.912899e-01
  2.988199e+01    7.871162e-01
  2.989786e+01    8.095862e-01
  2.991374e+01    8.188026e-01
  2.992961e+01    7.927529e-01
  2.994549e+01    7.941855e-01
  2.996136e+01    7.876142e-01
  2.997724e+01    7.749852e-01
  2.999312e+01    7.918664e-01
  3.000899e+01    7.962741e-01
  3.002487e+01    8.165539e-01
  3.004074e+01    8.202956e-01
  3.005662e+01    8.193016e-01
  3.007249e+01    8.114346e-01
  3.008837e+01    8.028120e-01
  3.010424e+01    8.000116e-01
  3.012012e+01    7.978724e-01
  3.013600e+01    7.768008e-01
  3.015187e+01    7.631561e-01
  3.016775e+01    7.817351e-01
  3.018362e+01    7.899218e-01
  3.019950e+01    7.830763e-01
  3.021537e+01    7.791733e-01
  3.023125e+01    7.584994e-01
  3.024712e+01    7.929127e-01
  3.026300e+01    7.856337e-01
  3.027888e+01    7.960370e-01
  3.029475e+01    8.157771e-01
  3.031063e+01    7.988836e-01
  3.032650e+01    7.874361e-01
  3.034238e+01    7.880060e-01
  3.035825e+01    8.019497e-01
  3.037413e+01    7.877789e-01
  3.039000e+01    7.888497e-01
  3.040588e+01    8.080715e-01
  3.042176e+01    7.978125e-01
  3.043763e+01    7.921969e-01
  3.045351e+01    8.035672e-01
  3.046938e+01    7.895142e-01
  3.048526e+01    7.890322e-01
  3.050113e+01    7.955664e-01
  3.051701e+01    7.873281e-01
  3.053288e+01    7.698802e-01
  3.054876e+01    7.612881e-01
  3.056464e+01    8.026619e-01
  3.058051e+01    7.959983e-01
  3.059639e+01    7.917660e-01
  3.061226e+01    7.807140e-01
  3.062814e+01    7.882305e-01
  3.064401e+01    7.755484e-01
  3.065989e+01    7.810913e-01
  3.067577e+01    7.776031e-01
  3.069164e+01    7.657769e-01
  3.070752e+01    7.866471e-01
  3.072339e+01    8.112140e-01
  3.073927e+01    7.854905e-01
  3.075514e+01    7.820327e-01
  3.077102e+01    7.916672e-01
  3.078689e+01    7.962448e-01
  3.080277e+01    7.753605e-01
  3.081865e+01    7.651219e-01
  3.083452e+01    7.620051e-01
  3.085040e+01    7.853059e-01
  3.086627e+01    7.923845e-01
  3.088215e+01    8.008485e-01
  3.089802e+01    7.839149e-01
  3.091390e+01    7.702210e-01
  3.092977e+01    7.824844e-01
  3.094565e+01    7.841021e-01
  3.096153e+01    7.781483e-01
  3.097740e+01    7.715226e-01
  3.099328e+01    7.650084e-01
  3.100915e+01    7.821055e-01
  3.102503e+01    7.925318e-01
  3.104090e+01    7.881095e-01
  3.105678e+01    7.748182e-01
  3.107265e+01    7.855904e-01
  3.108853e+01    7.975250e-01
  3.110441e+01    7.873144e-01
  3.112028e+01    7.812433e-01
  3.113616e+01    7.710160e-01
  3.115203e+01    7.693188e-01
  3.116791e+01    7.798858e-01
  3.118378e+01    7.802598e-01
  3.119966e+01    7.751430e-01
  3.121553e+01    7.966162e-01
  3.123141e+01    7.672107e-01
  3.124729e+01    7.789111e-01
  3.126316e+01    7.914167e-01
  3.127904e+01    7.986580e-01
  3.129491e+01    8.003840e-01
  3.131079e+01    8.063546e-01
  3.132666e+01    8.048453e-01
  3.134254e+01    8.063554e-01
  3.135841e+01    8.131330e-01
  3.137429e+01    8.017734e-01
  3.139017e+01    8.143649e-01
  3.140604e+01    8.112587e-01
  3.142192e+01    7.939505e-01
  3.143779e+01    8.014802e-01
  3.145367e+01    8.144428e-01
  3.146954e+01    8.221560e-01
  3.148542e+01    8.228357e-01
  3.150129e+01    8.304107e-01
  3.151717e+01    8.441891e-01
  3.153305e+01    8.466970e-01
  3.154892e+01    8.499984e-01
  3.156480e+01    8.528671e-01
  3.158067e+01    8.470762e-01
  3.159655e+01    8.622255e-01
  3.161242e+01    8.740710e-01
  3.162830e+01    8.919250e-01
  3.164418e+01    9.239208e-01
  3.166005e+01    9.283988e-01
  3.167593e+01    9.493557e-01
  3.169180e+01    9.931447e-01
  3.170768e+01    1.010300e+00
  3.172355e+01    1.041698e+00
  3.173943e+01    1.071781e+00
  3.175530e+01    1.148876e+00
  3.177118e+01    1.234767e+00
  3.178706e+01    1.334696e+00
  3.180293e+01    1.438960e+00
  3.181881e+01    1.542263e+00
  3.183468e+01    1.697993e+00
  3.185056e+01    1.795613e+00
  3.186643e+01    1.934746e+00
  3.188231e+01    2.020044e+00
  3.189818e+01    2.084110e+00
  3.191406e+01    2.078396e+00
  3.192994e+01    2.010634e+00
  3.194581e+01    1.946474e+00
  3.196169e+01    1.857253e+00
  3.197756e+01    1.719609e+00
  3.199344e+01    1.549152e+00
  3.200931e+01    1.425058e+00
  3.202519e+01    1.285275e+00
  3.204106e+01    1.193380e+00
  3.205694e+01    1.155454e+00
  3.207282e+01    1.116075e+00
  3.208869e+01    1.040606e+00
  3.210457e+01    9.796181e-01
  3.212044e+01    9.554181e-01
  3.213632e+01    9.214089e-01
  3.215219e+01    9.052636e-01
  3.216807e+01    8.882604e-01
  3.218394e+01    8.740851e-01
  3.219982e+01    8.446100e-01
  3.221570e+01    8.351139e-01
  3.223157e+01    8.477224e-01
  3.224745e+01    8.186568e-01
  3.226332e+01    8.254238e-01
  3.227920e+01    8.037567e-01
  3.229507e+01    8.015150e-01
  3.231095e+01    7.914833e-01
  3.232682e+01    7.893470e-01
  3.234270e+01    7.779791e-01
  3.235858e+01    7.794958e-01
  3.237445e+01    7.948410e-01
  3.239033e+01    7.848328e-01
  3.240620e+01    8.077528e-01
  3.242208e+01    8.004714e-01
  3.243795e+01    7.789873e-01
  3.245383e+01    7.772025e-01
  3.246970e+01    7.776503e-01
  3.248558e+01    7.786767e-01
  3.250146e+01    7.838176e-01
  3.251733e+01    7.912650e-01
  3.253321e+01    7.770234e-01
  3.254908e+01    7.777965e-01
