# == pyFAI calibration ==
# Distance Sample to Detector: 0.3999999939076516 m
# PONI: 9.750e-02, 1.135e-01 m
# Rotations: -0.000175 0.000000 -0.000000 rad
# 
# == Fit2d calibration ==
# Distance Sample-beamCenter: 400.000 mm
# Center: x=1514.000, y=1300.000 pix
# Tilt: 0.010 deg  TiltPlanRot: 0.010 deg
# 
# Detector Detector	 Spline= None	 PixelSize= 7.500e-05, 7.500e-05 m
#    Detector has a mask: False 
#    Detector has a dark current: False 
#    detector has a flat field: False 
# 
# Wavelength: 6.888e-11 m
# Mask applied: user provided
# Dark current applied: False
# Flat field applied: False
# Polarization factor: 0.99
# Normalization factor: 1.0
# --> /home/myspot/data/2024_07_Rosario/Ru-CGO-ex/2024-07-27_003_Ru-CGO-ex_Reaction_dwell_000023_data_000156.dat
#       q_nm^-1             I 
  2.003187e-02    0.000000e+00
  3.590745e-02    6.855699e-02
  5.178302e-02    2.321642e-01
  6.765859e-02    1.186557e-01
  8.353417e-02    1.067285e-01
  9.940974e-02    1.498847e-01
  1.152853e-01    8.813712e-02
  1.311609e-01    1.243245e-01
  1.470365e-01    2.939791e-02
  1.629120e-01    0.000000e+00
  1.787876e-01    3.680281e-03
  1.946632e-01    3.503036e-02
  2.105388e-01    7.950107e-02
  2.264143e-01    8.735511e-02
  2.422899e-01    5.194215e-02
  2.581655e-01    8.394971e-02
  2.740411e-01    2.761928e-02
  2.899166e-01    1.492969e-02
  3.057922e-01    5.217445e-02
  3.216678e-01    3.305022e-02
  3.375433e-01    2.972993e-02
  3.534189e-01    6.923559e-02
  3.692945e-01    6.704774e-02
  3.851701e-01    5.083336e-02
  4.010456e-01    2.787139e-02
  4.169212e-01    4.064220e-02
  4.327968e-01    5.719675e-02
  4.486724e-01    7.214623e-02
  4.645479e-01    4.071789e-02
  4.804235e-01    3.380543e-02
  4.962991e-01    4.675186e-02
  5.121747e-01    1.842499e-02
  5.280502e-01    3.755674e-02
  5.439258e-01    4.756982e-02
  5.598014e-01    2.644216e-02
  5.756770e-01    4.567754e-02
  5.915525e-01    2.844889e-02
  6.074281e-01    1.592544e-02
  6.233037e-01    6.176671e-02
  6.391793e-01    5.482690e-02
  6.550548e-01    2.507802e-02
  6.709304e-01    2.935085e-02
  6.868060e-01    1.738356e-02
  7.026815e-01    3.093691e-02
  7.185571e-01    2.553155e-02
  7.344327e-01    4.362278e-02
  7.503083e-01    6.777246e-02
  7.661838e-01    1.016658e-01
  7.820594e-01    9.914705e-02
  7.979350e-01    1.203612e-01
  8.138106e-01    1.629594e-01
  8.296861e-01    2.693851e-01
  8.455617e-01    3.247986e-01
  8.614373e-01    3.984571e-01
  8.773129e-01    4.985372e-01
  8.931884e-01    6.013293e-01
  9.090640e-01    6.202062e-01
  9.249396e-01    7.185193e-01
  9.408152e-01    8.752976e-01
  9.566907e-01    9.298479e-01
  9.725663e-01    1.055871e+00
  9.884419e-01    1.176711e+00
  1.004317e+00    1.209820e+00
  1.020193e+00    1.279075e+00
  1.036069e+00    1.385453e+00
  1.051944e+00    1.395214e+00
  1.067820e+00    1.431949e+00
  1.083695e+00    1.423355e+00
  1.099571e+00    1.543553e+00
  1.115446e+00    1.560032e+00
  1.131322e+00    1.561666e+00
  1.147198e+00    1.599873e+00
  1.163073e+00    1.592144e+00
  1.178949e+00    1.664858e+00
  1.194824e+00    1.757480e+00
  1.210700e+00    1.924399e+00
  1.226575e+00    2.215523e+00
  1.242451e+00    2.408977e+00
  1.258327e+00    2.522998e+00
  1.274202e+00    2.484181e+00
  1.290078e+00    2.590563e+00
  1.305953e+00    2.732268e+00
  1.321829e+00    2.746343e+00
  1.337705e+00    2.658766e+00
  1.353580e+00    2.777493e+00
  1.369456e+00    2.715544e+00
  1.385331e+00    2.770868e+00
  1.401207e+00    2.996782e+00
  1.417082e+00    3.068417e+00
  1.432958e+00    2.912819e+00
  1.448834e+00    2.843622e+00
  1.464709e+00    2.962473e+00
  1.480585e+00    2.942323e+00
  1.496460e+00    3.030487e+00
  1.512336e+00    3.186765e+00
  1.528211e+00    3.142521e+00
  1.544087e+00    3.249324e+00
  1.559963e+00    3.281218e+00
  1.575838e+00    3.108694e+00
  1.591714e+00    3.148518e+00
  1.607589e+00    3.192382e+00
  1.623465e+00    3.119577e+00
  1.639340e+00    2.975869e+00
  1.655216e+00    3.141458e+00
  1.671092e+00    3.249516e+00
  1.686967e+00    3.181426e+00
  1.702843e+00    3.089381e+00
  1.718718e+00    3.019248e+00
  1.734594e+00    3.106061e+00
  1.750469e+00    3.098369e+00
  1.766345e+00    2.954207e+00
  1.782221e+00    3.062877e+00
  1.798096e+00    3.187713e+00
  1.813972e+00    3.210145e+00
  1.829847e+00    3.083175e+00
  1.845723e+00    3.116354e+00
  1.861598e+00    3.172303e+00
  1.877474e+00    3.114432e+00
  1.893350e+00    3.028533e+00
  1.909225e+00    3.048995e+00
  1.925101e+00    2.947367e+00
  1.940976e+00    3.072517e+00
  1.956852e+00    3.170576e+00
  1.972727e+00    3.031618e+00
  1.988603e+00    2.959996e+00
  2.004479e+00    2.970548e+00
  2.020354e+00    3.073296e+00
  2.036230e+00    3.109592e+00
  2.052105e+00    3.151345e+00
  2.067981e+00    3.141893e+00
  2.083856e+00    3.133221e+00
  2.099732e+00    3.088153e+00
  2.115608e+00    3.009636e+00
  2.131483e+00    3.030641e+00
  2.147359e+00    3.072525e+00
  2.163234e+00    3.052703e+00
  2.179110e+00    3.088580e+00
  2.194985e+00    3.174844e+00
  2.210861e+00    3.110446e+00
  2.226737e+00    3.131665e+00
  2.242612e+00    3.151461e+00
  2.258488e+00    3.107225e+00
  2.274363e+00    3.106384e+00
  2.290239e+00    3.120029e+00
  2.306115e+00    3.083553e+00
  2.321990e+00    3.024139e+00
  2.337866e+00    3.116486e+00
  2.353741e+00    3.114592e+00
  2.369617e+00    3.326132e+00
  2.385492e+00    3.284652e+00
  2.401368e+00    3.212968e+00
  2.417244e+00    3.255373e+00
  2.433119e+00    3.212875e+00
  2.448995e+00    3.171834e+00
  2.464870e+00    3.101258e+00
  2.480746e+00    3.083307e+00
  2.496621e+00    3.164222e+00
  2.512497e+00    3.168227e+00
  2.528373e+00    3.166306e+00
  2.544248e+00    3.078702e+00
  2.560124e+00    3.221675e+00
  2.575999e+00    3.188986e+00
  2.591875e+00    3.149474e+00
  2.607750e+00    3.104499e+00
  2.623626e+00    3.146093e+00
  2.639502e+00    3.268449e+00
  2.655377e+00    3.258983e+00
  2.671253e+00    3.213459e+00
  2.687128e+00    3.164202e+00
  2.703004e+00    3.234001e+00
  2.718879e+00    3.188212e+00
  2.734755e+00    3.208506e+00
  2.750631e+00    3.249303e+00
  2.766506e+00    3.343409e+00
  2.782382e+00    3.383143e+00
  2.798257e+00    3.292171e+00
  2.814133e+00    3.204903e+00
  2.830008e+00    3.217143e+00
  2.845884e+00    3.167112e+00
  2.861760e+00    3.261851e+00
  2.877635e+00    3.288238e+00
  2.893511e+00    3.248372e+00
  2.909386e+00    3.277220e+00
  2.925262e+00    3.288064e+00
  2.941137e+00    3.282320e+00
  2.957013e+00    3.349579e+00
  2.972889e+00    3.344523e+00
  2.988764e+00    3.292666e+00
  3.004640e+00    3.390120e+00
  3.020515e+00    3.341681e+00
  3.036391e+00    3.323749e+00
  3.052266e+00    3.341708e+00
  3.068142e+00    3.397151e+00
  3.084018e+00    3.263733e+00
  3.099893e+00    3.310679e+00
  3.115769e+00    3.272658e+00
  3.131644e+00    3.332793e+00
  3.147520e+00    3.331872e+00
  3.163395e+00    3.310609e+00
  3.179271e+00    3.414488e+00
  3.195147e+00    3.310005e+00
  3.211022e+00    3.366402e+00
  3.226898e+00    3.505493e+00
  3.242773e+00    3.450222e+00
  3.258649e+00    3.386602e+00
  3.274525e+00    3.295882e+00
  3.290400e+00    3.285418e+00
  3.306276e+00    3.355110e+00
  3.322151e+00    3.378408e+00
  3.338027e+00    3.307859e+00
  3.353902e+00    3.363147e+00
  3.369778e+00    3.368249e+00
  3.385654e+00    3.390327e+00
  3.401529e+00    3.439807e+00
  3.417405e+00    3.342520e+00
  3.433280e+00    3.459755e+00
  3.449156e+00    3.465844e+00
  3.465031e+00    3.391990e+00
  3.480907e+00    3.492276e+00
  3.496783e+00    3.468678e+00
  3.512658e+00    3.444747e+00
  3.528534e+00    3.546429e+00
  3.544409e+00    3.486961e+00
  3.560285e+00    3.401844e+00
  3.576160e+00    3.448885e+00
  3.592036e+00    3.388945e+00
  3.607912e+00    3.419895e+00
  3.623787e+00    3.384136e+00
  3.639663e+00    3.408269e+00
  3.655538e+00    3.459206e+00
  3.671414e+00    3.472664e+00
  3.687289e+00    3.381012e+00
  3.703165e+00    3.428435e+00
  3.719041e+00    3.450379e+00
  3.734916e+00    3.462655e+00
  3.750792e+00    3.477518e+00
  3.766667e+00    3.457851e+00
  3.782543e+00    3.425749e+00
  3.798418e+00    3.439179e+00
  3.814294e+00    3.341180e+00
  3.830170e+00    3.452296e+00
  3.846045e+00    3.523278e+00
  3.861921e+00    3.456045e+00
  3.877796e+00    3.546394e+00
  3.893672e+00    3.529581e+00
  3.909547e+00    3.501482e+00
  3.925423e+00    3.499140e+00
  3.941299e+00    3.454899e+00
  3.957174e+00    3.605828e+00
  3.973050e+00    3.482563e+00
  3.988925e+00    3.438091e+00
  4.004801e+00    3.436286e+00
  4.020676e+00    3.541157e+00
  4.036552e+00    3.554687e+00
  4.052428e+00    3.533679e+00
  4.068303e+00    3.581412e+00
  4.084179e+00    3.544541e+00
  4.100054e+00    3.437403e+00
  4.115930e+00    3.471359e+00
  4.131806e+00    3.559741e+00
  4.147681e+00    3.437491e+00
  4.163557e+00    3.552462e+00
  4.179432e+00    3.657246e+00
  4.195308e+00    3.535488e+00
  4.211183e+00    3.510095e+00
  4.227059e+00    3.480905e+00
  4.242935e+00    3.576307e+00
  4.258810e+00    3.532158e+00
  4.274686e+00    3.534388e+00
  4.290561e+00    3.494236e+00
  4.306437e+00    3.485793e+00
  4.322312e+00    3.560784e+00
  4.338188e+00    3.582857e+00
  4.354064e+00    3.539889e+00
  4.369939e+00    3.592923e+00
  4.385815e+00    3.647383e+00
  4.401690e+00    3.739814e+00
  4.417566e+00    3.679448e+00
  4.433441e+00    3.626348e+00
  4.449317e+00    3.578653e+00
  4.465193e+00    3.607303e+00
  4.481068e+00    3.624610e+00
  4.496944e+00    3.576302e+00
  4.512819e+00    3.601887e+00
  4.528695e+00    3.531672e+00
  4.544570e+00    3.560534e+00
  4.560446e+00    3.572253e+00
  4.576322e+00    3.490073e+00
  4.592197e+00    3.574692e+00
  4.608073e+00    3.625341e+00
  4.623948e+00    3.644736e+00
  4.639824e+00    3.622890e+00
  4.655699e+00    3.524206e+00
  4.671575e+00    3.597766e+00
  4.687451e+00    3.619178e+00
  4.703326e+00    3.690138e+00
  4.719202e+00    3.605447e+00
  4.735077e+00    3.542697e+00
  4.750953e+00    3.600044e+00
  4.766828e+00    3.623938e+00
  4.782704e+00    3.629442e+00
  4.798580e+00    3.639000e+00
  4.814455e+00    3.646091e+00
  4.830331e+00    3.670176e+00
  4.846206e+00    3.594543e+00
  4.862082e+00    3.673017e+00
  4.877957e+00    3.624903e+00
  4.893833e+00    3.733850e+00
  4.909709e+00    3.630819e+00
  4.925584e+00    3.640893e+00
  4.941460e+00    3.627558e+00
  4.957335e+00    3.654611e+00
  4.973211e+00    3.662669e+00
  4.989086e+00    3.613461e+00
  5.004962e+00    3.588181e+00
  5.020838e+00    3.548836e+00
  5.036713e+00    3.613991e+00
  5.052589e+00    3.657055e+00
  5.068464e+00    3.632689e+00
  5.084340e+00    3.623776e+00
  5.100216e+00    3.636710e+00
  5.116091e+00    3.630876e+00
  5.131967e+00    3.569210e+00
  5.147842e+00    3.570869e+00
  5.163718e+00    3.562932e+00
  5.179593e+00    3.574642e+00
  5.195469e+00    3.516331e+00
  5.211345e+00    3.654271e+00
  5.227220e+00    3.615845e+00
  5.243096e+00    3.546572e+00
  5.258971e+00    3.552001e+00
  5.274847e+00    3.614520e+00
  5.290722e+00    3.654976e+00
  5.306598e+00    3.658932e+00
  5.322474e+00    3.509271e+00
  5.338349e+00    3.623933e+00
  5.354225e+00    3.690311e+00
  5.370100e+00    3.589042e+00
  5.385976e+00    3.626669e+00
  5.401851e+00    3.583362e+00
  5.417727e+00    3.652421e+00
  5.433603e+00    3.641349e+00
  5.449478e+00    3.529402e+00
  5.465354e+00    3.658527e+00
  5.481229e+00    3.632946e+00
  5.497105e+00    3.533470e+00
  5.512980e+00    3.513822e+00
  5.528856e+00    3.603023e+00
  5.544732e+00    3.488015e+00
  5.560607e+00    3.388576e+00
  5.576483e+00    3.497968e+00
  5.592358e+00    3.546043e+00
  5.608234e+00    3.561367e+00
  5.624109e+00    3.523873e+00
  5.639985e+00    3.576117e+00
  5.655861e+00    3.603085e+00
  5.671736e+00    3.646576e+00
  5.687612e+00    3.558606e+00
  5.703487e+00    3.533226e+00
  5.719363e+00    3.612552e+00
  5.735238e+00    3.594265e+00
  5.751114e+00    3.601607e+00
  5.766990e+00    3.594512e+00
  5.782865e+00    3.609156e+00
  5.798741e+00    3.476907e+00
  5.814616e+00    3.531594e+00
  5.830492e+00    3.680163e+00
  5.846367e+00    3.684843e+00
  5.862243e+00    3.537122e+00
  5.878119e+00    3.472759e+00
  5.893994e+00    3.552988e+00
  5.909870e+00    3.542752e+00
  5.925745e+00    3.558406e+00
  5.941621e+00    3.646317e+00
  5.957497e+00    3.550572e+00
  5.973372e+00    3.481657e+00
  5.989248e+00    3.454252e+00
  6.005123e+00    3.474668e+00
  6.020999e+00    3.419073e+00
  6.036874e+00    3.439879e+00
  6.052750e+00    3.566611e+00
  6.068626e+00    3.602927e+00
  6.084501e+00    3.593183e+00
  6.100377e+00    3.524024e+00
  6.116252e+00    3.458818e+00
  6.132128e+00    3.570564e+00
  6.148003e+00    3.580534e+00
  6.163879e+00    3.558600e+00
  6.179755e+00    3.501331e+00
  6.195630e+00    3.571386e+00
  6.211506e+00    3.495522e+00
  6.227381e+00    3.474795e+00
  6.243257e+00    3.447335e+00
  6.259132e+00    3.486284e+00
  6.275008e+00    3.526465e+00
  6.290884e+00    3.622609e+00
  6.306759e+00    3.594276e+00
  6.322635e+00    3.482983e+00
  6.338510e+00    3.411597e+00
  6.354386e+00    3.522499e+00
  6.370261e+00    3.456205e+00
  6.386137e+00    3.506398e+00
  6.402013e+00    3.534559e+00
  6.417888e+00    3.519886e+00
  6.433764e+00    3.463608e+00
  6.449639e+00    3.571698e+00
  6.465515e+00    3.570730e+00
  6.481390e+00    3.556100e+00
  6.497266e+00    3.501101e+00
  6.513142e+00    3.544055e+00
  6.529017e+00    3.587708e+00
  6.544893e+00    3.529240e+00
  6.560768e+00    3.515223e+00
  6.576644e+00    3.561741e+00
  6.592519e+00    3.534939e+00
  6.608395e+00    3.569740e+00
  6.624271e+00    3.636306e+00
  6.640146e+00    3.577174e+00
  6.656022e+00    3.529418e+00
  6.671897e+00    3.560338e+00
  6.687773e+00    3.599577e+00
  6.703648e+00    3.527306e+00
  6.719524e+00    3.569599e+00
  6.735400e+00    3.542440e+00
  6.751275e+00    3.536225e+00
  6.767151e+00    3.502871e+00
  6.783026e+00    3.500238e+00
  6.798902e+00    3.439232e+00
  6.814777e+00    3.490538e+00
  6.830653e+00    3.578146e+00
  6.846529e+00    3.555458e+00
  6.862404e+00    3.413798e+00
  6.878280e+00    3.418740e+00
  6.894155e+00    3.491420e+00
  6.910031e+00    3.547200e+00
  6.925907e+00    3.545404e+00
  6.941782e+00    3.488853e+00
  6.957658e+00    3.489335e+00
  6.973533e+00    3.495281e+00
  6.989409e+00    3.470238e+00
  7.005284e+00    3.502154e+00
  7.021160e+00    3.521590e+00
  7.037036e+00    3.460468e+00
  7.052911e+00    3.510918e+00
  7.068787e+00    3.541152e+00
  7.084662e+00    3.545027e+00
  7.100538e+00    3.490680e+00
  7.116413e+00    3.506157e+00
  7.132289e+00    3.513093e+00
  7.148165e+00    3.541197e+00
  7.164040e+00    3.483391e+00
  7.179916e+00    3.484862e+00
  7.195791e+00    3.479335e+00
  7.211667e+00    3.460805e+00
  7.227542e+00    3.443337e+00
  7.243418e+00    3.473733e+00
  7.259294e+00    3.502275e+00
  7.275169e+00    3.515208e+00
  7.291045e+00    3.438370e+00
  7.306920e+00    3.432416e+00
  7.322796e+00    3.485583e+00
  7.338671e+00    3.510182e+00
  7.354547e+00    3.509973e+00
  7.370423e+00    3.537955e+00
  7.386298e+00    3.488892e+00
  7.402174e+00    3.407168e+00
  7.418049e+00    3.504259e+00
  7.433925e+00    3.490743e+00
  7.449800e+00    3.457699e+00
  7.465676e+00    3.487716e+00
  7.481552e+00    3.485189e+00
  7.497427e+00    3.497298e+00
  7.513303e+00    3.436436e+00
  7.529178e+00    3.490629e+00
  7.545054e+00    3.519753e+00
  7.560929e+00    3.485135e+00
  7.576805e+00    3.430913e+00
  7.592681e+00    3.463312e+00
  7.608556e+00    3.447997e+00
  7.624432e+00    3.401710e+00
  7.640307e+00    3.431121e+00
  7.656183e+00    3.477858e+00
  7.672058e+00    3.482699e+00
  7.687934e+00    3.449659e+00
  7.703810e+00    3.441913e+00
  7.719685e+00    3.364563e+00
  7.735561e+00    3.383350e+00
  7.751436e+00    3.428516e+00
  7.767312e+00    3.453324e+00
  7.783187e+00    3.514437e+00
  7.799063e+00    3.443835e+00
  7.814939e+00    3.433093e+00
  7.830814e+00    3.434478e+00
  7.846690e+00    3.460814e+00
  7.862565e+00    3.482501e+00
  7.878441e+00    3.517223e+00
  7.894317e+00    3.466704e+00
  7.910192e+00    3.424943e+00
  7.926068e+00    3.402131e+00
  7.941943e+00    3.432770e+00
  7.957819e+00    3.356844e+00
  7.973694e+00    3.414982e+00
  7.989570e+00    3.358231e+00
  8.005446e+00    3.379548e+00
  8.021321e+00    3.312492e+00
  8.037197e+00    3.405108e+00
  8.053072e+00    3.422182e+00
  8.068948e+00    3.330965e+00
  8.084823e+00    3.426263e+00
  8.100699e+00    3.453110e+00
  8.116575e+00    3.447719e+00
  8.132450e+00    3.410857e+00
  8.148326e+00    3.446951e+00
  8.164201e+00    3.476310e+00
  8.180077e+00    3.421543e+00
  8.195952e+00    3.398306e+00
  8.211828e+00    3.513429e+00
  8.227704e+00    3.513136e+00
  8.243579e+00    3.504891e+00
  8.259455e+00    3.448431e+00
  8.275330e+00    3.408732e+00
  8.291206e+00    3.426348e+00
  8.307081e+00    3.431837e+00
  8.322957e+00    3.343960e+00
  8.338833e+00    3.363778e+00
  8.354708e+00    3.362851e+00
  8.370584e+00    3.346557e+00
  8.386459e+00    3.309303e+00
  8.402335e+00    3.370713e+00
  8.418210e+00    3.385285e+00
  8.434086e+00    3.348541e+00
  8.449962e+00    3.337070e+00
  8.465837e+00    3.327246e+00
  8.481713e+00    3.381461e+00
  8.497588e+00    3.399855e+00
  8.513464e+00    3.361180e+00
  8.529339e+00    3.277121e+00
  8.545215e+00    3.281342e+00
  8.561091e+00    3.343471e+00
  8.576966e+00    3.330914e+00
  8.592842e+00    3.342933e+00
  8.608717e+00    3.357339e+00
  8.624593e+00    3.316099e+00
  8.640468e+00    3.280403e+00
  8.656344e+00    3.258623e+00
  8.672220e+00    3.255604e+00
  8.688095e+00    3.290334e+00
  8.703971e+00    3.380145e+00
  8.719846e+00    3.380747e+00
  8.735722e+00    3.317886e+00
  8.751598e+00    3.308863e+00
  8.767473e+00    3.309426e+00
  8.783349e+00    3.298255e+00
  8.799224e+00    3.273931e+00
  8.815100e+00    3.294814e+00
  8.830975e+00    3.281811e+00
  8.846851e+00    3.259708e+00
  8.862727e+00    3.306411e+00
  8.878602e+00    3.285687e+00
  8.894478e+00    3.335412e+00
  8.910353e+00    3.357277e+00
  8.926229e+00    3.285964e+00
  8.942104e+00    3.276583e+00
  8.957980e+00    3.295730e+00
  8.973856e+00    3.300036e+00
  8.989731e+00    3.286452e+00
  9.005607e+00    3.317729e+00
  9.021482e+00    3.283101e+00
  9.037358e+00    3.272990e+00
  9.053233e+00    3.266820e+00
  9.069109e+00    3.295332e+00
  9.084985e+00    3.267627e+00
  9.100860e+00    3.254452e+00
  9.116736e+00    3.256402e+00
  9.132611e+00    3.233243e+00
  9.148487e+00    3.237239e+00
  9.164362e+00    3.245082e+00
  9.180238e+00    3.223393e+00
  9.196114e+00    3.242754e+00
  9.211989e+00    3.260122e+00
  9.227865e+00    3.249498e+00
  9.243740e+00    3.196925e+00
  9.259616e+00    3.264223e+00
  9.275491e+00    3.263175e+00
  9.291367e+00    3.271344e+00
  9.307243e+00    3.248219e+00
  9.323118e+00    3.216413e+00
  9.338994e+00    3.154045e+00
  9.354869e+00    3.193513e+00
  9.370745e+00    3.158380e+00
  9.386620e+00    3.140451e+00
  9.402496e+00    3.212887e+00
  9.418372e+00    3.205211e+00
  9.434247e+00    3.219905e+00
  9.450123e+00    3.187021e+00
  9.465998e+00    3.155118e+00
  9.481874e+00    3.256154e+00
  9.497749e+00    3.203032e+00
  9.513625e+00    3.170431e+00
  9.529501e+00    3.189442e+00
  9.545376e+00    3.204582e+00
  9.561252e+00    3.205661e+00
  9.577127e+00    3.198692e+00
  9.593003e+00    3.199454e+00
  9.608878e+00    3.222594e+00
  9.624754e+00    3.208377e+00
  9.640630e+00    3.180378e+00
  9.656505e+00    3.205259e+00
  9.672381e+00    3.115147e+00
  9.688256e+00    3.133725e+00
  9.704132e+00    3.150244e+00
  9.720008e+00    3.142916e+00
  9.735883e+00    3.154639e+00
  9.751759e+00    3.116503e+00
  9.767634e+00    3.118027e+00
  9.783510e+00    3.129704e+00
  9.799385e+00    3.146567e+00
  9.815261e+00    3.089309e+00
  9.831137e+00    3.123106e+00
  9.847012e+00    3.114591e+00
  9.862888e+00    3.150125e+00
  9.878763e+00    3.136232e+00
  9.894639e+00    3.156622e+00
  9.910514e+00    3.171484e+00
  9.926390e+00    3.122267e+00
  9.942266e+00    3.113162e+00
  9.958141e+00    3.130591e+00
  9.974017e+00    3.146524e+00
  9.989892e+00    3.104064e+00
  1.000577e+01    3.117694e+00
  1.002164e+01    3.138292e+00
  1.003752e+01    3.086798e+00
  1.005339e+01    3.080038e+00
  1.006927e+01    3.067306e+00
  1.008515e+01    3.113169e+00
  1.010102e+01    3.035578e+00
  1.011690e+01    3.044144e+00
  1.013277e+01    3.074972e+00
  1.014865e+01    3.090344e+00
  1.016452e+01    3.060239e+00
  1.018040e+01    3.102219e+00
  1.019627e+01    3.056759e+00
  1.021215e+01    3.022535e+00
  1.022803e+01    3.058249e+00
  1.024390e+01    3.085323e+00
  1.025978e+01    3.034328e+00
  1.027565e+01    3.051473e+00
  1.029153e+01    3.052085e+00
  1.030740e+01    2.990705e+00
  1.032328e+01    3.039719e+00
  1.033915e+01    3.012104e+00
  1.035503e+01    2.953015e+00
  1.037091e+01    2.956962e+00
  1.038678e+01    2.993051e+00
  1.040266e+01    3.021043e+00
  1.041853e+01    3.044295e+00
  1.043441e+01    2.998805e+00
  1.045028e+01    2.974958e+00
  1.046616e+01    3.013186e+00
  1.048204e+01    2.969035e+00
  1.049791e+01    3.028604e+00
  1.051379e+01    3.027996e+00
  1.052966e+01    2.989316e+00
  1.054554e+01    2.951678e+00
  1.056141e+01    2.961622e+00
  1.057729e+01    2.941509e+00
  1.059316e+01    2.952924e+00
  1.060904e+01    2.966197e+00
  1.062492e+01    2.958201e+00
  1.064079e+01    2.952281e+00
  1.065667e+01    2.983027e+00
  1.067254e+01    2.992465e+00
  1.068842e+01    3.006593e+00
  1.070429e+01    2.951487e+00
  1.072017e+01    2.914307e+00
  1.073604e+01    2.949996e+00
  1.075192e+01    2.964951e+00
  1.076780e+01    2.971343e+00
  1.078367e+01    2.906657e+00
  1.079955e+01    2.911799e+00
  1.081542e+01    2.937700e+00
  1.083130e+01    2.907784e+00
  1.084717e+01    2.973161e+00
  1.086305e+01    2.950131e+00
  1.087892e+01    2.934472e+00
  1.089480e+01    2.894134e+00
  1.091068e+01    2.904658e+00
  1.092655e+01    2.877882e+00
  1.094243e+01    2.888186e+00
  1.095830e+01    2.843949e+00
  1.097418e+01    2.805914e+00
  1.099005e+01    2.923064e+00
  1.100593e+01    2.919630e+00
  1.102180e+01    2.886516e+00
  1.103768e+01    2.878623e+00
  1.105356e+01    2.883220e+00
  1.106943e+01    2.919708e+00
  1.108531e+01    2.901951e+00
  1.110118e+01    2.888876e+00
  1.111706e+01    2.883579e+00
  1.113293e+01    2.889546e+00
  1.114881e+01    2.898681e+00
  1.116468e+01    2.888840e+00
  1.118056e+01    2.827581e+00
  1.119644e+01    2.842456e+00
  1.121231e+01    2.828730e+00
  1.122819e+01    2.819510e+00
  1.124406e+01    2.829616e+00
  1.125994e+01    2.810497e+00
  1.127581e+01    2.821392e+00
  1.129169e+01    2.840397e+00
  1.130756e+01    2.840491e+00
  1.132344e+01    2.806978e+00
  1.133932e+01    2.795140e+00
  1.135519e+01    2.775693e+00
  1.137107e+01    2.786630e+00
  1.138694e+01    2.813331e+00
  1.140282e+01    2.741674e+00
  1.141869e+01    2.719845e+00
  1.143457e+01    2.767690e+00
  1.145045e+01    2.779412e+00
  1.146632e+01    2.820375e+00
  1.148220e+01    2.836861e+00
  1.149807e+01    2.767999e+00
  1.151395e+01    2.772694e+00
  1.152982e+01    2.772126e+00
  1.154570e+01    2.816231e+00
  1.156157e+01    2.792836e+00
  1.157745e+01    2.810542e+00
  1.159333e+01    2.777599e+00
  1.160920e+01    2.769197e+00
  1.162508e+01    2.774985e+00
  1.164095e+01    2.755195e+00
  1.165683e+01    2.804869e+00
  1.167270e+01    2.767556e+00
  1.168858e+01    2.757590e+00
  1.170445e+01    2.738867e+00
  1.172033e+01    2.715977e+00
  1.173621e+01    2.755574e+00
  1.175208e+01    2.789001e+00
  1.176796e+01    2.752790e+00
  1.178383e+01    2.720597e+00
  1.179971e+01    2.693088e+00
  1.181558e+01    2.695015e+00
  1.183146e+01    2.702543e+00
  1.184733e+01    2.661639e+00
  1.186321e+01    2.704227e+00
  1.187909e+01    2.725339e+00
  1.189496e+01    2.723147e+00
  1.191084e+01    2.728747e+00
  1.192671e+01    2.748117e+00
  1.194259e+01    2.763394e+00
  1.195846e+01    2.717283e+00
  1.197434e+01    2.663065e+00
  1.199021e+01    2.634415e+00
  1.200609e+01    2.667758e+00
  1.202197e+01    2.652142e+00
  1.203784e+01    2.637907e+00
  1.205372e+01    2.684159e+00
  1.206959e+01    2.721421e+00
  1.208547e+01    2.737321e+00
  1.210134e+01    2.732602e+00
  1.211722e+01    2.655920e+00
  1.213309e+01    2.682312e+00
  1.214897e+01    2.679444e+00
  1.216485e+01    2.698193e+00
  1.218072e+01    2.776790e+00
  1.219660e+01    2.715952e+00
  1.221247e+01    2.690568e+00
  1.222835e+01    2.693103e+00
  1.224422e+01    2.718418e+00
  1.226010e+01    2.688069e+00
  1.227597e+01    2.675992e+00
  1.229185e+01    2.634022e+00
  1.230773e+01    2.662770e+00
  1.232360e+01    2.665941e+00
  1.233948e+01    2.711045e+00
  1.235535e+01    2.747234e+00
  1.237123e+01    2.679836e+00
  1.238710e+01    2.636204e+00
  1.240298e+01    2.645056e+00
  1.241886e+01    2.694280e+00
  1.243473e+01    2.620757e+00
  1.245061e+01    2.671378e+00
  1.246648e+01    2.723519e+00
  1.248236e+01    2.681284e+00
  1.249823e+01    2.677326e+00
  1.251411e+01    2.691296e+00
  1.252998e+01    2.697132e+00
  1.254586e+01    2.716249e+00
  1.256174e+01    2.683577e+00
  1.257761e+01    2.708752e+00
  1.259349e+01    2.733316e+00
  1.260936e+01    2.702906e+00
  1.262524e+01    2.746572e+00
  1.264111e+01    2.736003e+00
  1.265699e+01    2.747962e+00
  1.267286e+01    2.762797e+00
  1.268874e+01    2.780618e+00
  1.270462e+01    2.810918e+00
  1.272049e+01    2.852344e+00
  1.273637e+01    2.842089e+00
  1.275224e+01    2.864671e+00
  1.276812e+01    2.987957e+00
  1.278399e+01    2.956416e+00
  1.279987e+01    2.991817e+00
  1.281574e+01    2.991878e+00
  1.283162e+01    3.103050e+00
  1.284750e+01    3.159855e+00
  1.286337e+01    3.284790e+00
  1.287925e+01    3.406521e+00
  1.289512e+01    3.540342e+00
  1.291100e+01    3.604475e+00
  1.292687e+01    3.759200e+00
  1.294275e+01    4.030396e+00
  1.295862e+01    4.431869e+00
  1.297450e+01    4.809967e+00
  1.299038e+01    5.237904e+00
  1.300625e+01    5.801384e+00
  1.302213e+01    6.587873e+00
  1.303800e+01    7.634523e+00
  1.305388e+01    8.733504e+00
  1.306975e+01    1.002369e+01
  1.308563e+01    1.133009e+01
  1.310150e+01    1.255795e+01
  1.311738e+01    1.365273e+01
  1.313326e+01    1.456541e+01
  1.314913e+01    1.555381e+01
  1.316501e+01    1.608334e+01
  1.318088e+01    1.609951e+01
  1.319676e+01    1.549161e+01
  1.321263e+01    1.422072e+01
  1.322851e+01    1.246868e+01
  1.324438e+01    1.063313e+01
  1.326026e+01    9.060438e+00
  1.327614e+01    7.750149e+00
  1.329201e+01    6.666399e+00
  1.330789e+01    5.880111e+00
  1.332376e+01    5.299266e+00
  1.333964e+01    4.763820e+00
  1.335551e+01    4.409634e+00
  1.337139e+01    4.159693e+00
  1.338727e+01    3.880560e+00
  1.340314e+01    3.658280e+00
  1.341902e+01    3.438315e+00
  1.343489e+01    3.329693e+00
  1.345077e+01    3.244985e+00
  1.346664e+01    3.159985e+00
  1.348252e+01    3.083465e+00
  1.349839e+01    2.949502e+00
  1.351427e+01    2.890892e+00
  1.353015e+01    2.822230e+00
  1.354602e+01    2.793497e+00
  1.356190e+01    2.776870e+00
  1.357777e+01    2.714956e+00
  1.359365e+01    2.728545e+00
  1.360952e+01    2.695587e+00
  1.362540e+01    2.673392e+00
  1.364127e+01    2.645736e+00
  1.365715e+01    2.612344e+00
  1.367303e+01    2.601543e+00
  1.368890e+01    2.545755e+00
  1.370478e+01    2.528641e+00
  1.372065e+01    2.503979e+00
  1.373653e+01    2.508753e+00
  1.375240e+01    2.503931e+00
  1.376828e+01    2.452304e+00
  1.378415e+01    2.458573e+00
  1.380003e+01    2.450683e+00
  1.381591e+01    2.470120e+00
  1.383178e+01    2.475612e+00
  1.384766e+01    2.460155e+00
  1.386353e+01    2.436737e+00
  1.387941e+01    2.440834e+00
  1.389528e+01    2.422008e+00
  1.391116e+01    2.365336e+00
  1.392703e+01    2.377033e+00
  1.394291e+01    2.336892e+00
  1.395879e+01    2.339724e+00
  1.397466e+01    2.370725e+00
  1.399054e+01    2.361249e+00
  1.400641e+01    2.382306e+00
  1.402229e+01    2.352919e+00
  1.403816e+01    2.349534e+00
  1.405404e+01    2.336927e+00
  1.406991e+01    2.377115e+00
  1.408579e+01    2.348878e+00
  1.410167e+01    2.343294e+00
  1.411754e+01    2.314018e+00
  1.413342e+01    2.273229e+00
  1.414929e+01    2.307162e+00
  1.416517e+01    2.325458e+00
  1.418104e+01    2.308580e+00
  1.419692e+01    2.278353e+00
  1.421279e+01    2.298421e+00
  1.422867e+01    2.337539e+00
  1.424455e+01    2.291926e+00
  1.426042e+01    2.266128e+00
  1.427630e+01    2.278773e+00
  1.429217e+01    2.299800e+00
  1.430805e+01    2.286986e+00
  1.432392e+01    2.259353e+00
  1.433980e+01    2.242535e+00
  1.435568e+01    2.207521e+00
  1.437155e+01    2.222230e+00
  1.438743e+01    2.262246e+00
  1.440330e+01    2.265116e+00
  1.441918e+01    2.214578e+00
  1.443505e+01    2.258091e+00
  1.445093e+01    2.249995e+00
  1.446680e+01    2.197180e+00
  1.448268e+01    2.193033e+00
  1.449856e+01    2.241176e+00
  1.451443e+01    2.199147e+00
  1.453031e+01    2.169704e+00
  1.454618e+01    2.174483e+00
  1.456206e+01    2.230313e+00
  1.457793e+01    2.251256e+00
  1.459381e+01    2.233468e+00
  1.460968e+01    2.208258e+00
  1.462556e+01    2.214107e+00
  1.464144e+01    2.218370e+00
  1.465731e+01    2.187097e+00
  1.467319e+01    2.182451e+00
  1.468906e+01    2.179965e+00
  1.470494e+01    2.209518e+00
  1.472081e+01    2.183451e+00
  1.473669e+01    2.170792e+00
  1.475256e+01    2.187598e+00
  1.476844e+01    2.183172e+00
  1.478432e+01    2.160270e+00
  1.480019e+01    2.189241e+00
  1.481607e+01    2.215167e+00
  1.483194e+01    2.202735e+00
  1.484782e+01    2.173652e+00
  1.486369e+01    2.183895e+00
  1.487957e+01    2.197137e+00
  1.489544e+01    2.193343e+00
  1.491132e+01    2.201486e+00
  1.492720e+01    2.254215e+00
  1.494307e+01    2.272379e+00
  1.495895e+01    2.308639e+00
  1.497482e+01    2.368409e+00
  1.499070e+01    2.417186e+00
  1.500657e+01    2.385803e+00
  1.502245e+01    2.447694e+00
  1.503832e+01    2.567849e+00
  1.505420e+01    2.701059e+00
  1.507008e+01    2.830407e+00
  1.508595e+01    3.006226e+00
  1.510183e+01    3.176009e+00
  1.511770e+01    3.448740e+00
  1.513358e+01    3.731034e+00
  1.514945e+01    4.084158e+00
  1.516533e+01    4.499338e+00
  1.518120e+01    4.844321e+00
  1.519708e+01    5.137769e+00
  1.521296e+01    5.325171e+00
  1.522883e+01    5.554049e+00
  1.524471e+01    5.697110e+00
  1.526058e+01    5.695319e+00
  1.527646e+01    5.626515e+00
  1.529233e+01    5.426293e+00
  1.530821e+01    5.149403e+00
  1.532409e+01    4.684004e+00
  1.533996e+01    4.223953e+00
  1.535584e+01    3.816544e+00
  1.537171e+01    3.427272e+00
  1.538759e+01    3.122059e+00
  1.540346e+01    2.887199e+00
  1.541934e+01    2.729492e+00
  1.543521e+01    2.597319e+00
  1.545109e+01    2.509541e+00
  1.546697e+01    2.421200e+00
  1.548284e+01    2.335207e+00
  1.549872e+01    2.306908e+00
  1.551459e+01    2.204747e+00
  1.553047e+01    2.187269e+00
  1.554634e+01    2.185723e+00
  1.556222e+01    2.148878e+00
  1.557809e+01    2.104723e+00
  1.559397e+01    2.060517e+00
  1.560985e+01    2.088540e+00
  1.562572e+01    2.064120e+00
  1.564160e+01    2.049370e+00
  1.565747e+01    1.996772e+00
  1.567335e+01    2.012396e+00
  1.568922e+01    2.001902e+00
  1.570510e+01    1.940856e+00
  1.572097e+01    1.937929e+00
  1.573685e+01    1.952051e+00
  1.575273e+01    1.939232e+00
  1.576860e+01    1.911927e+00
  1.578448e+01    1.890145e+00
  1.580035e+01    1.944207e+00
  1.581623e+01    1.932224e+00
  1.583210e+01    1.920596e+00
  1.584798e+01    1.918757e+00
  1.586385e+01    1.934769e+00
  1.587973e+01    1.917233e+00
  1.589561e+01    1.884877e+00
  1.591148e+01    1.877974e+00
  1.592736e+01    1.917033e+00
  1.594323e+01    1.903817e+00
  1.595911e+01    1.882875e+00
  1.597498e+01    1.890190e+00
  1.599086e+01    1.851995e+00
  1.600673e+01    1.860860e+00
  1.602261e+01    1.863027e+00
  1.603849e+01    1.851913e+00
  1.605436e+01    1.831195e+00
  1.607024e+01    1.840656e+00
  1.608611e+01    1.840165e+00
  1.610199e+01    1.809045e+00
  1.611786e+01    1.821205e+00
  1.613374e+01    1.838684e+00
  1.614961e+01    1.864461e+00
  1.616549e+01    1.804037e+00
  1.618137e+01    1.817368e+00
  1.619724e+01    1.848824e+00
  1.621312e+01    1.827530e+00
  1.622899e+01    1.802942e+00
  1.624487e+01    1.806464e+00
  1.626074e+01    1.821460e+00
  1.627662e+01    1.753312e+00
  1.629250e+01    1.757502e+00
  1.630837e+01    1.794268e+00
  1.632425e+01    1.782381e+00
  1.634012e+01    1.777221e+00
  1.635600e+01    1.773627e+00
  1.637187e+01    1.761286e+00
  1.638775e+01    1.765062e+00
  1.640362e+01    1.754104e+00
  1.641950e+01    1.758306e+00
  1.643538e+01    1.770782e+00
  1.645125e+01    1.745912e+00
  1.646713e+01    1.778010e+00
  1.648300e+01    1.766519e+00
  1.649888e+01    1.748873e+00
  1.651475e+01    1.796628e+00
  1.653063e+01    1.788440e+00
  1.654650e+01    1.766715e+00
  1.656238e+01    1.747601e+00
  1.657826e+01    1.755835e+00
  1.659413e+01    1.733613e+00
  1.661001e+01    1.725711e+00
  1.662588e+01    1.711196e+00
  1.664176e+01    1.711558e+00
  1.665763e+01    1.733484e+00
  1.667351e+01    1.740126e+00
  1.668938e+01    1.731527e+00
  1.670526e+01    1.695746e+00
  1.672114e+01    1.694210e+00
  1.673701e+01    1.686036e+00
  1.675289e+01    1.664708e+00
  1.676876e+01    1.687494e+00
  1.678464e+01    1.698871e+00
  1.680051e+01    1.678262e+00
  1.681639e+01    1.699313e+00
  1.683226e+01    1.705630e+00
  1.684814e+01    1.699081e+00
  1.686402e+01    1.729885e+00
  1.687989e+01    1.692753e+00
  1.689577e+01    1.693790e+00
  1.691164e+01    1.683104e+00
  1.692752e+01    1.680926e+00
  1.694339e+01    1.681508e+00
  1.695927e+01    1.707998e+00
  1.697514e+01    1.734729e+00
  1.699102e+01    1.686399e+00
  1.700690e+01    1.679812e+00
  1.702277e+01    1.653453e+00
  1.703865e+01    1.642257e+00
  1.705452e+01    1.653942e+00
  1.707040e+01    1.663089e+00
  1.708627e+01    1.693431e+00
  1.710215e+01    1.644322e+00
  1.711802e+01    1.620363e+00
  1.713390e+01    1.629612e+00
  1.714978e+01    1.649020e+00
  1.716565e+01    1.657279e+00
  1.718153e+01    1.650689e+00
  1.719740e+01    1.631955e+00
  1.721328e+01    1.633583e+00
  1.722915e+01    1.624121e+00
  1.724503e+01    1.634349e+00
  1.726091e+01    1.598406e+00
  1.727678e+01    1.624899e+00
  1.729266e+01    1.635524e+00
  1.730853e+01    1.624300e+00
  1.732441e+01    1.625627e+00
  1.734028e+01    1.623912e+00
  1.735616e+01    1.649985e+00
  1.737203e+01    1.606914e+00
  1.738791e+01    1.593127e+00
  1.740379e+01    1.595863e+00
  1.741966e+01    1.587973e+00
  1.743554e+01    1.585090e+00
  1.745141e+01    1.595997e+00
  1.746729e+01    1.595685e+00
  1.748316e+01    1.592071e+00
  1.749904e+01    1.582901e+00
  1.751491e+01    1.569640e+00
  1.753079e+01    1.549338e+00
  1.754667e+01    1.583092e+00
  1.756254e+01    1.591703e+00
  1.757842e+01    1.600038e+00
  1.759429e+01    1.579388e+00
  1.761017e+01    1.561725e+00
  1.762604e+01    1.546831e+00
  1.764192e+01    1.545624e+00
  1.765779e+01    1.557476e+00
  1.767367e+01    1.536534e+00
  1.768955e+01    1.537560e+00
  1.770542e+01    1.553295e+00
  1.772130e+01    1.549945e+00
  1.773717e+01    1.562960e+00
  1.775305e+01    1.529496e+00
  1.776892e+01    1.535967e+00
  1.778480e+01    1.564677e+00
  1.780067e+01    1.554879e+00
  1.781655e+01    1.532012e+00
  1.783243e+01    1.526838e+00
  1.784830e+01    1.537706e+00
  1.786418e+01    1.527373e+00
  1.788005e+01    1.541696e+00
  1.789593e+01    1.523221e+00
  1.791180e+01    1.523716e+00
  1.792768e+01    1.516153e+00
  1.794355e+01    1.511491e+00
  1.795943e+01    1.498637e+00
  1.797531e+01    1.536159e+00
  1.799118e+01    1.528041e+00
  1.800706e+01    1.491102e+00
  1.802293e+01    1.520268e+00
  1.803881e+01    1.533994e+00
  1.805468e+01    1.484704e+00
  1.807056e+01    1.518144e+00
  1.808643e+01    1.488550e+00
  1.810231e+01    1.482738e+00
  1.811819e+01    1.453953e+00
  1.813406e+01    1.503217e+00
  1.814994e+01    1.493143e+00
  1.816581e+01    1.489717e+00
  1.818169e+01    1.494752e+00
  1.819756e+01    1.497843e+00
  1.821344e+01    1.470496e+00
  1.822932e+01    1.472838e+00
  1.824519e+01    1.481703e+00
  1.826107e+01    1.468624e+00
  1.827694e+01    1.443555e+00
  1.829282e+01    1.460364e+00
  1.830869e+01    1.469591e+00
  1.832457e+01    1.457857e+00
  1.834044e+01    1.434934e+00
  1.835632e+01    1.452461e+00
  1.837220e+01    1.453189e+00
  1.838807e+01    1.462092e+00
  1.840395e+01    1.440959e+00
  1.841982e+01    1.440483e+00
  1.843570e+01    1.412035e+00
  1.845157e+01    1.442412e+00
  1.846745e+01    1.458456e+00
  1.848332e+01    1.426954e+00
  1.849920e+01    1.417154e+00
  1.851508e+01    1.426082e+00
  1.853095e+01    1.447125e+00
  1.854683e+01    1.443675e+00
  1.856270e+01    1.450980e+00
  1.857858e+01    1.444747e+00
  1.859445e+01    1.451811e+00
  1.861033e+01    1.424582e+00
  1.862620e+01    1.431217e+00
  1.864208e+01    1.419852e+00
  1.865796e+01    1.403730e+00
  1.867383e+01    1.410454e+00
  1.868971e+01    1.425964e+00
  1.870558e+01    1.401617e+00
  1.872146e+01    1.360231e+00
  1.873733e+01    1.387960e+00
  1.875321e+01    1.407229e+00
  1.876908e+01    1.418198e+00
  1.878496e+01    1.403744e+00
  1.880084e+01    1.402028e+00
  1.881671e+01    1.383071e+00
  1.883259e+01    1.385686e+00
  1.884846e+01    1.407452e+00
  1.886434e+01    1.394449e+00
  1.888021e+01    1.428013e+00
  1.889609e+01    1.405290e+00
  1.891196e+01    1.402570e+00
  1.892784e+01    1.373137e+00
  1.894372e+01    1.369811e+00
  1.895959e+01    1.377458e+00
  1.897547e+01    1.370410e+00
  1.899134e+01    1.397415e+00
  1.900722e+01    1.368608e+00
  1.902309e+01    1.374966e+00
  1.903897e+01    1.363111e+00
  1.905484e+01    1.367811e+00
  1.907072e+01    1.373305e+00
  1.908660e+01    1.377138e+00
  1.910247e+01    1.370907e+00
  1.911835e+01    1.363053e+00
  1.913422e+01    1.354570e+00
  1.915010e+01    1.361961e+00
  1.916597e+01    1.333680e+00
  1.918185e+01    1.342804e+00
  1.919773e+01    1.363630e+00
  1.921360e+01    1.352670e+00
  1.922948e+01    1.372092e+00
  1.924535e+01    1.374024e+00
  1.926123e+01    1.338953e+00
  1.927710e+01    1.346542e+00
  1.929298e+01    1.341698e+00
  1.930885e+01    1.327264e+00
  1.932473e+01    1.345621e+00
  1.934061e+01    1.346718e+00
  1.935648e+01    1.345608e+00
  1.937236e+01    1.338829e+00
  1.938823e+01    1.331228e+00
  1.940411e+01    1.317682e+00
  1.941998e+01    1.315691e+00
  1.943586e+01    1.333076e+00
  1.945173e+01    1.298047e+00
  1.946761e+01    1.338114e+00
  1.948349e+01    1.337233e+00
  1.949936e+01    1.315185e+00
  1.951524e+01    1.320124e+00
  1.953111e+01    1.332335e+00
  1.954699e+01    1.341444e+00
  1.956286e+01    1.324081e+00
  1.957874e+01    1.308878e+00
  1.959461e+01    1.335015e+00
  1.961049e+01    1.312431e+00
  1.962637e+01    1.317914e+00
  1.964224e+01    1.336679e+00
  1.965812e+01    1.326820e+00
  1.967399e+01    1.329802e+00
  1.968987e+01    1.310981e+00
  1.970574e+01    1.310211e+00
  1.972162e+01    1.296052e+00
  1.973749e+01    1.298443e+00
  1.975337e+01    1.301089e+00
  1.976925e+01    1.279263e+00
  1.978512e+01    1.261586e+00
  1.980100e+01    1.277073e+00
  1.981687e+01    1.285414e+00
  1.983275e+01    1.289352e+00
  1.984862e+01    1.321355e+00
  1.986450e+01    1.277856e+00
  1.988037e+01    1.284310e+00
  1.989625e+01    1.320426e+00
  1.991213e+01    1.298146e+00
  1.992800e+01    1.323100e+00
  1.994388e+01    1.282391e+00
  1.995975e+01    1.274872e+00
  1.997563e+01    1.267640e+00
  1.999150e+01    1.259112e+00
  2.000738e+01    1.274810e+00
  2.002325e+01    1.285732e+00
  2.003913e+01    1.274920e+00
  2.005501e+01    1.276849e+00
  2.007088e+01    1.290698e+00
  2.008676e+01    1.265525e+00
  2.010263e+01    1.239852e+00
  2.011851e+01    1.232419e+00
  2.013438e+01    1.257098e+00
  2.015026e+01    1.265083e+00
  2.016614e+01    1.251954e+00
  2.018201e+01    1.284069e+00
  2.019789e+01    1.261419e+00
  2.021376e+01    1.249985e+00
  2.022964e+01    1.261564e+00
  2.024551e+01    1.257252e+00
  2.026139e+01    1.248489e+00
  2.027726e+01    1.260101e+00
  2.029314e+01    1.275291e+00
  2.030902e+01    1.239008e+00
  2.032489e+01    1.235008e+00
  2.034077e+01    1.238101e+00
  2.035664e+01    1.251995e+00
  2.037252e+01    1.240927e+00
  2.038839e+01    1.234744e+00
  2.040427e+01    1.246530e+00
  2.042014e+01    1.241904e+00
  2.043602e+01    1.233176e+00
  2.045190e+01    1.247468e+00
  2.046777e+01    1.236611e+00
  2.048365e+01    1.233535e+00
  2.049952e+01    1.241477e+00
  2.051540e+01    1.237796e+00
  2.053127e+01    1.238503e+00
  2.054715e+01    1.234557e+00
  2.056302e+01    1.235662e+00
  2.057890e+01    1.241802e+00
  2.059478e+01    1.226179e+00
  2.061065e+01    1.223390e+00
  2.062653e+01    1.219127e+00
  2.064240e+01    1.226356e+00
  2.065828e+01    1.236337e+00
  2.067415e+01    1.239989e+00
  2.069003e+01    1.220650e+00
  2.070590e+01    1.208129e+00
  2.072178e+01    1.218003e+00
  2.073766e+01    1.208961e+00
  2.075353e+01    1.204887e+00
  2.076941e+01    1.200002e+00
  2.078528e+01    1.207571e+00
  2.080116e+01    1.211166e+00
  2.081703e+01    1.212945e+00
  2.083291e+01    1.204582e+00
  2.084878e+01    1.209951e+00
  2.086466e+01    1.203303e+00
  2.088054e+01    1.207074e+00
  2.089641e+01    1.224168e+00
  2.091229e+01    1.241471e+00
  2.092816e+01    1.245456e+00
  2.094404e+01    1.222816e+00
  2.095991e+01    1.233279e+00
  2.097579e+01    1.228158e+00
  2.099166e+01    1.217845e+00
  2.100754e+01    1.191252e+00
  2.102342e+01    1.227987e+00
  2.103929e+01    1.232686e+00
  2.105517e+01    1.230373e+00
  2.107104e+01    1.246016e+00
  2.108692e+01    1.217340e+00
  2.110279e+01    1.207720e+00
  2.111867e+01    1.212304e+00
  2.113455e+01    1.227416e+00
  2.115042e+01    1.239445e+00
  2.116630e+01    1.232709e+00
  2.118217e+01    1.234034e+00
  2.119805e+01    1.228127e+00
  2.121392e+01    1.230634e+00
  2.122980e+01    1.221462e+00
  2.124567e+01    1.240517e+00
  2.126155e+01    1.257625e+00
  2.127743e+01    1.241117e+00
  2.129330e+01    1.259198e+00
  2.130918e+01    1.256018e+00
  2.132505e+01    1.258659e+00
  2.134093e+01    1.288442e+00
  2.135680e+01    1.289725e+00
  2.137268e+01    1.299510e+00
  2.138855e+01    1.286181e+00
  2.140443e+01    1.278527e+00
  2.142031e+01    1.293101e+00
  2.143618e+01    1.319256e+00
  2.145206e+01    1.346806e+00
  2.146793e+01    1.370971e+00
  2.148381e+01    1.413232e+00
  2.149968e+01    1.450508e+00
  2.151556e+01    1.422606e+00
  2.153143e+01    1.436508e+00
  2.154731e+01    1.491261e+00
  2.156319e+01    1.570139e+00
  2.157906e+01    1.616681e+00
  2.159494e+01    1.678916e+00
  2.161081e+01    1.757219e+00
  2.162669e+01    1.836184e+00
  2.164256e+01    1.927558e+00
  2.165844e+01    2.085408e+00
  2.167431e+01    2.286733e+00
  2.169019e+01    2.499705e+00
  2.170607e+01    2.777398e+00
  2.172194e+01    3.067770e+00
  2.173782e+01    3.459935e+00
  2.175369e+01    3.958856e+00
  2.176957e+01    4.474401e+00
  2.178544e+01    5.038492e+00
  2.180132e+01    5.683661e+00
  2.181719e+01    6.442828e+00
  2.183307e+01    7.086885e+00
  2.184895e+01    7.697595e+00
  2.186482e+01    8.278261e+00
  2.188070e+01    8.685812e+00
  2.189657e+01    8.857413e+00
  2.191245e+01    8.702104e+00
  2.192832e+01    8.204564e+00
  2.194420e+01    7.482162e+00
  2.196007e+01    6.554484e+00
  2.197595e+01    5.639865e+00
  2.199183e+01    4.923368e+00
  2.200770e+01    4.218350e+00
  2.202358e+01    3.605518e+00
  2.203945e+01    3.171422e+00
  2.205533e+01    2.864657e+00
  2.207120e+01    2.543823e+00
  2.208708e+01    2.360965e+00
  2.210296e+01    2.165848e+00
  2.211883e+01    1.993919e+00
  2.213471e+01    1.853421e+00
  2.215058e+01    1.745016e+00
  2.216646e+01    1.661290e+00
  2.218233e+01    1.574442e+00
  2.219821e+01    1.521730e+00
  2.221408e+01    1.468830e+00
  2.222996e+01    1.453313e+00
  2.224584e+01    1.405689e+00
  2.226171e+01    1.357976e+00
  2.227759e+01    1.334015e+00
  2.229346e+01    1.309877e+00
  2.230934e+01    1.291669e+00
  2.232521e+01    1.288365e+00
  2.234109e+01    1.280385e+00
  2.235696e+01    1.232961e+00
  2.237284e+01    1.199582e+00
  2.238872e+01    1.211390e+00
  2.240459e+01    1.207911e+00
  2.242047e+01    1.189639e+00
  2.243634e+01    1.184632e+00
  2.245222e+01    1.171391e+00
  2.246809e+01    1.153208e+00
  2.248397e+01    1.161910e+00
  2.249984e+01    1.123645e+00
  2.251572e+01    1.123531e+00
  2.253160e+01    1.135570e+00
  2.254747e+01    1.127814e+00
  2.256335e+01    1.112178e+00
  2.257922e+01    1.113169e+00
  2.259510e+01    1.113940e+00
  2.261097e+01    1.109769e+00
  2.262685e+01    1.099641e+00
  2.264272e+01    1.095883e+00
  2.265860e+01    1.099377e+00
  2.267448e+01    1.073370e+00
  2.269035e+01    1.078930e+00
  2.270623e+01    1.089307e+00
  2.272210e+01    1.064268e+00
  2.273798e+01    1.061168e+00
  2.275385e+01    1.073813e+00
  2.276973e+01    1.043583e+00
  2.278560e+01    1.034432e+00
  2.280148e+01    1.044852e+00
  2.281736e+01    1.064219e+00
  2.283323e+01    1.050677e+00
  2.284911e+01    1.054350e+00
  2.286498e+01    1.034335e+00
  2.288086e+01    1.028274e+00
  2.289673e+01    1.017696e+00
  2.291261e+01    1.026336e+00
  2.292848e+01    1.032171e+00
  2.294436e+01    1.038889e+00
  2.296024e+01    1.013131e+00
  2.297611e+01    1.005867e+00
  2.299199e+01    1.028535e+00
  2.300786e+01    1.022883e+00
  2.302374e+01    1.008340e+00
  2.303961e+01    1.006079e+00
  2.305549e+01    9.932994e-01
  2.307137e+01    9.982371e-01
  2.308724e+01    1.001881e+00
  2.310312e+01    1.005343e+00
  2.311899e+01    1.001080e+00
  2.313487e+01    1.014690e+00
  2.315074e+01    1.000185e+00
  2.316662e+01    9.805074e-01
  2.318249e+01    1.012673e+00
  2.319837e+01    9.769312e-01
  2.321425e+01    9.869069e-01
  2.323012e+01    1.000062e+00
  2.324600e+01    9.915978e-01
  2.326187e+01    9.754397e-01
  2.327775e+01    9.983325e-01
  2.329362e+01    9.811651e-01
  2.330950e+01    9.630902e-01
  2.332537e+01    9.467549e-01
  2.334125e+01    9.689162e-01
  2.335713e+01    9.668239e-01
  2.337300e+01    9.514519e-01
  2.338888e+01    9.680268e-01
  2.340475e+01    9.842193e-01
  2.342063e+01    9.833819e-01
  2.343650e+01    9.666825e-01
  2.345238e+01    9.774026e-01
  2.346825e+01    9.701881e-01
  2.348413e+01    9.557031e-01
  2.350001e+01    9.526327e-01
  2.351588e+01    9.489663e-01
  2.353176e+01    9.554031e-01
  2.354763e+01    9.758213e-01
  2.356351e+01    9.545270e-01
  2.357938e+01    9.364364e-01
  2.359526e+01    9.601848e-01
  2.361113e+01    9.530869e-01
  2.362701e+01    9.545856e-01
  2.364289e+01    9.559583e-01
  2.365876e+01    9.664748e-01
  2.367464e+01    9.289642e-01
  2.369051e+01    9.357697e-01
  2.370639e+01    9.192759e-01
  2.372226e+01    9.350402e-01
  2.373814e+01    9.269484e-01
  2.375401e+01    9.476441e-01
  2.376989e+01    9.202314e-01
  2.378577e+01    9.142156e-01
  2.380164e+01    9.122992e-01
  2.381752e+01    9.183066e-01
  2.383339e+01    9.211464e-01
  2.384927e+01    9.098261e-01
  2.386514e+01    9.130573e-01
  2.388102e+01    9.082067e-01
  2.389689e+01    9.167673e-01
  2.391277e+01    9.077991e-01
  2.392865e+01    8.962805e-01
  2.394452e+01    8.887187e-01
  2.396040e+01    8.889667e-01
  2.397627e+01    8.859283e-01
  2.399215e+01    8.919929e-01
  2.400802e+01    8.867829e-01
  2.402390e+01    8.741115e-01
  2.403978e+01    8.819550e-01
  2.405565e+01    8.818078e-01
  2.407153e+01    9.008348e-01
  2.408740e+01    8.918353e-01
  2.410328e+01    8.873078e-01
  2.411915e+01    8.897482e-01
  2.413503e+01    8.881099e-01
  2.415090e+01    8.900195e-01
  2.416678e+01    8.911456e-01
  2.418266e+01    8.952761e-01
  2.419853e+01    9.139715e-01
  2.421441e+01    8.875886e-01
  2.423028e+01    8.695447e-01
  2.424616e+01    8.720725e-01
  2.426203e+01    8.782864e-01
  2.427791e+01    8.722050e-01
  2.429378e+01    8.748975e-01
  2.430966e+01    8.715657e-01
  2.432554e+01    8.896703e-01
  2.434141e+01    8.904008e-01
  2.435729e+01    8.889199e-01
  2.437316e+01    8.924096e-01
  2.438904e+01    9.007300e-01
  2.440491e+01    8.970280e-01
  2.442079e+01    8.976501e-01
  2.443666e+01    8.898122e-01
  2.445254e+01    8.964398e-01
  2.446842e+01    9.011146e-01
  2.448429e+01    8.936142e-01
  2.450017e+01    8.919716e-01
  2.451604e+01    8.724202e-01
  2.453192e+01    8.852433e-01
  2.454779e+01    8.850741e-01
  2.456367e+01    8.999862e-01
  2.457954e+01    8.767678e-01
  2.459542e+01    8.794805e-01
  2.461130e+01    8.935567e-01
  2.462717e+01    8.819550e-01
  2.464305e+01    8.703465e-01
  2.465892e+01    8.815881e-01
  2.467480e+01    8.997819e-01
  2.469067e+01    8.962806e-01
  2.470655e+01    8.977258e-01
  2.472242e+01    8.766537e-01
  2.473830e+01    9.013028e-01
  2.475418e+01    9.039001e-01
  2.477005e+01    9.072468e-01
  2.478593e+01    8.895435e-01
  2.480180e+01    8.843147e-01
  2.481768e+01    8.868879e-01
  2.483355e+01    8.772442e-01
  2.484943e+01    8.850719e-01
  2.486530e+01    8.965805e-01
  2.488118e+01    8.832660e-01
  2.489706e+01    8.697100e-01
  2.491293e+01    8.896645e-01
  2.492881e+01    8.872992e-01
  2.494468e+01    8.777273e-01
  2.496056e+01    9.016417e-01
  2.497643e+01    9.107798e-01
  2.499231e+01    9.028917e-01
  2.500819e+01    8.827439e-01
  2.502406e+01    8.794434e-01
  2.503994e+01    8.687271e-01
  2.505581e+01    8.866950e-01
  2.507169e+01    8.895645e-01
  2.508756e+01    8.878747e-01
  2.510344e+01    9.138570e-01
  2.511931e+01    9.096259e-01
  2.513519e+01    8.911704e-01
  2.515107e+01    8.967089e-01
  2.516694e+01    9.121472e-01
  2.518282e+01    9.547174e-01
  2.519869e+01    9.251343e-01
  2.521457e+01    9.211962e-01
  2.523044e+01    9.284239e-01
  2.524632e+01    9.293571e-01
  2.526219e+01    9.347360e-01
  2.527807e+01    9.435095e-01
  2.529395e+01    9.443498e-01
  2.530982e+01    9.335353e-01
  2.532570e+01    9.504445e-01
  2.534157e+01    9.485571e-01
  2.535745e+01    9.667938e-01
  2.537332e+01    9.809414e-01
  2.538920e+01    9.771555e-01
  2.540507e+01    9.744729e-01
  2.542095e+01    9.796272e-01
  2.543683e+01    9.948547e-01
  2.545270e+01    1.011826e+00
  2.546858e+01    1.031064e+00
  2.548445e+01    1.034436e+00
  2.550033e+01    1.054808e+00
  2.551620e+01    1.069487e+00
  2.553208e+01    1.074860e+00
  2.554795e+01    1.100020e+00
  2.556383e+01    1.110822e+00
  2.557971e+01    1.165766e+00
  2.559558e+01    1.177451e+00
  2.561146e+01    1.199196e+00
  2.562733e+01    1.247726e+00
  2.564321e+01    1.286069e+00
  2.565908e+01    1.340806e+00
  2.567496e+01    1.406909e+00
  2.569083e+01    1.474287e+00
  2.570671e+01    1.572485e+00
  2.572259e+01    1.687741e+00
  2.573846e+01    1.836311e+00
  2.575434e+01    1.993105e+00
  2.577021e+01    2.192330e+00
  2.578609e+01    2.455367e+00
  2.580196e+01    2.722765e+00
  2.581784e+01    3.152537e+00
  2.583371e+01    3.549485e+00
  2.584959e+01    4.062399e+00
  2.586547e+01    4.571564e+00
  2.588134e+01    5.131595e+00
  2.589722e+01    5.719925e+00
  2.591309e+01    6.283214e+00
  2.592897e+01    6.767660e+00
  2.594484e+01    6.997070e+00
  2.596072e+01    7.046246e+00
  2.597660e+01    6.935160e+00
  2.599247e+01    6.542350e+00
  2.600835e+01    5.985873e+00
  2.602422e+01    5.310112e+00
  2.604010e+01    4.614220e+00
  2.605597e+01    4.008078e+00
  2.607185e+01    3.434464e+00
  2.608772e+01    2.988463e+00
  2.610360e+01    2.651454e+00
  2.611948e+01    2.350543e+00
  2.613535e+01    2.148105e+00
  2.615123e+01    1.970967e+00
  2.616710e+01    1.786758e+00
  2.618298e+01    1.665947e+00
  2.619885e+01    1.567407e+00
  2.621473e+01    1.465093e+00
  2.623060e+01    1.398624e+00
  2.624648e+01    1.322005e+00
  2.626236e+01    1.298667e+00
  2.627823e+01    1.239133e+00
  2.629411e+01    1.212979e+00
  2.630998e+01    1.165722e+00
  2.632586e+01    1.123646e+00
  2.634173e+01    1.132316e+00
  2.635761e+01    1.121992e+00
  2.637348e+01    1.088448e+00
  2.638936e+01    1.062023e+00
  2.640524e+01    1.054690e+00
  2.642111e+01    1.042953e+00
  2.643699e+01    1.001348e+00
  2.645286e+01    9.955630e-01
  2.646874e+01    1.032450e+00
  2.648461e+01    1.004066e+00
  2.650049e+01    9.976634e-01
  2.651636e+01    9.978698e-01
  2.653224e+01    1.011337e+00
  2.654812e+01    9.924448e-01
  2.656399e+01    9.762347e-01
  2.657987e+01    9.696888e-01
  2.659574e+01    9.658877e-01
  2.661162e+01    9.606659e-01
  2.662749e+01    9.869105e-01
  2.664337e+01    9.945434e-01
  2.665924e+01    9.533274e-01
  2.667512e+01    9.483469e-01
  2.669100e+01    9.619533e-01
  2.670687e+01    9.552880e-01
  2.672275e+01    9.684393e-01
  2.673862e+01    9.610030e-01
  2.675450e+01    9.638797e-01
  2.677037e+01    9.659890e-01
  2.678625e+01    9.664301e-01
  2.680212e+01    9.557724e-01
  2.681800e+01    9.834013e-01
  2.683388e+01    9.738535e-01
  2.684975e+01    9.610925e-01
  2.686563e+01    9.697788e-01
  2.688150e+01    9.689469e-01
  2.689738e+01    9.698805e-01
  2.691325e+01    9.965118e-01
  2.692913e+01    1.016817e+00
  2.694501e+01    1.022849e+00
  2.696088e+01    1.021477e+00
  2.697676e+01    1.059154e+00
  2.699263e+01    1.067568e+00
  2.700851e+01    1.103780e+00
  2.702438e+01    1.144250e+00
  2.704026e+01    1.180230e+00
  2.705613e+01    1.216647e+00
  2.707201e+01    1.311146e+00
  2.708789e+01    1.367123e+00
  2.710376e+01    1.447704e+00
  2.711964e+01    1.597410e+00
  2.713551e+01    1.723787e+00
  2.715139e+01    1.831274e+00
  2.716726e+01    1.971022e+00
  2.718314e+01    2.045407e+00
  2.719901e+01    2.125009e+00
  2.721489e+01    2.141635e+00
  2.723077e+01    2.143885e+00
  2.724664e+01    2.085360e+00
  2.726252e+01    1.953222e+00
  2.727839e+01    1.832397e+00
  2.729427e+01    1.686523e+00
  2.731014e+01    1.549457e+00
  2.732602e+01    1.447834e+00
  2.734189e+01    1.363395e+00
  2.735777e+01    1.267302e+00
  2.737365e+01    1.207629e+00
  2.738952e+01    1.170233e+00
  2.740540e+01    1.140628e+00
  2.742127e+01    1.072420e+00
  2.743715e+01    1.051811e+00
  2.745302e+01    1.018320e+00
  2.746890e+01    1.017085e+00
  2.748477e+01    1.003609e+00
  2.750065e+01    9.910845e-01
  2.751653e+01    9.448619e-01
  2.753240e+01    9.588776e-01
  2.754828e+01    9.738223e-01
  2.756415e+01    9.405393e-01
  2.758003e+01    9.215034e-01
  2.759590e+01    9.412395e-01
  2.761178e+01    9.195674e-01
  2.762765e+01    9.126369e-01
  2.764353e+01    9.139850e-01
  2.765941e+01    8.876815e-01
  2.767528e+01    8.981885e-01
  2.769116e+01    9.039980e-01
  2.770703e+01    9.159135e-01
  2.772291e+01    8.987602e-01
  2.773878e+01    8.769607e-01
  2.775466e+01    8.880466e-01
  2.777054e+01    9.006265e-01
  2.778641e+01    8.923195e-01
  2.780229e+01    8.730757e-01
  2.781816e+01    8.537943e-01
  2.783404e+01    8.814132e-01
  2.784991e+01    8.956288e-01
  2.786579e+01    8.644213e-01
  2.788166e+01    8.870919e-01
  2.789754e+01    8.596607e-01
  2.791342e+01    8.633636e-01
  2.792929e+01    8.548855e-01
  2.794517e+01    8.649930e-01
  2.796104e+01    8.749794e-01
  2.797692e+01    8.801894e-01
  2.799279e+01    8.567746e-01
  2.800867e+01    8.530890e-01
  2.802454e+01    8.809740e-01
  2.804042e+01    8.649238e-01
  2.805630e+01    8.384098e-01
  2.807217e+01    8.215453e-01
  2.808805e+01    8.449981e-01
  2.810392e+01    8.490168e-01
  2.811980e+01    8.519927e-01
  2.813567e+01    8.519704e-01
  2.815155e+01    8.447224e-01
  2.816742e+01    8.562951e-01
  2.818330e+01    8.689407e-01
  2.819918e+01    8.454726e-01
  2.821505e+01    8.527814e-01
  2.823093e+01    8.445079e-01
  2.824680e+01    8.497503e-01
  2.826268e+01    8.699589e-01
  2.827855e+01    8.743948e-01
  2.829443e+01    8.564288e-01
  2.831030e+01    8.332017e-01
  2.832618e+01    8.374658e-01
  2.834206e+01    8.323300e-01
  2.835793e+01    8.478885e-01
  2.837381e+01    8.456036e-01
  2.838968e+01    8.513412e-01
  2.840556e+01    8.280303e-01
  2.842143e+01    8.417981e-01
  2.843731e+01    8.303986e-01
  2.845318e+01    8.393607e-01
  2.846906e+01    8.310741e-01
  2.848494e+01    8.244480e-01
  2.850081e+01    8.431038e-01
  2.851669e+01    8.275152e-01
  2.853256e+01    8.207159e-01
  2.854844e+01    8.153186e-01
  2.856431e+01    8.133911e-01
  2.858019e+01    8.110462e-01
  2.859606e+01    8.132265e-01
  2.861194e+01    8.323393e-01
  2.862782e+01    8.014218e-01
  2.864369e+01    8.296782e-01
  2.865957e+01    8.075764e-01
  2.867544e+01    8.031801e-01
  2.869132e+01    8.078910e-01
  2.870719e+01    8.238439e-01
  2.872307e+01    8.082789e-01
  2.873895e+01    8.168870e-01
  2.875482e+01    8.176754e-01
  2.877070e+01    8.263636e-01
  2.878657e+01    8.251016e-01
  2.880245e+01    8.143650e-01
  2.881832e+01    8.194731e-01
  2.883420e+01    8.213853e-01
  2.885007e+01    8.115072e-01
  2.886595e+01    7.973564e-01
  2.888183e+01    8.118982e-01
  2.889770e+01    8.293248e-01
  2.891358e+01    8.295919e-01
  2.892945e+01    8.344817e-01
  2.894533e+01    8.238065e-01
  2.896120e+01    8.311006e-01
  2.897708e+01    7.958791e-01
  2.899295e+01    8.070910e-01
  2.900883e+01    8.105690e-01
  2.902471e+01    8.035154e-01
  2.904058e+01    7.879487e-01
  2.905646e+01    8.109577e-01
  2.907233e+01    8.176144e-01
  2.908821e+01    8.026743e-01
  2.910408e+01    8.142745e-01
  2.911996e+01    8.098977e-01
  2.913583e+01    8.080157e-01
  2.915171e+01    8.082509e-01
  2.916759e+01    8.115267e-01
  2.918346e+01    7.979880e-01
  2.919934e+01    7.972405e-01
  2.921521e+01    8.181128e-01
  2.923109e+01    8.267364e-01
  2.924696e+01    8.172060e-01
  2.926284e+01    7.956953e-01
  2.927871e+01    7.989711e-01
  2.929459e+01    7.876195e-01
  2.931047e+01    8.144935e-01
  2.932634e+01    8.124833e-01
  2.934222e+01    8.102523e-01
  2.935809e+01    8.133109e-01
  2.937397e+01    8.099518e-01
  2.938984e+01    8.061398e-01
  2.940572e+01    8.116938e-01
  2.942159e+01    8.073482e-01
  2.943747e+01    7.950755e-01
  2.945335e+01    7.924430e-01
  2.946922e+01    7.972270e-01
  2.948510e+01    7.739821e-01
  2.950097e+01    8.052086e-01
  2.951685e+01    8.059905e-01
  2.953272e+01    7.904649e-01
  2.954860e+01    7.852062e-01
  2.956447e+01    7.874721e-01
  2.958035e+01    7.965514e-01
  2.959623e+01    7.953014e-01
  2.961210e+01    7.932923e-01
  2.962798e+01    7.928413e-01
  2.964385e+01    7.875274e-01
  2.965973e+01    7.871360e-01
  2.967560e+01    7.795840e-01
  2.969148e+01    7.882775e-01
  2.970736e+01    7.867715e-01
  2.972323e+01    7.833199e-01
  2.973911e+01    7.782127e-01
  2.975498e+01    7.907850e-01
  2.977086e+01    7.812490e-01
  2.978673e+01    7.794173e-01
  2.980261e+01    7.820277e-01
  2.981848e+01    7.651491e-01
  2.983436e+01    7.844884e-01
  2.985024e+01    7.845383e-01
  2.986611e+01    7.811280e-01
  2.988199e+01    7.802928e-01
  2.989786e+01    8.004978e-01
  2.991374e+01    7.895486e-01
  2.992961e+01    7.765525e-01
  2.994549e+01    7.782885e-01
  2.996136e+01    7.875737e-01
  2.997724e+01    8.189858e-01
  2.999312e+01    8.127217e-01
  3.000899e+01    7.904895e-01
  3.002487e+01    7.878349e-01
  3.004074e+01    8.204944e-01
  3.005662e+01    8.165494e-01
  3.007249e+01    8.026070e-01
  3.008837e+01    7.927774e-01
  3.010424e+01    8.038654e-01
  3.012012e+01    8.003719e-01
  3.013600e+01    7.914406e-01
  3.015187e+01    7.767933e-01
  3.016775e+01    7.977688e-01
  3.018362e+01    8.010294e-01
  3.019950e+01    8.006163e-01
  3.021537e+01    7.990053e-01
  3.023125e+01    7.869201e-01
  3.024712e+01    7.897598e-01
  3.026300e+01    7.979405e-01
  3.027888e+01    7.892855e-01
  3.029475e+01    7.679625e-01
  3.031063e+01    7.512725e-01
  3.032650e+01    7.419248e-01
  3.034238e+01    7.561238e-01
  3.035825e+01    7.789580e-01
  3.037413e+01    7.822404e-01
  3.039000e+01    8.014454e-01
  3.040588e+01    7.773956e-01
  3.042176e+01    7.626987e-01
  3.043763e+01    7.733656e-01
  3.045351e+01    7.596187e-01
  3.046938e+01    7.773482e-01
  3.048526e+01    7.928208e-01
  3.050113e+01    7.863554e-01
  3.051701e+01    7.790818e-01
  3.053288e+01    7.572914e-01
  3.054876e+01    7.535864e-01
  3.056464e+01    7.680256e-01
  3.058051e+01    7.673389e-01
  3.059639e+01    7.752467e-01
  3.061226e+01    7.619436e-01
  3.062814e+01    7.682505e-01
  3.064401e+01    7.763644e-01
  3.065989e+01    7.735003e-01
  3.067577e+01    7.713373e-01
  3.069164e+01    7.792276e-01
  3.070752e+01    7.781043e-01
  3.072339e+01    7.789020e-01
  3.073927e+01    7.795012e-01
  3.075514e+01    7.787552e-01
  3.077102e+01    7.727521e-01
  3.078689e+01    7.806442e-01
  3.080277e+01    7.590435e-01
  3.081865e+01    7.907017e-01
  3.083452e+01    7.868550e-01
  3.085040e+01    8.120418e-01
  3.086627e+01    7.759169e-01
  3.088215e+01    7.460096e-01
  3.089802e+01    7.502869e-01
  3.091390e+01    7.743528e-01
  3.092977e+01    7.667978e-01
  3.094565e+01    7.801528e-01
  3.096153e+01    7.632756e-01
  3.097740e+01    7.813384e-01
  3.099328e+01    7.881081e-01
  3.100915e+01    7.785394e-01
  3.102503e+01    7.907563e-01
  3.104090e+01    7.783998e-01
  3.105678e+01    7.871942e-01
  3.107265e+01    7.912455e-01
  3.108853e+01    7.823139e-01
  3.110441e+01    7.816038e-01
  3.112028e+01    7.853364e-01
  3.113616e+01    7.784182e-01
  3.115203e+01    7.848746e-01
  3.116791e+01    7.898877e-01
  3.118378e+01    7.983658e-01
  3.119966e+01    7.884108e-01
  3.121553e+01    7.879317e-01
  3.123141e+01    7.833902e-01
  3.124729e+01    7.738993e-01
  3.126316e+01    7.935949e-01
  3.127904e+01    7.724327e-01
  3.129491e+01    7.826566e-01
  3.131079e+01    7.765648e-01
  3.132666e+01    7.822294e-01
  3.134254e+01    7.843117e-01
  3.135841e+01    7.872483e-01
  3.137429e+01    7.919675e-01
  3.139017e+01    8.168908e-01
  3.140604e+01    8.344157e-01
  3.142192e+01    8.152537e-01
  3.143779e+01    8.181445e-01
  3.145367e+01    8.156662e-01
  3.146954e+01    8.104795e-01
  3.148542e+01    7.998525e-01
  3.150129e+01    8.202539e-01
  3.151717e+01    8.477970e-01
  3.153305e+01    8.412585e-01
  3.154892e+01    8.453215e-01
  3.156480e+01    8.402484e-01
  3.158067e+01    8.717275e-01
  3.159655e+01    8.739074e-01
  3.161242e+01    8.571626e-01
  3.162830e+01    8.708084e-01
  3.164418e+01    8.884551e-01
  3.166005e+01    9.321797e-01
  3.167593e+01    9.434404e-01
  3.169180e+01    9.730433e-01
  3.170768e+01    9.902354e-01
  3.172355e+01    1.044438e+00
  3.173943e+01    1.101653e+00
  3.175530e+01    1.175191e+00
  3.177118e+01    1.223527e+00
  3.178706e+01    1.339926e+00
  3.180293e+01    1.443883e+00
  3.181881e+01    1.549212e+00
  3.183468e+01    1.669367e+00
  3.185056e+01    1.822732e+00
  3.186643e+01    1.934906e+00
  3.188231e+01    2.033269e+00
  3.189818e+01    2.082459e+00
  3.191406e+01    2.084724e+00
  3.192994e+01    2.057033e+00
  3.194581e+01    1.927840e+00
  3.196169e+01    1.848335e+00
  3.197756e+01    1.697783e+00
  3.199344e+01    1.540728e+00
  3.200931e+01    1.417257e+00
  3.202519e+01    1.305999e+00
  3.204106e+01    1.199194e+00
  3.205694e+01    1.144536e+00
  3.207282e+01    1.077403e+00
  3.208869e+01    1.004387e+00
  3.210457e+01    9.942349e-01
  3.212044e+01    9.866863e-01
  3.213632e+01    9.347750e-01
  3.215219e+01    9.127553e-01
  3.216807e+01    8.830957e-01
  3.218394e+01    8.638954e-01
  3.219982e+01    8.469222e-01
  3.221570e+01    8.624312e-01
  3.223157e+01    8.434416e-01
  3.224745e+01    8.490514e-01
  3.226332e+01    8.249729e-01
  3.227920e+01    8.224474e-01
  3.229507e+01    8.315527e-01
  3.231095e+01    7.945190e-01
  3.232682e+01    7.989517e-01
  3.234270e+01    7.927910e-01
  3.235858e+01    8.134998e-01
  3.237445e+01    7.745689e-01
  3.239033e+01    7.743044e-01
  3.240620e+01    7.842830e-01
  3.242208e+01    7.651851e-01
  3.243795e+01    7.569144e-01
  3.245383e+01    7.609993e-01
  3.246970e+01    7.867544e-01
  3.248558e+01    8.027210e-01
  3.250146e+01    7.945217e-01
  3.251733e+01    7.605658e-01
  3.253321e+01    7.727423e-01
  3.254908e+01    7.706113e-01
