# == pyFAI calibration ==
# Distance Sample to Detector: 0.3999999939076516 m
# PONI: 9.750e-02, 1.135e-01 m
# Rotations: -0.000175 0.000000 -0.000000 rad
# 
# == Fit2d calibration ==
# Distance Sample-beamCenter: 400.000 mm
# Center: x=1514.000, y=1300.000 pix
# Tilt: 0.010 deg  TiltPlanRot: 0.010 deg
# 
# Detector Detector	 Spline= None	 PixelSize= 7.500e-05, 7.500e-05 m
#    Detector has a mask: False 
#    Detector has a dark current: False 
#    detector has a flat field: False 
# 
# Wavelength: 6.888e-11 m
# Mask applied: user provided
# Dark current applied: False
# Flat field applied: False
# Polarization factor: 0.99
# Normalization factor: 1.0
# --> /home/myspot/data/2024_07_Rosario/Ru-CGO-ex/2024-07-27_003_Ru-CGO-ex_Reaction_dwell_000023_data_000099.dat
#       q_nm^-1             I 
  2.003187e-02    0.000000e+00
  3.590745e-02    0.000000e+00
  5.178302e-02    2.672067e-02
  6.765859e-02    5.596358e-02
  8.353417e-02    5.600673e-02
  9.940974e-02    1.154721e-01
  1.152853e-01    6.282267e-03
  1.311609e-01    2.854557e-02
  1.470365e-01    1.604886e-02
  1.629120e-01    4.990589e-02
  1.787876e-01    6.294749e-02
  1.946632e-01    4.948201e-02
  2.105388e-01    2.232513e-02
  2.264143e-01    0.000000e+00
  2.422899e-01    0.000000e+00
  2.581655e-01    5.548905e-03
  2.740411e-01    1.469452e-02
  2.899166e-01    8.741093e-03
  3.057922e-01    3.717593e-02
  3.216678e-01    4.951444e-02
  3.375433e-01    8.901723e-02
  3.534189e-01    5.628168e-02
  3.692945e-01    3.348474e-02
  3.851701e-01    4.410974e-02
  4.010456e-01    5.163873e-02
  4.169212e-01    3.178801e-02
  4.327968e-01    3.195650e-02
  4.486724e-01    3.576035e-02
  4.645479e-01    3.382445e-02
  4.804235e-01    3.007587e-02
  4.962991e-01    3.541626e-02
  5.121747e-01    4.131494e-02
  5.280502e-01    2.049700e-02
  5.439258e-01    7.040670e-03
  5.598014e-01    1.243026e-02
  5.756770e-01    4.116304e-02
  5.915525e-01    2.595638e-02
  6.074281e-01    5.006464e-02
  6.233037e-01    5.270572e-02
  6.391793e-01    4.844769e-02
  6.550548e-01    2.950137e-02
  6.709304e-01    3.160953e-02
  6.868060e-01    3.801369e-02
  7.026815e-01    2.845251e-02
  7.185571e-01    1.810987e-02
  7.344327e-01    3.097507e-02
  7.503083e-01    3.539227e-02
  7.661838e-01    5.623981e-02
  7.820594e-01    1.308264e-01
  7.979350e-01    1.623588e-01
  8.138106e-01    1.604398e-01
  8.296861e-01    3.248228e-01
  8.455617e-01    3.744232e-01
  8.614373e-01    4.576579e-01
  8.773129e-01    4.630831e-01
  8.931884e-01    5.269028e-01
  9.090640e-01    6.407254e-01
  9.249396e-01    6.274208e-01
  9.408152e-01    7.075728e-01
  9.566907e-01    8.722494e-01
  9.725663e-01    1.051545e+00
  9.884419e-01    1.071686e+00
  1.004317e+00    1.145717e+00
  1.020193e+00    1.227528e+00
  1.036069e+00    1.202603e+00
  1.051944e+00    1.360949e+00
  1.067820e+00    1.405511e+00
  1.083695e+00    1.470865e+00
  1.099571e+00    1.502294e+00
  1.115446e+00    1.551566e+00
  1.131322e+00    1.675899e+00
  1.147198e+00    1.760159e+00
  1.163073e+00    1.723570e+00
  1.178949e+00    1.652144e+00
  1.194824e+00    1.923699e+00
  1.210700e+00    2.142705e+00
  1.226575e+00    2.282202e+00
  1.242451e+00    2.407481e+00
  1.258327e+00    2.494525e+00
  1.274202e+00    2.518093e+00
  1.290078e+00    2.600410e+00
  1.305953e+00    2.670654e+00
  1.321829e+00    2.739809e+00
  1.337705e+00    2.770050e+00
  1.353580e+00    2.872079e+00
  1.369456e+00    2.776533e+00
  1.385331e+00    2.767791e+00
  1.401207e+00    2.797835e+00
  1.417082e+00    2.961645e+00
  1.432958e+00    2.918387e+00
  1.448834e+00    2.953408e+00
  1.464709e+00    3.016910e+00
  1.480585e+00    3.075515e+00
  1.496460e+00    3.151060e+00
  1.512336e+00    3.188275e+00
  1.528211e+00    3.161458e+00
  1.544087e+00    3.229937e+00
  1.559963e+00    3.344222e+00
  1.575838e+00    3.190881e+00
  1.591714e+00    3.350873e+00
  1.607589e+00    3.342777e+00
  1.623465e+00    3.210636e+00
  1.639340e+00    3.082029e+00
  1.655216e+00    2.982810e+00
  1.671092e+00    3.112203e+00
  1.686967e+00    3.129942e+00
  1.702843e+00    3.107687e+00
  1.718718e+00    3.124360e+00
  1.734594e+00    3.150353e+00
  1.750469e+00    3.006725e+00
  1.766345e+00    3.077319e+00
  1.782221e+00    3.192870e+00
  1.798096e+00    3.147218e+00
  1.813972e+00    3.053569e+00
  1.829847e+00    3.115352e+00
  1.845723e+00    3.150027e+00
  1.861598e+00    2.934479e+00
  1.877474e+00    2.989700e+00
  1.893350e+00    2.999859e+00
  1.909225e+00    2.975327e+00
  1.925101e+00    3.024066e+00
  1.940976e+00    3.125407e+00
  1.956852e+00    3.142246e+00
  1.972727e+00    2.983906e+00
  1.988603e+00    3.060562e+00
  2.004479e+00    3.112532e+00
  2.020354e+00    3.097870e+00
  2.036230e+00    3.100710e+00
  2.052105e+00    3.035521e+00
  2.067981e+00    2.950904e+00
  2.083856e+00    3.054713e+00
  2.099732e+00    3.141462e+00
  2.115608e+00    3.095790e+00
  2.131483e+00    3.052834e+00
  2.147359e+00    3.124593e+00
  2.163234e+00    3.104758e+00
  2.179110e+00    3.122009e+00
  2.194985e+00    3.129933e+00
  2.210861e+00    3.165338e+00
  2.226737e+00    3.110642e+00
  2.242612e+00    3.180051e+00
  2.258488e+00    3.196268e+00
  2.274363e+00    3.172391e+00
  2.290239e+00    3.176442e+00
  2.306115e+00    3.122605e+00
  2.321990e+00    3.118247e+00
  2.337866e+00    3.134234e+00
  2.353741e+00    3.106097e+00
  2.369617e+00    3.028071e+00
  2.385492e+00    3.120733e+00
  2.401368e+00    3.072610e+00
  2.417244e+00    3.128937e+00
  2.433119e+00    3.127513e+00
  2.448995e+00    3.064349e+00
  2.464870e+00    3.239186e+00
  2.480746e+00    3.276767e+00
  2.496621e+00    3.237356e+00
  2.512497e+00    3.230059e+00
  2.528373e+00    3.233095e+00
  2.544248e+00    3.256312e+00
  2.560124e+00    3.358871e+00
  2.575999e+00    3.240614e+00
  2.591875e+00    3.287587e+00
  2.607750e+00    3.300842e+00
  2.623626e+00    3.325608e+00
  2.639502e+00    3.229770e+00
  2.655377e+00    3.238381e+00
  2.671253e+00    3.257109e+00
  2.687128e+00    3.284749e+00
  2.703004e+00    3.308594e+00
  2.718879e+00    3.294362e+00
  2.734755e+00    3.194838e+00
  2.750631e+00    3.279921e+00
  2.766506e+00    3.235972e+00
  2.782382e+00    3.284522e+00
  2.798257e+00    3.293432e+00
  2.814133e+00    3.223113e+00
  2.830008e+00    3.296694e+00
  2.845884e+00    3.320539e+00
  2.861760e+00    3.346303e+00
  2.877635e+00    3.337895e+00
  2.893511e+00    3.314890e+00
  2.909386e+00    3.319369e+00
  2.925262e+00    3.283674e+00
  2.941137e+00    3.387643e+00
  2.957013e+00    3.379838e+00
  2.972889e+00    3.350589e+00
  2.988764e+00    3.301753e+00
  3.004640e+00    3.239734e+00
  3.020515e+00    3.333739e+00
  3.036391e+00    3.377347e+00
  3.052266e+00    3.441294e+00
  3.068142e+00    3.483812e+00
  3.084018e+00    3.355923e+00
  3.099893e+00    3.256141e+00
  3.115769e+00    3.333729e+00
  3.131644e+00    3.348082e+00
  3.147520e+00    3.378358e+00
  3.163395e+00    3.329108e+00
  3.179271e+00    3.327521e+00
  3.195147e+00    3.350716e+00
  3.211022e+00    3.323197e+00
  3.226898e+00    3.474247e+00
  3.242773e+00    3.529711e+00
  3.258649e+00    3.512028e+00
  3.274525e+00    3.452080e+00
  3.290400e+00    3.417648e+00
  3.306276e+00    3.475384e+00
  3.322151e+00    3.477186e+00
  3.338027e+00    3.376473e+00
  3.353902e+00    3.331823e+00
  3.369778e+00    3.323914e+00
  3.385654e+00    3.414112e+00
  3.401529e+00    3.339493e+00
  3.417405e+00    3.343322e+00
  3.433280e+00    3.316324e+00
  3.449156e+00    3.412689e+00
  3.465031e+00    3.439486e+00
  3.480907e+00    3.409023e+00
  3.496783e+00    3.459085e+00
  3.512658e+00    3.519956e+00
  3.528534e+00    3.488065e+00
  3.544409e+00    3.456152e+00
  3.560285e+00    3.438627e+00
  3.576160e+00    3.457460e+00
  3.592036e+00    3.423245e+00
  3.607912e+00    3.480744e+00
  3.623787e+00    3.550219e+00
  3.639663e+00    3.553349e+00
  3.655538e+00    3.524010e+00
  3.671414e+00    3.510931e+00
  3.687289e+00    3.487559e+00
  3.703165e+00    3.429055e+00
  3.719041e+00    3.428525e+00
  3.734916e+00    3.374809e+00
  3.750792e+00    3.423645e+00
  3.766667e+00    3.322377e+00
  3.782543e+00    3.367526e+00
  3.798418e+00    3.459279e+00
  3.814294e+00    3.572008e+00
  3.830170e+00    3.553479e+00
  3.846045e+00    3.441125e+00
  3.861921e+00    3.475961e+00
  3.877796e+00    3.491781e+00
  3.893672e+00    3.476296e+00
  3.909547e+00    3.582488e+00
  3.925423e+00    3.612883e+00
  3.941299e+00    3.520975e+00
  3.957174e+00    3.475646e+00
  3.973050e+00    3.552025e+00
  3.988925e+00    3.556293e+00
  4.004801e+00    3.530217e+00
  4.020676e+00    3.648470e+00
  4.036552e+00    3.587620e+00
  4.052428e+00    3.553240e+00
  4.068303e+00    3.569634e+00
  4.084179e+00    3.700068e+00
  4.100054e+00    3.585665e+00
  4.115930e+00    3.511869e+00
  4.131806e+00    3.533667e+00
  4.147681e+00    3.581736e+00
  4.163557e+00    3.540098e+00
  4.179432e+00    3.475665e+00
  4.195308e+00    3.613430e+00
  4.211183e+00    3.589872e+00
  4.227059e+00    3.637160e+00
  4.242935e+00    3.598756e+00
  4.258810e+00    3.631103e+00
  4.274686e+00    3.604473e+00
  4.290561e+00    3.548926e+00
  4.306437e+00    3.558856e+00
  4.322312e+00    3.625380e+00
  4.338188e+00    3.604681e+00
  4.354064e+00    3.564426e+00
  4.369939e+00    3.531437e+00
  4.385815e+00    3.598457e+00
  4.401690e+00    3.615384e+00
  4.417566e+00    3.517004e+00
  4.433441e+00    3.548006e+00
  4.449317e+00    3.626926e+00
  4.465193e+00    3.621533e+00
  4.481068e+00    3.601303e+00
  4.496944e+00    3.652197e+00
  4.512819e+00    3.553579e+00
  4.528695e+00    3.567614e+00
  4.544570e+00    3.546998e+00
  4.560446e+00    3.506533e+00
  4.576322e+00    3.567040e+00
  4.592197e+00    3.647344e+00
  4.608073e+00    3.663772e+00
  4.623948e+00    3.528722e+00
  4.639824e+00    3.539839e+00
  4.655699e+00    3.642272e+00
  4.671575e+00    3.705102e+00
  4.687451e+00    3.686464e+00
  4.703326e+00    3.570734e+00
  4.719202e+00    3.556907e+00
  4.735077e+00    3.519710e+00
  4.750953e+00    3.566143e+00
  4.766828e+00    3.555580e+00
  4.782704e+00    3.584384e+00
  4.798580e+00    3.664460e+00
  4.814455e+00    3.645755e+00
  4.830331e+00    3.609245e+00
  4.846206e+00    3.655268e+00
  4.862082e+00    3.667719e+00
  4.877957e+00    3.595304e+00
  4.893833e+00    3.570262e+00
  4.909709e+00    3.551061e+00
  4.925584e+00    3.585814e+00
  4.941460e+00    3.637822e+00
  4.957335e+00    3.655302e+00
  4.973211e+00    3.689372e+00
  4.989086e+00    3.726719e+00
  5.004962e+00    3.680370e+00
  5.020838e+00    3.704408e+00
  5.036713e+00    3.632259e+00
  5.052589e+00    3.636598e+00
  5.068464e+00    3.641682e+00
  5.084340e+00    3.630628e+00
  5.100216e+00    3.622339e+00
  5.116091e+00    3.695008e+00
  5.131967e+00    3.682825e+00
  5.147842e+00    3.612126e+00
  5.163718e+00    3.622299e+00
  5.179593e+00    3.666025e+00
  5.195469e+00    3.722055e+00
  5.211345e+00    3.693884e+00
  5.227220e+00    3.655706e+00
  5.243096e+00    3.630761e+00
  5.258971e+00    3.583826e+00
  5.274847e+00    3.578712e+00
  5.290722e+00    3.616392e+00
  5.306598e+00    3.624170e+00
  5.322474e+00    3.584106e+00
  5.338349e+00    3.648261e+00
  5.354225e+00    3.709417e+00
  5.370100e+00    3.668156e+00
  5.385976e+00    3.670927e+00
  5.401851e+00    3.661167e+00
  5.417727e+00    3.699600e+00
  5.433603e+00    3.617388e+00
  5.449478e+00    3.636063e+00
  5.465354e+00    3.611002e+00
  5.481229e+00    3.584717e+00
  5.497105e+00    3.672052e+00
  5.512980e+00    3.653128e+00
  5.528856e+00    3.616122e+00
  5.544732e+00    3.553961e+00
  5.560607e+00    3.557200e+00
  5.576483e+00    3.568502e+00
  5.592358e+00    3.524045e+00
  5.608234e+00    3.580871e+00
  5.624109e+00    3.577994e+00
  5.639985e+00    3.628839e+00
  5.655861e+00    3.617353e+00
  5.671736e+00    3.552843e+00
  5.687612e+00    3.552032e+00
  5.703487e+00    3.651738e+00
  5.719363e+00    3.633185e+00
  5.735238e+00    3.663908e+00
  5.751114e+00    3.631298e+00
  5.766990e+00    3.519375e+00
  5.782865e+00    3.536620e+00
  5.798741e+00    3.585843e+00
  5.814616e+00    3.563394e+00
  5.830492e+00    3.507851e+00
  5.846367e+00    3.593645e+00
  5.862243e+00    3.570974e+00
  5.878119e+00    3.563905e+00
  5.893994e+00    3.541301e+00
  5.909870e+00    3.545219e+00
  5.925745e+00    3.500720e+00
  5.941621e+00    3.469783e+00
  5.957497e+00    3.511484e+00
  5.973372e+00    3.636034e+00
  5.989248e+00    3.532361e+00
  6.005123e+00    3.482389e+00
  6.020999e+00    3.598152e+00
  6.036874e+00    3.480113e+00
  6.052750e+00    3.520025e+00
  6.068626e+00    3.572958e+00
  6.084501e+00    3.605894e+00
  6.100377e+00    3.571805e+00
  6.116252e+00    3.591470e+00
  6.132128e+00    3.650894e+00
  6.148003e+00    3.582366e+00
  6.163879e+00    3.591179e+00
  6.179755e+00    3.588635e+00
  6.195630e+00    3.668187e+00
  6.211506e+00    3.704918e+00
  6.227381e+00    3.608532e+00
  6.243257e+00    3.575235e+00
  6.259132e+00    3.531333e+00
  6.275008e+00    3.567577e+00
  6.290884e+00    3.614162e+00
  6.306759e+00    3.581713e+00
  6.322635e+00    3.505850e+00
  6.338510e+00    3.547455e+00
  6.354386e+00    3.538927e+00
  6.370261e+00    3.595710e+00
  6.386137e+00    3.562088e+00
  6.402013e+00    3.484256e+00
  6.417888e+00    3.549836e+00
  6.433764e+00    3.508790e+00
  6.449639e+00    3.523026e+00
  6.465515e+00    3.544014e+00
  6.481390e+00    3.521818e+00
  6.497266e+00    3.538653e+00
  6.513142e+00    3.544534e+00
  6.529017e+00    3.612768e+00
  6.544893e+00    3.584837e+00
  6.560768e+00    3.633540e+00
  6.576644e+00    3.582717e+00
  6.592519e+00    3.549898e+00
  6.608395e+00    3.524271e+00
  6.624271e+00    3.561335e+00
  6.640146e+00    3.557845e+00
  6.656022e+00    3.581237e+00
  6.671897e+00    3.597882e+00
  6.687773e+00    3.609134e+00
  6.703648e+00    3.581025e+00
  6.719524e+00    3.520120e+00
  6.735400e+00    3.526257e+00
  6.751275e+00    3.504349e+00
  6.767151e+00    3.465488e+00
  6.783026e+00    3.497101e+00
  6.798902e+00    3.517715e+00
  6.814777e+00    3.561041e+00
  6.830653e+00    3.590273e+00
  6.846529e+00    3.496050e+00
  6.862404e+00    3.514910e+00
  6.878280e+00    3.559745e+00
  6.894155e+00    3.553072e+00
  6.910031e+00    3.559855e+00
  6.925907e+00    3.582057e+00
  6.941782e+00    3.599636e+00
  6.957658e+00    3.553296e+00
  6.973533e+00    3.539432e+00
  6.989409e+00    3.511017e+00
  7.005284e+00    3.528646e+00
  7.021160e+00    3.533330e+00
  7.037036e+00    3.476995e+00
  7.052911e+00    3.470052e+00
  7.068787e+00    3.559924e+00
  7.084662e+00    3.536380e+00
  7.100538e+00    3.572988e+00
  7.116413e+00    3.495405e+00
  7.132289e+00    3.466858e+00
  7.148165e+00    3.506769e+00
  7.164040e+00    3.574802e+00
  7.179916e+00    3.524139e+00
  7.195791e+00    3.520694e+00
  7.211667e+00    3.524828e+00
  7.227542e+00    3.536942e+00
  7.243418e+00    3.526260e+00
  7.259294e+00    3.513294e+00
  7.275169e+00    3.463468e+00
  7.291045e+00    3.491017e+00
  7.306920e+00    3.526387e+00
  7.322796e+00    3.557546e+00
  7.338671e+00    3.476902e+00
  7.354547e+00    3.511443e+00
  7.370423e+00    3.493097e+00
  7.386298e+00    3.498544e+00
  7.402174e+00    3.547420e+00
  7.418049e+00    3.501269e+00
  7.433925e+00    3.545028e+00
  7.449800e+00    3.519520e+00
  7.465676e+00    3.401359e+00
  7.481552e+00    3.432174e+00
  7.497427e+00    3.564739e+00
  7.513303e+00    3.489547e+00
  7.529178e+00    3.486953e+00
  7.545054e+00    3.437646e+00
  7.560929e+00    3.491600e+00
  7.576805e+00    3.472955e+00
  7.592681e+00    3.455101e+00
  7.608556e+00    3.414318e+00
  7.624432e+00    3.503934e+00
  7.640307e+00    3.520674e+00
  7.656183e+00    3.513072e+00
  7.672058e+00    3.509251e+00
  7.687934e+00    3.462547e+00
  7.703810e+00    3.470112e+00
  7.719685e+00    3.448542e+00
  7.735561e+00    3.441206e+00
  7.751436e+00    3.442508e+00
  7.767312e+00    3.487008e+00
  7.783187e+00    3.434372e+00
  7.799063e+00    3.402426e+00
  7.814939e+00    3.460404e+00
  7.830814e+00    3.410650e+00
  7.846690e+00    3.399919e+00
  7.862565e+00    3.456372e+00
  7.878441e+00    3.461926e+00
  7.894317e+00    3.396168e+00
  7.910192e+00    3.420116e+00
  7.926068e+00    3.474521e+00
  7.941943e+00    3.424280e+00
  7.957819e+00    3.430679e+00
  7.973694e+00    3.425426e+00
  7.989570e+00    3.400361e+00
  8.005446e+00    3.475768e+00
  8.021321e+00    3.471282e+00
  8.037197e+00    3.403815e+00
  8.053072e+00    3.446472e+00
  8.068948e+00    3.430534e+00
  8.084823e+00    3.420186e+00
  8.100699e+00    3.438363e+00
  8.116575e+00    3.493261e+00
  8.132450e+00    3.503111e+00
  8.148326e+00    3.506112e+00
  8.164201e+00    3.503904e+00
  8.180077e+00    3.450738e+00
  8.195952e+00    3.346970e+00
  8.211828e+00    3.454707e+00
  8.227704e+00    3.513485e+00
  8.243579e+00    3.545510e+00
  8.259455e+00    3.392871e+00
  8.275330e+00    3.401114e+00
  8.291206e+00    3.504258e+00
  8.307081e+00    3.487259e+00
  8.322957e+00    3.447948e+00
  8.338833e+00    3.388355e+00
  8.354708e+00    3.400298e+00
  8.370584e+00    3.395772e+00
  8.386459e+00    3.380044e+00
  8.402335e+00    3.401792e+00
  8.418210e+00    3.378962e+00
  8.434086e+00    3.396509e+00
  8.449962e+00    3.366582e+00
  8.465837e+00    3.357763e+00
  8.481713e+00    3.384589e+00
  8.497588e+00    3.357442e+00
  8.513464e+00    3.409221e+00
  8.529339e+00    3.359036e+00
  8.545215e+00    3.331964e+00
  8.561091e+00    3.346206e+00
  8.576966e+00    3.333436e+00
  8.592842e+00    3.323225e+00
  8.608717e+00    3.360328e+00
  8.624593e+00    3.347614e+00
  8.640468e+00    3.349259e+00
  8.656344e+00    3.324941e+00
  8.672220e+00    3.332420e+00
  8.688095e+00    3.372090e+00
  8.703971e+00    3.335172e+00
  8.719846e+00    3.354329e+00
  8.735722e+00    3.321036e+00
  8.751598e+00    3.296875e+00
  8.767473e+00    3.392842e+00
  8.783349e+00    3.308624e+00
  8.799224e+00    3.313923e+00
  8.815100e+00    3.324429e+00
  8.830975e+00    3.360683e+00
  8.846851e+00    3.348891e+00
  8.862727e+00    3.347907e+00
  8.878602e+00    3.266161e+00
  8.894478e+00    3.242775e+00
  8.910353e+00    3.319132e+00
  8.926229e+00    3.369304e+00
  8.942104e+00    3.287613e+00
  8.957980e+00    3.281312e+00
  8.973856e+00    3.281701e+00
  8.989731e+00    3.241411e+00
  9.005607e+00    3.262318e+00
  9.021482e+00    3.285066e+00
  9.037358e+00    3.267268e+00
  9.053233e+00    3.221561e+00
  9.069109e+00    3.219954e+00
  9.084985e+00    3.241086e+00
  9.100860e+00    3.277694e+00
  9.116736e+00    3.292996e+00
  9.132611e+00    3.282612e+00
  9.148487e+00    3.258102e+00
  9.164362e+00    3.272241e+00
  9.180238e+00    3.250930e+00
  9.196114e+00    3.263554e+00
  9.211989e+00    3.267890e+00
  9.227865e+00    3.265394e+00
  9.243740e+00    3.237107e+00
  9.259616e+00    3.187563e+00
  9.275491e+00    3.288431e+00
  9.291367e+00    3.222020e+00
  9.307243e+00    3.252980e+00
  9.323118e+00    3.283632e+00
  9.338994e+00    3.246081e+00
  9.354869e+00    3.198109e+00
  9.370745e+00    3.210396e+00
  9.386620e+00    3.260123e+00
  9.402496e+00    3.317101e+00
  9.418372e+00    3.300905e+00
  9.434247e+00    3.251247e+00
  9.450123e+00    3.197992e+00
  9.465998e+00    3.224056e+00
  9.481874e+00    3.217147e+00
  9.497749e+00    3.208896e+00
  9.513625e+00    3.235193e+00
  9.529501e+00    3.238726e+00
  9.545376e+00    3.206023e+00
  9.561252e+00    3.233501e+00
  9.577127e+00    3.205497e+00
  9.593003e+00    3.171189e+00
  9.608878e+00    3.128301e+00
  9.624754e+00    3.185925e+00
  9.640630e+00    3.254836e+00
  9.656505e+00    3.243335e+00
  9.672381e+00    3.228065e+00
  9.688256e+00    3.225236e+00
  9.704132e+00    3.212833e+00
  9.720008e+00    3.215961e+00
  9.735883e+00    3.157726e+00
  9.751759e+00    3.157576e+00
  9.767634e+00    3.169143e+00
  9.783510e+00    3.159939e+00
  9.799385e+00    3.182671e+00
  9.815261e+00    3.178414e+00
  9.831137e+00    3.155272e+00
  9.847012e+00    3.141695e+00
  9.862888e+00    3.165145e+00
  9.878763e+00    3.182014e+00
  9.894639e+00    3.124630e+00
  9.910514e+00    3.160913e+00
  9.926390e+00    3.184615e+00
  9.942266e+00    3.205831e+00
  9.958141e+00    3.142252e+00
  9.974017e+00    3.132692e+00
  9.989892e+00    3.163649e+00
  1.000577e+01    3.102380e+00
  1.002164e+01    3.094612e+00
  1.003752e+01    3.162448e+00
  1.005339e+01    3.163718e+00
  1.006927e+01    3.100742e+00
  1.008515e+01    3.103957e+00
  1.010102e+01    3.137829e+00
  1.011690e+01    3.078293e+00
  1.013277e+01    3.011982e+00
  1.014865e+01    2.966190e+00
  1.016452e+01    3.049480e+00
  1.018040e+01    3.062427e+00
  1.019627e+01    3.070972e+00
  1.021215e+01    3.084185e+00
  1.022803e+01    3.097490e+00
  1.024390e+01    3.094191e+00
  1.025978e+01    3.096885e+00
  1.027565e+01    3.102505e+00
  1.029153e+01    3.067308e+00
  1.030740e+01    3.108566e+00
  1.032328e+01    3.052396e+00
  1.033915e+01    3.031375e+00
  1.035503e+01    3.043139e+00
  1.037091e+01    3.031204e+00
  1.038678e+01    3.013604e+00
  1.040266e+01    3.034851e+00
  1.041853e+01    3.084521e+00
  1.043441e+01    3.013051e+00
  1.045028e+01    3.003268e+00
  1.046616e+01    3.039614e+00
  1.048204e+01    3.039468e+00
  1.049791e+01    3.023443e+00
  1.051379e+01    3.031013e+00
  1.052966e+01    3.016411e+00
  1.054554e+01    2.969814e+00
  1.056141e+01    2.948325e+00
  1.057729e+01    2.974837e+00
  1.059316e+01    2.997343e+00
  1.060904e+01    2.995974e+00
  1.062492e+01    3.026223e+00
  1.064079e+01    3.034533e+00
  1.065667e+01    2.968195e+00
  1.067254e+01    2.927466e+00
  1.068842e+01    2.985633e+00
  1.070429e+01    2.976484e+00
  1.072017e+01    2.991028e+00
  1.073604e+01    2.957707e+00
  1.075192e+01    2.988399e+00
  1.076780e+01    2.971065e+00
  1.078367e+01    2.954273e+00
  1.079955e+01    3.011123e+00
  1.081542e+01    2.967974e+00
  1.083130e+01    2.980817e+00
  1.084717e+01    3.015907e+00
  1.086305e+01    2.984626e+00
  1.087892e+01    2.992000e+00
  1.089480e+01    2.927195e+00
  1.091068e+01    2.904763e+00
  1.092655e+01    2.945074e+00
  1.094243e+01    2.919286e+00
  1.095830e+01    2.896628e+00
  1.097418e+01    2.921923e+00
  1.099005e+01    2.940481e+00
  1.100593e+01    2.932440e+00
  1.102180e+01    2.951473e+00
  1.103768e+01    2.944584e+00
  1.105356e+01    2.938292e+00
  1.106943e+01    2.902380e+00
  1.108531e+01    2.889121e+00
  1.110118e+01    2.924558e+00
  1.111706e+01    2.900182e+00
  1.113293e+01    2.898458e+00
  1.114881e+01    2.890863e+00
  1.116468e+01    2.910050e+00
  1.118056e+01    2.933115e+00
  1.119644e+01    2.904632e+00
  1.121231e+01    2.879343e+00
  1.122819e+01    2.854123e+00
  1.124406e+01    2.874831e+00
  1.125994e+01    2.856010e+00
  1.127581e+01    2.845567e+00
  1.129169e+01    2.841215e+00
  1.130756e+01    2.851775e+00
  1.132344e+01    2.801035e+00
  1.133932e+01    2.828537e+00
  1.135519e+01    2.816993e+00
  1.137107e+01    2.902140e+00
  1.138694e+01    2.881288e+00
  1.140282e+01    2.832435e+00
  1.141869e+01    2.793220e+00
  1.143457e+01    2.822919e+00
  1.145045e+01    2.769052e+00
  1.146632e+01    2.765744e+00
  1.148220e+01    2.794252e+00
  1.149807e+01    2.831531e+00
  1.151395e+01    2.808997e+00
  1.152982e+01    2.815684e+00
  1.154570e+01    2.843289e+00
  1.156157e+01    2.794275e+00
  1.157745e+01    2.793217e+00
  1.159333e+01    2.765353e+00
  1.160920e+01    2.785306e+00
  1.162508e+01    2.833016e+00
  1.164095e+01    2.770161e+00
  1.165683e+01    2.792963e+00
  1.167270e+01    2.769974e+00
  1.168858e+01    2.737329e+00
  1.170445e+01    2.736660e+00
  1.172033e+01    2.706079e+00
  1.173621e+01    2.722708e+00
  1.175208e+01    2.754765e+00
  1.176796e+01    2.773316e+00
  1.178383e+01    2.769384e+00
  1.179971e+01    2.759228e+00
  1.181558e+01    2.756794e+00
  1.183146e+01    2.765466e+00
  1.184733e+01    2.774272e+00
  1.186321e+01    2.740560e+00
  1.187909e+01    2.753906e+00
  1.189496e+01    2.794695e+00
  1.191084e+01    2.761021e+00
  1.192671e+01    2.709563e+00
  1.194259e+01    2.696083e+00
  1.195846e+01    2.766655e+00
  1.197434e+01    2.787110e+00
  1.199021e+01    2.717957e+00
  1.200609e+01    2.695586e+00
  1.202197e+01    2.736873e+00
  1.203784e+01    2.750976e+00
  1.205372e+01    2.728686e+00
  1.206959e+01    2.731724e+00
  1.208547e+01    2.743470e+00
  1.210134e+01    2.682690e+00
  1.211722e+01    2.689095e+00
  1.213309e+01    2.717529e+00
  1.214897e+01    2.749862e+00
  1.216485e+01    2.712647e+00
  1.218072e+01    2.740869e+00
  1.219660e+01    2.721099e+00
  1.221247e+01    2.695707e+00
  1.222835e+01    2.683254e+00
  1.224422e+01    2.695083e+00
  1.226010e+01    2.711125e+00
  1.227597e+01    2.688620e+00
  1.229185e+01    2.686567e+00
  1.230773e+01    2.719930e+00
  1.232360e+01    2.679900e+00
  1.233948e+01    2.659674e+00
  1.235535e+01    2.689624e+00
  1.237123e+01    2.694690e+00
  1.238710e+01    2.736390e+00
  1.240298e+01    2.744693e+00
  1.241886e+01    2.748528e+00
  1.243473e+01    2.684822e+00
  1.245061e+01    2.683622e+00
  1.246648e+01    2.704761e+00
  1.248236e+01    2.671882e+00
  1.249823e+01    2.724739e+00
  1.251411e+01    2.744874e+00
  1.252998e+01    2.720963e+00
  1.254586e+01    2.719036e+00
  1.256174e+01    2.703016e+00
  1.257761e+01    2.714874e+00
  1.259349e+01    2.717344e+00
  1.260936e+01    2.738061e+00
  1.262524e+01    2.793920e+00
  1.264111e+01    2.779500e+00
  1.265699e+01    2.816753e+00
  1.267286e+01    2.819264e+00
  1.268874e+01    2.846031e+00
  1.270462e+01    2.807609e+00
  1.272049e+01    2.892971e+00
  1.273637e+01    2.974966e+00
  1.275224e+01    2.910324e+00
  1.276812e+01    2.915840e+00
  1.278399e+01    2.922668e+00
  1.279987e+01    2.993813e+00
  1.281574e+01    3.003695e+00
  1.283162e+01    3.099801e+00
  1.284750e+01    3.173429e+00
  1.286337e+01    3.280347e+00
  1.287925e+01    3.384004e+00
  1.289512e+01    3.515052e+00
  1.291100e+01    3.664869e+00
  1.292687e+01    3.827780e+00
  1.294275e+01    4.069958e+00
  1.295862e+01    4.400009e+00
  1.297450e+01    4.762612e+00
  1.299038e+01    5.229131e+00
  1.300625e+01    5.849503e+00
  1.302213e+01    6.691843e+00
  1.303800e+01    7.700732e+00
  1.305388e+01    8.825140e+00
  1.306975e+01    1.009323e+01
  1.308563e+01    1.143688e+01
  1.310150e+01    1.261573e+01
  1.311738e+01    1.372967e+01
  1.313326e+01    1.475010e+01
  1.314913e+01    1.543432e+01
  1.316501e+01    1.615567e+01
  1.318088e+01    1.635207e+01
  1.319676e+01    1.565775e+01
  1.321263e+01    1.427753e+01
  1.322851e+01    1.261987e+01
  1.324438e+01    1.076773e+01
  1.326026e+01    9.096971e+00
  1.327614e+01    7.837250e+00
  1.329201e+01    6.735403e+00
  1.330789e+01    5.913878e+00
  1.332376e+01    5.273901e+00
  1.333964e+01    4.843154e+00
  1.335551e+01    4.457465e+00
  1.337139e+01    4.131406e+00
  1.338727e+01    3.854107e+00
  1.340314e+01    3.655902e+00
  1.341902e+01    3.450487e+00
  1.343489e+01    3.294364e+00
  1.345077e+01    3.196055e+00
  1.346664e+01    3.125853e+00
  1.348252e+01    2.986169e+00
  1.349839e+01    2.928362e+00
  1.351427e+01    2.939024e+00
  1.353015e+01    2.912427e+00
  1.354602e+01    2.844897e+00
  1.356190e+01    2.791803e+00
  1.357777e+01    2.767507e+00
  1.359365e+01    2.749407e+00
  1.360952e+01    2.704730e+00
  1.362540e+01    2.695110e+00
  1.364127e+01    2.624646e+00
  1.365715e+01    2.605169e+00
  1.367303e+01    2.589323e+00
  1.368890e+01    2.567720e+00
  1.370478e+01    2.539806e+00
  1.372065e+01    2.513653e+00
  1.373653e+01    2.538604e+00
  1.375240e+01    2.543896e+00
  1.376828e+01    2.504123e+00
  1.378415e+01    2.506905e+00
  1.380003e+01    2.507431e+00
  1.381591e+01    2.479235e+00
  1.383178e+01    2.474956e+00
  1.384766e+01    2.453392e+00
  1.386353e+01    2.432821e+00
  1.387941e+01    2.465741e+00
  1.389528e+01    2.461203e+00
  1.391116e+01    2.390024e+00
  1.392703e+01    2.415864e+00
  1.394291e+01    2.424092e+00
  1.395879e+01    2.402451e+00
  1.397466e+01    2.374974e+00
  1.399054e+01    2.377185e+00
  1.400641e+01    2.378976e+00
  1.402229e+01    2.364884e+00
  1.403816e+01    2.393211e+00
  1.405404e+01    2.377821e+00
  1.406991e+01    2.330250e+00
  1.408579e+01    2.293069e+00
  1.410167e+01    2.323137e+00
  1.411754e+01    2.336604e+00
  1.413342e+01    2.325712e+00
  1.414929e+01    2.313698e+00
  1.416517e+01    2.298163e+00
  1.418104e+01    2.300009e+00
  1.419692e+01    2.308009e+00
  1.421279e+01    2.277818e+00
  1.422867e+01    2.280205e+00
  1.424455e+01    2.296134e+00
  1.426042e+01    2.246383e+00
  1.427630e+01    2.208896e+00
  1.429217e+01    2.220659e+00
  1.430805e+01    2.238239e+00
  1.432392e+01    2.268591e+00
  1.433980e+01    2.267610e+00
  1.435568e+01    2.223854e+00
  1.437155e+01    2.246053e+00
  1.438743e+01    2.285776e+00
  1.440330e+01    2.246241e+00
  1.441918e+01    2.232496e+00
  1.443505e+01    2.247041e+00
  1.445093e+01    2.285525e+00
  1.446680e+01    2.250262e+00
  1.448268e+01    2.281230e+00
  1.449856e+01    2.227773e+00
  1.451443e+01    2.258654e+00
  1.453031e+01    2.249274e+00
  1.454618e+01    2.231785e+00
  1.456206e+01    2.248634e+00
  1.457793e+01    2.223533e+00
  1.459381e+01    2.191721e+00
  1.460968e+01    2.184285e+00
  1.462556e+01    2.191930e+00
  1.464144e+01    2.225733e+00
  1.465731e+01    2.220226e+00
  1.467319e+01    2.193866e+00
  1.468906e+01    2.201606e+00
  1.470494e+01    2.196637e+00
  1.472081e+01    2.214232e+00
  1.473669e+01    2.233796e+00
  1.475256e+01    2.217541e+00
  1.476844e+01    2.211129e+00
  1.478432e+01    2.191867e+00
  1.480019e+01    2.165869e+00
  1.481607e+01    2.192470e+00
  1.483194e+01    2.217023e+00
  1.484782e+01    2.158204e+00
  1.486369e+01    2.248619e+00
  1.487957e+01    2.228167e+00
  1.489544e+01    2.233903e+00
  1.491132e+01    2.253462e+00
  1.492720e+01    2.283977e+00
  1.494307e+01    2.287598e+00
  1.495895e+01    2.322168e+00
  1.497482e+01    2.407381e+00
  1.499070e+01    2.470774e+00
  1.500657e+01    2.440655e+00
  1.502245e+01    2.494651e+00
  1.503832e+01    2.606930e+00
  1.505420e+01    2.738951e+00
  1.507008e+01    2.844914e+00
  1.508595e+01    2.958119e+00
  1.510183e+01    3.185258e+00
  1.511770e+01    3.484156e+00
  1.513358e+01    3.810342e+00
  1.514945e+01    4.191232e+00
  1.516533e+01    4.509778e+00
  1.518120e+01    4.830515e+00
  1.519708e+01    5.111575e+00
  1.521296e+01    5.395745e+00
  1.522883e+01    5.593074e+00
  1.524471e+01    5.696962e+00
  1.526058e+01    5.764883e+00
  1.527646e+01    5.675869e+00
  1.529233e+01    5.393332e+00
  1.530821e+01    5.120955e+00
  1.532409e+01    4.717869e+00
  1.533996e+01    4.265376e+00
  1.535584e+01    3.808761e+00
  1.537171e+01    3.453539e+00
  1.538759e+01    3.171561e+00
  1.540346e+01    2.929960e+00
  1.541934e+01    2.731313e+00
  1.543521e+01    2.624595e+00
  1.545109e+01    2.548975e+00
  1.546697e+01    2.446738e+00
  1.548284e+01    2.366965e+00
  1.549872e+01    2.308229e+00
  1.551459e+01    2.221854e+00
  1.553047e+01    2.194057e+00
  1.554634e+01    2.136454e+00
  1.556222e+01    2.101908e+00
  1.557809e+01    2.154615e+00
  1.559397e+01    2.160406e+00
  1.560985e+01    2.101532e+00
  1.562572e+01    2.088807e+00
  1.564160e+01    2.081064e+00
  1.565747e+01    2.055853e+00
  1.567335e+01    2.038500e+00
  1.568922e+01    2.065217e+00
  1.570510e+01    2.013425e+00
  1.572097e+01    1.992637e+00
  1.573685e+01    1.989052e+00
  1.575273e+01    1.987443e+00
  1.576860e+01    1.975434e+00
  1.578448e+01    1.972493e+00
  1.580035e+01    1.940745e+00
  1.581623e+01    1.979329e+00
  1.583210e+01    1.994047e+00
  1.584798e+01    1.958132e+00
  1.586385e+01    1.911898e+00
  1.587973e+01    1.890917e+00
  1.589561e+01    1.907878e+00
  1.591148e+01    1.909512e+00
  1.592736e+01    1.897004e+00
  1.594323e+01    1.897855e+00
  1.595911e+01    1.891274e+00
  1.597498e+01    1.891268e+00
  1.599086e+01    1.900409e+00
  1.600673e+01    1.892263e+00
  1.602261e+01    1.879127e+00
  1.603849e+01    1.866948e+00
  1.605436e+01    1.870298e+00
  1.607024e+01    1.845760e+00
  1.608611e+01    1.883772e+00
  1.610199e+01    1.837347e+00
  1.611786e+01    1.855914e+00
  1.613374e+01    1.873510e+00
  1.614961e+01    1.835931e+00
  1.616549e+01    1.822073e+00
  1.618137e+01    1.814062e+00
  1.619724e+01    1.823289e+00
  1.621312e+01    1.817437e+00
  1.622899e+01    1.793054e+00
  1.624487e+01    1.802095e+00
  1.626074e+01    1.779109e+00
  1.627662e+01    1.778802e+00
  1.629250e+01    1.776705e+00
  1.630837e+01    1.822173e+00
  1.632425e+01    1.791634e+00
  1.634012e+01    1.774024e+00
  1.635600e+01    1.782678e+00
  1.637187e+01    1.808147e+00
  1.638775e+01    1.797471e+00
  1.640362e+01    1.809991e+00
  1.641950e+01    1.768867e+00
  1.643538e+01    1.720301e+00
  1.645125e+01    1.737815e+00
  1.646713e+01    1.755012e+00
  1.648300e+01    1.754226e+00
  1.649888e+01    1.761032e+00
  1.651475e+01    1.750509e+00
  1.653063e+01    1.787599e+00
  1.654650e+01    1.786390e+00
  1.656238e+01    1.747699e+00
  1.657826e+01    1.749663e+00
  1.659413e+01    1.744534e+00
  1.661001e+01    1.742942e+00
  1.662588e+01    1.718333e+00
  1.664176e+01    1.710348e+00
  1.665763e+01    1.697142e+00
  1.667351e+01    1.729844e+00
  1.668938e+01    1.716520e+00
  1.670526e+01    1.696154e+00
  1.672114e+01    1.713320e+00
  1.673701e+01    1.700993e+00
  1.675289e+01    1.704734e+00
  1.676876e+01    1.705932e+00
  1.678464e+01    1.684197e+00
  1.680051e+01    1.711652e+00
  1.681639e+01    1.705015e+00
  1.683226e+01    1.716557e+00
  1.684814e+01    1.735549e+00
  1.686402e+01    1.679334e+00
  1.687989e+01    1.717939e+00
  1.689577e+01    1.710052e+00
  1.691164e+01    1.694620e+00
  1.692752e+01    1.677708e+00
  1.694339e+01    1.673434e+00
  1.695927e+01    1.682461e+00
  1.697514e+01    1.703894e+00
  1.699102e+01    1.701325e+00
  1.700690e+01    1.693381e+00
  1.702277e+01    1.647720e+00
  1.703865e+01    1.696485e+00
  1.705452e+01    1.664943e+00
  1.707040e+01    1.658982e+00
  1.708627e+01    1.668395e+00
  1.710215e+01    1.623318e+00
  1.711802e+01    1.639512e+00
  1.713390e+01    1.651200e+00
  1.714978e+01    1.611719e+00
  1.716565e+01    1.628882e+00
  1.718153e+01    1.647217e+00
  1.719740e+01    1.612654e+00
  1.721328e+01    1.631288e+00
  1.722915e+01    1.634049e+00
  1.724503e+01    1.624643e+00
  1.726091e+01    1.621215e+00
  1.727678e+01    1.633893e+00
  1.729266e+01    1.607074e+00
  1.730853e+01    1.625884e+00
  1.732441e+01    1.638249e+00
  1.734028e+01    1.622571e+00
  1.735616e+01    1.620781e+00
  1.737203e+01    1.590485e+00
  1.738791e+01    1.592204e+00
  1.740379e+01    1.596084e+00
  1.741966e+01    1.601782e+00
  1.743554e+01    1.563727e+00
  1.745141e+01    1.584522e+00
  1.746729e+01    1.617808e+00
  1.748316e+01    1.603931e+00
  1.749904e+01    1.575535e+00
  1.751491e+01    1.561971e+00
  1.753079e+01    1.558100e+00
  1.754667e+01    1.591106e+00
  1.756254e+01    1.593666e+00
  1.757842e+01    1.616116e+00
  1.759429e+01    1.582605e+00
  1.761017e+01    1.558556e+00
  1.762604e+01    1.553620e+00
  1.764192e+01    1.595358e+00
  1.765779e+01    1.577138e+00
  1.767367e+01    1.560570e+00
  1.768955e+01    1.567914e+00
  1.770542e+01    1.559444e+00
  1.772130e+01    1.563755e+00
  1.773717e+01    1.570310e+00
  1.775305e+01    1.551790e+00
  1.776892e+01    1.542801e+00
  1.778480e+01    1.542667e+00
  1.780067e+01    1.516246e+00
  1.781655e+01    1.519847e+00
  1.783243e+01    1.534264e+00
  1.784830e+01    1.536862e+00
  1.786418e+01    1.519528e+00
  1.788005e+01    1.542982e+00
  1.789593e+01    1.526303e+00
  1.791180e+01    1.537538e+00
  1.792768e+01    1.548169e+00
  1.794355e+01    1.522298e+00
  1.795943e+01    1.492141e+00
  1.797531e+01    1.562472e+00
  1.799118e+01    1.551171e+00
  1.800706e+01    1.513765e+00
  1.802293e+01    1.515059e+00
  1.803881e+01    1.515774e+00
  1.805468e+01    1.515674e+00
  1.807056e+01    1.505381e+00
  1.808643e+01    1.499020e+00
  1.810231e+01    1.506077e+00
  1.811819e+01    1.511143e+00
  1.813406e+01    1.488407e+00
  1.814994e+01    1.481961e+00
  1.816581e+01    1.460109e+00
  1.818169e+01    1.490258e+00
  1.819756e+01    1.502450e+00
  1.821344e+01    1.473372e+00
  1.822932e+01    1.481868e+00
  1.824519e+01    1.449633e+00
  1.826107e+01    1.447927e+00
  1.827694e+01    1.462196e+00
  1.829282e+01    1.476921e+00
  1.830869e+01    1.473061e+00
  1.832457e+01    1.451112e+00
  1.834044e+01    1.490389e+00
  1.835632e+01    1.482080e+00
  1.837220e+01    1.465534e+00
  1.838807e+01    1.477536e+00
  1.840395e+01    1.447431e+00
  1.841982e+01    1.459971e+00
  1.843570e+01    1.468414e+00
  1.845157e+01    1.448330e+00
  1.846745e+01    1.453010e+00
  1.848332e+01    1.421549e+00
  1.849920e+01    1.436889e+00
  1.851508e+01    1.444839e+00
  1.853095e+01    1.417664e+00
  1.854683e+01    1.415841e+00
  1.856270e+01    1.428269e+00
  1.857858e+01    1.436691e+00
  1.859445e+01    1.442440e+00
  1.861033e+01    1.422805e+00
  1.862620e+01    1.451106e+00
  1.864208e+01    1.442099e+00
  1.865796e+01    1.393768e+00
  1.867383e+01    1.411516e+00
  1.868971e+01    1.431723e+00
  1.870558e+01    1.417075e+00
  1.872146e+01    1.419368e+00
  1.873733e+01    1.402143e+00
  1.875321e+01    1.428150e+00
  1.876908e+01    1.396764e+00
  1.878496e+01    1.413348e+00
  1.880084e+01    1.414817e+00
  1.881671e+01    1.423999e+00
  1.883259e+01    1.428406e+00
  1.884846e+01    1.412137e+00
  1.886434e+01    1.414681e+00
  1.888021e+01    1.428525e+00
  1.889609e+01    1.408657e+00
  1.891196e+01    1.385442e+00
  1.892784e+01    1.422132e+00
  1.894372e+01    1.414859e+00
  1.895959e+01    1.397187e+00
  1.897547e+01    1.399810e+00
  1.899134e+01    1.386990e+00
  1.900722e+01    1.389480e+00
  1.902309e+01    1.393719e+00
  1.903897e+01    1.391565e+00
  1.905484e+01    1.391868e+00
  1.907072e+01    1.371481e+00
  1.908660e+01    1.383029e+00
  1.910247e+01    1.356450e+00
  1.911835e+01    1.389193e+00
  1.913422e+01    1.379324e+00
  1.915010e+01    1.359875e+00
  1.916597e+01    1.365631e+00
  1.918185e+01    1.352777e+00
  1.919773e+01    1.353281e+00
  1.921360e+01    1.353510e+00
  1.922948e+01    1.370309e+00
  1.924535e+01    1.371865e+00
  1.926123e+01    1.341875e+00
  1.927710e+01    1.360520e+00
  1.929298e+01    1.351005e+00
  1.930885e+01    1.322392e+00
  1.932473e+01    1.352765e+00
  1.934061e+01    1.346838e+00
  1.935648e+01    1.332397e+00
  1.937236e+01    1.365469e+00
  1.938823e+01    1.344157e+00
  1.940411e+01    1.328628e+00
  1.941998e+01    1.340010e+00
  1.943586e+01    1.366980e+00
  1.945173e+01    1.356415e+00
  1.946761e+01    1.333300e+00
  1.948349e+01    1.337083e+00
  1.949936e+01    1.337991e+00
  1.951524e+01    1.348178e+00
  1.953111e+01    1.321717e+00
  1.954699e+01    1.314964e+00
  1.956286e+01    1.334231e+00
  1.957874e+01    1.325928e+00
  1.959461e+01    1.317845e+00
  1.961049e+01    1.306667e+00
  1.962637e+01    1.317664e+00
  1.964224e+01    1.313936e+00
  1.965812e+01    1.311886e+00
  1.967399e+01    1.329851e+00
  1.968987e+01    1.294601e+00
  1.970574e+01    1.301418e+00
  1.972162e+01    1.315747e+00
  1.973749e+01    1.328972e+00
  1.975337e+01    1.318396e+00
  1.976925e+01    1.305827e+00
  1.978512e+01    1.298598e+00
  1.980100e+01    1.314635e+00
  1.981687e+01    1.319262e+00
  1.983275e+01    1.302627e+00
  1.984862e+01    1.299603e+00
  1.986450e+01    1.287050e+00
  1.988037e+01    1.279143e+00
  1.989625e+01    1.300590e+00
  1.991213e+01    1.293229e+00
  1.992800e+01    1.298144e+00
  1.994388e+01    1.275562e+00
  1.995975e+01    1.295182e+00
  1.997563e+01    1.289758e+00
  1.999150e+01    1.285437e+00
  2.000738e+01    1.289376e+00
  2.002325e+01    1.305274e+00
  2.003913e+01    1.289270e+00
  2.005501e+01    1.266726e+00
  2.007088e+01    1.278831e+00
  2.008676e+01    1.286691e+00
  2.010263e+01    1.285591e+00
  2.011851e+01    1.272185e+00
  2.013438e+01    1.278834e+00
  2.015026e+01    1.255523e+00
  2.016614e+01    1.223392e+00
  2.018201e+01    1.235479e+00
  2.019789e+01    1.269074e+00
  2.021376e+01    1.270607e+00
  2.022964e+01    1.244886e+00
  2.024551e+01    1.242547e+00
  2.026139e+01    1.220984e+00
  2.027726e+01    1.252951e+00
  2.029314e+01    1.263280e+00
  2.030902e+01    1.254727e+00
  2.032489e+01    1.255473e+00
  2.034077e+01    1.280307e+00
  2.035664e+01    1.236878e+00
  2.037252e+01    1.243943e+00
  2.038839e+01    1.251547e+00
  2.040427e+01    1.241246e+00
  2.042014e+01    1.247490e+00
  2.043602e+01    1.251565e+00
  2.045190e+01    1.230530e+00
  2.046777e+01    1.235674e+00
  2.048365e+01    1.233785e+00
  2.049952e+01    1.233632e+00
  2.051540e+01    1.252805e+00
  2.053127e+01    1.269364e+00
  2.054715e+01    1.265388e+00
  2.056302e+01    1.268054e+00
  2.057890e+01    1.221065e+00
  2.059478e+01    1.244413e+00
  2.061065e+01    1.228649e+00
  2.062653e+01    1.229233e+00
  2.064240e+01    1.233384e+00
  2.065828e+01    1.255696e+00
  2.067415e+01    1.245666e+00
  2.069003e+01    1.241242e+00
  2.070590e+01    1.252288e+00
  2.072178e+01    1.222267e+00
  2.073766e+01    1.235329e+00
  2.075353e+01    1.242478e+00
  2.076941e+01    1.237835e+00
  2.078528e+01    1.244659e+00
  2.080116e+01    1.253088e+00
  2.081703e+01    1.252280e+00
  2.083291e+01    1.210536e+00
  2.084878e+01    1.215204e+00
  2.086466e+01    1.236821e+00
  2.088054e+01    1.252356e+00
  2.089641e+01    1.232573e+00
  2.091229e+01    1.222222e+00
  2.092816e+01    1.224468e+00
  2.094404e+01    1.208897e+00
  2.095991e+01    1.212336e+00
  2.097579e+01    1.223000e+00
  2.099166e+01    1.187884e+00
  2.100754e+01    1.229748e+00
  2.102342e+01    1.244090e+00
  2.103929e+01    1.221480e+00
  2.105517e+01    1.229857e+00
  2.107104e+01    1.237192e+00
  2.108692e+01    1.236537e+00
  2.110279e+01    1.215971e+00
  2.111867e+01    1.224911e+00
  2.113455e+01    1.233679e+00
  2.115042e+01    1.207406e+00
  2.116630e+01    1.211347e+00
  2.118217e+01    1.239375e+00
  2.119805e+01    1.240346e+00
  2.121392e+01    1.227322e+00
  2.122980e+01    1.233073e+00
  2.124567e+01    1.251766e+00
  2.126155e+01    1.228393e+00
  2.127743e+01    1.244320e+00
  2.129330e+01    1.268066e+00
  2.130918e+01    1.276421e+00
  2.132505e+01    1.291548e+00
  2.134093e+01    1.276820e+00
  2.135680e+01    1.307074e+00
  2.137268e+01    1.300279e+00
  2.138855e+01    1.262488e+00
  2.140443e+01    1.284803e+00
  2.142031e+01    1.313639e+00
  2.143618e+01    1.332784e+00
  2.145206e+01    1.363196e+00
  2.146793e+01    1.363546e+00
  2.148381e+01    1.382965e+00
  2.149968e+01    1.420200e+00
  2.151556e+01    1.429292e+00
  2.153143e+01    1.461710e+00
  2.154731e+01    1.493253e+00
  2.156319e+01    1.505896e+00
  2.157906e+01    1.586499e+00
  2.159494e+01    1.692620e+00
  2.161081e+01    1.756143e+00
  2.162669e+01    1.819340e+00
  2.164256e+01    1.964535e+00
  2.165844e+01    2.098206e+00
  2.167431e+01    2.294375e+00
  2.169019e+01    2.529455e+00
  2.170607e+01    2.766527e+00
  2.172194e+01    3.103938e+00
  2.173782e+01    3.505399e+00
  2.175369e+01    3.941495e+00
  2.176957e+01    4.469144e+00
  2.178544e+01    5.145338e+00
  2.180132e+01    5.811989e+00
  2.181719e+01    6.488716e+00
  2.183307e+01    7.144412e+00
  2.184895e+01    7.702091e+00
  2.186482e+01    8.294559e+00
  2.188070e+01    8.655470e+00
  2.189657e+01    8.855597e+00
  2.191245e+01    8.739798e+00
  2.192832e+01    8.327353e+00
  2.194420e+01    7.555027e+00
  2.196007e+01    6.633993e+00
  2.197595e+01    5.746254e+00
  2.199183e+01    4.889493e+00
  2.200770e+01    4.250937e+00
  2.202358e+01    3.671382e+00
  2.203945e+01    3.205765e+00
  2.205533e+01    2.837541e+00
  2.207120e+01    2.625845e+00
  2.208708e+01    2.367944e+00
  2.210296e+01    2.173724e+00
  2.211883e+01    2.026252e+00
  2.213471e+01    1.887817e+00
  2.215058e+01    1.756408e+00
  2.216646e+01    1.668798e+00
  2.218233e+01    1.598697e+00
  2.219821e+01    1.556591e+00
  2.221408e+01    1.523410e+00
  2.222996e+01    1.469543e+00
  2.224584e+01    1.436353e+00
  2.226171e+01    1.371641e+00
  2.227759e+01    1.357143e+00
  2.229346e+01    1.299567e+00
  2.230934e+01    1.290241e+00
  2.232521e+01    1.279505e+00
  2.234109e+01    1.256116e+00
  2.235696e+01    1.262848e+00
  2.237284e+01    1.246987e+00
  2.238872e+01    1.220674e+00
  2.240459e+01    1.219877e+00
  2.242047e+01    1.192017e+00
  2.243634e+01    1.178140e+00
  2.245222e+01    1.171055e+00
  2.246809e+01    1.152706e+00
  2.248397e+01    1.142936e+00
  2.249984e+01    1.153600e+00
  2.251572e+01    1.140355e+00
  2.253160e+01    1.144262e+00
  2.254747e+01    1.118908e+00
  2.256335e+01    1.132497e+00
  2.257922e+01    1.144416e+00
  2.259510e+01    1.120105e+00
  2.261097e+01    1.113428e+00
  2.262685e+01    1.100240e+00
  2.264272e+01    1.090278e+00
  2.265860e+01    1.126217e+00
  2.267448e+01    1.092976e+00
  2.269035e+01    1.087942e+00
  2.270623e+01    1.081108e+00
  2.272210e+01    1.063335e+00
  2.273798e+01    1.057381e+00
  2.275385e+01    1.049085e+00
  2.276973e+01    1.065490e+00
  2.278560e+01    1.057172e+00
  2.280148e+01    1.049677e+00
  2.281736e+01    1.030945e+00
  2.283323e+01    1.040905e+00
  2.284911e+01    1.057211e+00
  2.286498e+01    1.024567e+00
  2.288086e+01    1.037026e+00
  2.289673e+01    1.057610e+00
  2.291261e+01    1.050221e+00
  2.292848e+01    1.037093e+00
  2.294436e+01    1.032376e+00
  2.296024e+01    1.033739e+00
  2.297611e+01    1.007193e+00
  2.299199e+01    9.885290e-01
  2.300786e+01    1.000206e+00
  2.302374e+01    1.033135e+00
  2.303961e+01    1.050037e+00
  2.305549e+01    1.023205e+00
  2.307137e+01    1.007267e+00
  2.308724e+01    1.030009e+00
  2.310312e+01    1.023346e+00
  2.311899e+01    1.010104e+00
  2.313487e+01    1.010625e+00
  2.315074e+01    1.004397e+00
  2.316662e+01    9.995356e-01
  2.318249e+01    9.805256e-01
  2.319837e+01    9.851702e-01
  2.321425e+01    9.906648e-01
  2.323012e+01    9.953314e-01
  2.324600e+01    9.953862e-01
  2.326187e+01    9.921389e-01
  2.327775e+01    9.966055e-01
  2.329362e+01    9.906330e-01
  2.330950e+01    9.971367e-01
  2.332537e+01    9.980848e-01
  2.334125e+01    9.945703e-01
  2.335713e+01    9.899281e-01
  2.337300e+01    9.706080e-01
  2.338888e+01    9.643428e-01
  2.340475e+01    9.567345e-01
  2.342063e+01    9.777889e-01
  2.343650e+01    9.927981e-01
  2.345238e+01    9.731742e-01
  2.346825e+01    9.505866e-01
  2.348413e+01    9.631794e-01
  2.350001e+01    9.727262e-01
  2.351588e+01    9.593432e-01
  2.353176e+01    9.599493e-01
  2.354763e+01    9.736025e-01
  2.356351e+01    9.731023e-01
  2.357938e+01    9.645784e-01
  2.359526e+01    9.680213e-01
  2.361113e+01    9.768870e-01
  2.362701e+01    9.771950e-01
  2.364289e+01    9.467250e-01
  2.365876e+01    9.485946e-01
  2.367464e+01    9.541092e-01
  2.369051e+01    9.311179e-01
  2.370639e+01    9.381754e-01
  2.372226e+01    9.359600e-01
  2.373814e+01    9.585690e-01
  2.375401e+01    9.494774e-01
  2.376989e+01    9.395469e-01
  2.378577e+01    9.039553e-01
  2.380164e+01    9.132409e-01
  2.381752e+01    9.030595e-01
  2.383339e+01    9.298208e-01
  2.384927e+01    9.114207e-01
  2.386514e+01    9.172747e-01
  2.388102e+01    9.310597e-01
  2.389689e+01    9.125785e-01
  2.391277e+01    9.095867e-01
  2.392865e+01    9.235905e-01
  2.394452e+01    9.011657e-01
  2.396040e+01    8.990519e-01
  2.397627e+01    8.952077e-01
  2.399215e+01    8.901789e-01
  2.400802e+01    8.928675e-01
  2.402390e+01    8.962145e-01
  2.403978e+01    8.926668e-01
  2.405565e+01    8.608740e-01
  2.407153e+01    8.801708e-01
  2.408740e+01    8.961945e-01
  2.410328e+01    8.858025e-01
  2.411915e+01    8.923407e-01
  2.413503e+01    8.737084e-01
  2.415090e+01    8.874741e-01
  2.416678e+01    8.830606e-01
  2.418266e+01    8.777777e-01
  2.419853e+01    8.833933e-01
  2.421441e+01    8.811594e-01
  2.423028e+01    8.884301e-01
  2.424616e+01    8.958665e-01
  2.426203e+01    8.963578e-01
  2.427791e+01    9.061334e-01
  2.429378e+01    8.801917e-01
  2.430966e+01    9.002280e-01
  2.432554e+01    8.966807e-01
  2.434141e+01    8.940781e-01
  2.435729e+01    9.055265e-01
  2.437316e+01    9.000569e-01
  2.438904e+01    8.940397e-01
  2.440491e+01    9.049650e-01
  2.442079e+01    9.093854e-01
  2.443666e+01    9.004155e-01
  2.445254e+01    8.843492e-01
  2.446842e+01    8.969295e-01
  2.448429e+01    9.055827e-01
  2.450017e+01    8.955126e-01
  2.451604e+01    8.891311e-01
  2.453192e+01    8.667440e-01
  2.454779e+01    8.750762e-01
  2.456367e+01    8.914652e-01
  2.457954e+01    9.080938e-01
  2.459542e+01    8.844393e-01
  2.461130e+01    8.713446e-01
  2.462717e+01    8.590412e-01
  2.464305e+01    9.018145e-01
  2.465892e+01    8.968946e-01
  2.467480e+01    8.787256e-01
  2.469067e+01    8.825133e-01
  2.470655e+01    8.983454e-01
  2.472242e+01    8.992980e-01
  2.473830e+01    8.909404e-01
  2.475418e+01    9.056581e-01
  2.477005e+01    8.875706e-01
  2.478593e+01    8.939592e-01
  2.480180e+01    8.924130e-01
  2.481768e+01    8.889504e-01
  2.483355e+01    8.978199e-01
  2.484943e+01    8.810164e-01
  2.486530e+01    8.780914e-01
  2.488118e+01    8.939586e-01
  2.489706e+01    9.034631e-01
  2.491293e+01    8.983513e-01
  2.492881e+01    8.950356e-01
  2.494468e+01    8.801256e-01
  2.496056e+01    8.831994e-01
  2.497643e+01    8.977171e-01
  2.499231e+01    8.968113e-01
  2.500819e+01    9.090594e-01
  2.502406e+01    8.954439e-01
  2.503994e+01    8.704080e-01
  2.505581e+01    8.733836e-01
  2.507169e+01    8.774262e-01
  2.508756e+01    9.124787e-01
  2.510344e+01    9.255585e-01
  2.511931e+01    9.184915e-01
  2.513519e+01    9.010221e-01
  2.515107e+01    9.040072e-01
  2.516694e+01    9.171735e-01
  2.518282e+01    9.381312e-01
  2.519869e+01    9.321468e-01
  2.521457e+01    9.337201e-01
  2.523044e+01    9.322711e-01
  2.524632e+01    9.564697e-01
  2.526219e+01    9.555593e-01
  2.527807e+01    9.480240e-01
  2.529395e+01    9.595741e-01
  2.530982e+01    9.612922e-01
  2.532570e+01    9.571037e-01
  2.534157e+01    9.701101e-01
  2.535745e+01    9.679500e-01
  2.537332e+01    9.743408e-01
  2.538920e+01    9.947945e-01
  2.540507e+01    9.946991e-01
  2.542095e+01    9.863751e-01
  2.543683e+01    1.006131e+00
  2.545270e+01    1.034492e+00
  2.546858e+01    1.029995e+00
  2.548445e+01    1.028047e+00
  2.550033e+01    1.060579e+00
  2.551620e+01    1.075126e+00
  2.553208e+01    1.081293e+00
  2.554795e+01    1.089421e+00
  2.556383e+01    1.129906e+00
  2.557971e+01    1.172528e+00
  2.559558e+01    1.193265e+00
  2.561146e+01    1.200993e+00
  2.562733e+01    1.241772e+00
  2.564321e+01    1.322025e+00
  2.565908e+01    1.370290e+00
  2.567496e+01    1.431899e+00
  2.569083e+01    1.494830e+00
  2.570671e+01    1.610106e+00
  2.572259e+01    1.677476e+00
  2.573846e+01    1.757555e+00
  2.575434e+01    1.975888e+00
  2.577021e+01    2.206765e+00
  2.578609e+01    2.475712e+00
  2.580196e+01    2.780609e+00
  2.581784e+01    3.125524e+00
  2.583371e+01    3.581318e+00
  2.584959e+01    4.071631e+00
  2.586547e+01    4.644459e+00
  2.588134e+01    5.246429e+00
  2.589722e+01    5.762078e+00
  2.591309e+01    6.240924e+00
  2.592897e+01    6.759270e+00
  2.594484e+01    7.091975e+00
  2.596072e+01    7.108151e+00
  2.597660e+01    6.933783e+00
  2.599247e+01    6.589492e+00
  2.600835e+01    6.009547e+00
  2.602422e+01    5.349896e+00
  2.604010e+01    4.648060e+00
  2.605597e+01    4.035346e+00
  2.607185e+01    3.500478e+00
  2.608772e+01    3.060641e+00
  2.610360e+01    2.661794e+00
  2.611948e+01    2.343124e+00
  2.613535e+01    2.138744e+00
  2.615123e+01    1.944149e+00
  2.616710e+01    1.827525e+00
  2.618298e+01    1.704305e+00
  2.619885e+01    1.557748e+00
  2.621473e+01    1.461747e+00
  2.623060e+01    1.415351e+00
  2.624648e+01    1.326225e+00
  2.626236e+01    1.308040e+00
  2.627823e+01    1.248839e+00
  2.629411e+01    1.209396e+00
  2.630998e+01    1.176707e+00
  2.632586e+01    1.153867e+00
  2.634173e+01    1.109118e+00
  2.635761e+01    1.088528e+00
  2.637348e+01    1.074978e+00
  2.638936e+01    1.083897e+00
  2.640524e+01    1.073866e+00
  2.642111e+01    1.031095e+00
  2.643699e+01    1.031575e+00
  2.645286e+01    1.005818e+00
  2.646874e+01    1.034032e+00
  2.648461e+01    1.036282e+00
  2.650049e+01    1.029964e+00
  2.651636e+01    9.941389e-01
  2.653224e+01    9.866247e-01
  2.654812e+01    9.883425e-01
  2.656399e+01    9.760396e-01
  2.657987e+01    9.864327e-01
  2.659574e+01    9.847426e-01
  2.661162e+01    9.703685e-01
  2.662749e+01    9.586750e-01
  2.664337e+01    9.560769e-01
  2.665924e+01    9.466420e-01
  2.667512e+01    9.535233e-01
  2.669100e+01    9.866649e-01
  2.670687e+01    9.819970e-01
  2.672275e+01    9.768875e-01
  2.673862e+01    9.667535e-01
  2.675450e+01    9.651261e-01
  2.677037e+01    9.805003e-01
  2.678625e+01    9.804155e-01
  2.680212e+01    9.850644e-01
  2.681800e+01    1.013777e+00
  2.683388e+01    1.007436e+00
  2.684975e+01    1.013049e+00
  2.686563e+01    1.022270e+00
  2.688150e+01    1.006130e+00
  2.689738e+01    1.018431e+00
  2.691325e+01    1.021946e+00
  2.692913e+01    1.018536e+00
  2.694501e+01    1.022601e+00
  2.696088e+01    1.032977e+00
  2.697676e+01    1.024438e+00
  2.699263e+01    1.054946e+00
  2.700851e+01    1.106097e+00
  2.702438e+01    1.134884e+00
  2.704026e+01    1.159680e+00
  2.705613e+01    1.250795e+00
  2.707201e+01    1.325604e+00
  2.708789e+01    1.378972e+00
  2.710376e+01    1.467473e+00
  2.711964e+01    1.604042e+00
  2.713551e+01    1.729215e+00
  2.715139e+01    1.852952e+00
  2.716726e+01    1.989551e+00
  2.718314e+01    2.077886e+00
  2.719901e+01    2.130315e+00
  2.721489e+01    2.171733e+00
  2.723077e+01    2.163877e+00
  2.724664e+01    2.112150e+00
  2.726252e+01    2.000282e+00
  2.727839e+01    1.839508e+00
  2.729427e+01    1.693707e+00
  2.731014e+01    1.553002e+00
  2.732602e+01    1.411179e+00
  2.734189e+01    1.341064e+00
  2.735777e+01    1.292755e+00
  2.737365e+01    1.212026e+00
  2.738952e+01    1.159811e+00
  2.740540e+01    1.146289e+00
  2.742127e+01    1.100559e+00
  2.743715e+01    1.034666e+00
  2.745302e+01    1.036106e+00
  2.746890e+01    1.012860e+00
  2.748477e+01    1.012379e+00
  2.750065e+01    1.002121e+00
  2.751653e+01    9.924140e-01
  2.753240e+01    9.875035e-01
  2.754828e+01    9.766542e-01
  2.756415e+01    9.281511e-01
  2.758003e+01    9.299553e-01
  2.759590e+01    9.369365e-01
  2.761178e+01    9.212224e-01
  2.762765e+01    9.461758e-01
  2.764353e+01    9.324580e-01
  2.765941e+01    9.094383e-01
  2.767528e+01    8.999393e-01
  2.769116e+01    9.013430e-01
  2.770703e+01    9.069113e-01
  2.772291e+01    9.053195e-01
  2.773878e+01    8.853938e-01
  2.775466e+01    8.885442e-01
  2.777054e+01    9.026656e-01
  2.778641e+01    8.982098e-01
  2.780229e+01    8.795688e-01
  2.781816e+01    8.909478e-01
  2.783404e+01    8.932227e-01
  2.784991e+01    8.882495e-01
  2.786579e+01    8.854519e-01
  2.788166e+01    8.724636e-01
  2.789754e+01    8.826485e-01
  2.791342e+01    8.635603e-01
  2.792929e+01    8.667747e-01
  2.794517e+01    8.664498e-01
  2.796104e+01    8.740946e-01
  2.797692e+01    8.635625e-01
  2.799279e+01    8.548692e-01
  2.800867e+01    8.812964e-01
  2.802454e+01    8.826720e-01
  2.804042e+01    8.605109e-01
  2.805630e+01    8.700407e-01
  2.807217e+01    8.842518e-01
  2.808805e+01    8.625522e-01
  2.810392e+01    8.586512e-01
  2.811980e+01    8.504641e-01
  2.813567e+01    8.428957e-01
  2.815155e+01    8.646486e-01
  2.816742e+01    8.549938e-01
  2.818330e+01    8.593419e-01
  2.819918e+01    8.635746e-01
  2.821505e+01    8.739502e-01
  2.823093e+01    8.503880e-01
  2.824680e+01    8.452020e-01
  2.826268e+01    8.615394e-01
  2.827855e+01    8.607085e-01
  2.829443e+01    8.651291e-01
  2.831030e+01    8.540759e-01
  2.832618e+01    8.365463e-01
  2.834206e+01    8.321809e-01
  2.835793e+01    8.517392e-01
  2.837381e+01    8.715603e-01
  2.838968e+01    8.328131e-01
  2.840556e+01    8.262772e-01
  2.842143e+01    8.331661e-01
  2.843731e+01    8.437754e-01
  2.845318e+01    8.506512e-01
  2.846906e+01    8.582318e-01
  2.848494e+01    8.364317e-01
  2.850081e+01    8.420618e-01
  2.851669e+01    8.319379e-01
  2.853256e+01    8.337488e-01
  2.854844e+01    8.210925e-01
  2.856431e+01    8.469305e-01
  2.858019e+01    8.347830e-01
  2.859606e+01    8.384674e-01
  2.861194e+01    8.371193e-01
  2.862782e+01    8.386401e-01
  2.864369e+01    8.348576e-01
  2.865957e+01    8.377189e-01
  2.867544e+01    8.482988e-01
  2.869132e+01    8.580490e-01
  2.870719e+01    8.450071e-01
  2.872307e+01    8.461305e-01
  2.873895e+01    8.457382e-01
  2.875482e+01    8.386761e-01
  2.877070e+01    8.285325e-01
  2.878657e+01    8.375653e-01
  2.880245e+01    8.301920e-01
  2.881832e+01    8.341188e-01
  2.883420e+01    8.166886e-01
  2.885007e+01    8.262516e-01
  2.886595e+01    8.334301e-01
  2.888183e+01    8.239120e-01
  2.889770e+01    8.377867e-01
  2.891358e+01    8.333336e-01
  2.892945e+01    8.310977e-01
  2.894533e+01    8.162543e-01
  2.896120e+01    8.340341e-01
  2.897708e+01    8.167217e-01
  2.899295e+01    7.938709e-01
  2.900883e+01    7.941748e-01
  2.902471e+01    8.278236e-01
  2.904058e+01    8.230229e-01
  2.905646e+01    8.336304e-01
  2.907233e+01    8.146316e-01
  2.908821e+01    8.111957e-01
  2.910408e+01    8.053637e-01
  2.911996e+01    8.202527e-01
  2.913583e+01    8.204895e-01
  2.915171e+01    8.196636e-01
  2.916759e+01    8.140649e-01
  2.918346e+01    7.995458e-01
  2.919934e+01    7.926622e-01
  2.921521e+01    8.029755e-01
  2.923109e+01    8.148550e-01
  2.924696e+01    8.144433e-01
  2.926284e+01    7.920140e-01
  2.927871e+01    8.032566e-01
  2.929459e+01    8.234217e-01
  2.931047e+01    8.167976e-01
  2.932634e+01    8.093316e-01
  2.934222e+01    7.975476e-01
  2.935809e+01    7.739038e-01
  2.937397e+01    8.144800e-01
  2.938984e+01    8.048556e-01
  2.940572e+01    8.044236e-01
  2.942159e+01    7.991232e-01
  2.943747e+01    8.111136e-01
  2.945335e+01    8.183738e-01
  2.946922e+01    8.238202e-01
  2.948510e+01    8.276656e-01
  2.950097e+01    8.256750e-01
  2.951685e+01    8.056151e-01
  2.953272e+01    8.034388e-01
  2.954860e+01    8.194596e-01
  2.956447e+01    8.098142e-01
  2.958035e+01    8.061600e-01
  2.959623e+01    7.949673e-01
  2.961210e+01    8.072774e-01
  2.962798e+01    7.869663e-01
  2.964385e+01    7.888797e-01
  2.965973e+01    7.922605e-01
  2.967560e+01    8.243228e-01
  2.969148e+01    8.259198e-01
  2.970736e+01    8.083357e-01
  2.972323e+01    8.052778e-01
  2.973911e+01    8.104600e-01
  2.975498e+01    8.308986e-01
  2.977086e+01    8.164904e-01
  2.978673e+01    8.236909e-01
  2.980261e+01    8.047264e-01
  2.981848e+01    8.040791e-01
  2.983436e+01    8.085799e-01
  2.985024e+01    7.851939e-01
  2.986611e+01    7.769468e-01
  2.988199e+01    7.836949e-01
  2.989786e+01    7.893246e-01
  2.991374e+01    7.886234e-01
  2.992961e+01    7.901875e-01
  2.994549e+01    8.003300e-01
  2.996136e+01    7.967620e-01
  2.997724e+01    7.869683e-01
  2.999312e+01    8.128163e-01
  3.000899e+01    8.173579e-01
  3.002487e+01    8.201770e-01
  3.004074e+01    8.082829e-01
  3.005662e+01    8.221753e-01
  3.007249e+01    7.991216e-01
  3.008837e+01    8.173556e-01
  3.010424e+01    8.192821e-01
  3.012012e+01    8.084286e-01
  3.013600e+01    8.012148e-01
  3.015187e+01    8.121601e-01
  3.016775e+01    7.904004e-01
  3.018362e+01    7.891735e-01
  3.019950e+01    8.147210e-01
  3.021537e+01    7.852339e-01
  3.023125e+01    7.976183e-01
  3.024712e+01    8.210629e-01
  3.026300e+01    7.829294e-01
  3.027888e+01    7.951837e-01
  3.029475e+01    7.955325e-01
  3.031063e+01    7.819659e-01
  3.032650e+01    7.779780e-01
  3.034238e+01    7.839224e-01
  3.035825e+01    7.991201e-01
  3.037413e+01    8.062623e-01
  3.039000e+01    7.865407e-01
  3.040588e+01    7.583150e-01
  3.042176e+01    7.775427e-01
  3.043763e+01    7.765363e-01
  3.045351e+01    7.948145e-01
  3.046938e+01    8.017350e-01
  3.048526e+01    7.952100e-01
  3.050113e+01    8.051354e-01
  3.051701e+01    7.820727e-01
  3.053288e+01    7.890675e-01
  3.054876e+01    7.977025e-01
  3.056464e+01    7.908648e-01
  3.058051e+01    7.865826e-01
  3.059639e+01    7.977233e-01
  3.061226e+01    7.910944e-01
  3.062814e+01    7.894117e-01
  3.064401e+01    8.084322e-01
  3.065989e+01    7.941880e-01
  3.067577e+01    7.909312e-01
  3.069164e+01    7.685115e-01
  3.070752e+01    7.757658e-01
  3.072339e+01    7.896104e-01
  3.073927e+01    7.928852e-01
  3.075514e+01    7.769868e-01
  3.077102e+01    7.707570e-01
  3.078689e+01    7.796052e-01
  3.080277e+01    7.925233e-01
  3.081865e+01    7.664611e-01
  3.083452e+01    8.011742e-01
  3.085040e+01    7.996851e-01
  3.086627e+01    7.705805e-01
  3.088215e+01    7.611651e-01
  3.089802e+01    7.761771e-01
  3.091390e+01    7.945647e-01
  3.092977e+01    8.134964e-01
  3.094565e+01    8.010181e-01
  3.096153e+01    7.859268e-01
  3.097740e+01    7.972949e-01
  3.099328e+01    7.934010e-01
  3.100915e+01    7.793077e-01
  3.102503e+01    7.862709e-01
  3.104090e+01    7.933012e-01
  3.105678e+01    7.907040e-01
  3.107265e+01    7.965011e-01
  3.108853e+01    7.830921e-01
  3.110441e+01    7.842063e-01
  3.112028e+01    7.817070e-01
  3.113616e+01    7.729670e-01
  3.115203e+01    7.671522e-01
  3.116791e+01    7.773417e-01
  3.118378e+01    7.862410e-01
  3.119966e+01    8.123499e-01
  3.121553e+01    7.981539e-01
  3.123141e+01    7.830582e-01
  3.124729e+01    7.847711e-01
  3.126316e+01    8.018315e-01
  3.127904e+01    8.009881e-01
  3.129491e+01    8.163099e-01
  3.131079e+01    8.136777e-01
  3.132666e+01    8.229185e-01
  3.134254e+01    8.104295e-01
  3.135841e+01    8.030284e-01
  3.137429e+01    8.028881e-01
  3.139017e+01    8.097726e-01
  3.140604e+01    7.924595e-01
  3.142192e+01    8.063238e-01
  3.143779e+01    8.116931e-01
  3.145367e+01    8.128559e-01
  3.146954e+01    8.150970e-01
  3.148542e+01    8.129393e-01
  3.150129e+01    8.277184e-01
  3.151717e+01    8.499014e-01
  3.153305e+01    8.494190e-01
  3.154892e+01    8.530388e-01
  3.156480e+01    8.514190e-01
  3.158067e+01    8.416026e-01
  3.159655e+01    8.479479e-01
  3.161242e+01    8.658991e-01
  3.162830e+01    8.832924e-01
  3.164418e+01    9.009938e-01
  3.166005e+01    9.368062e-01
  3.167593e+01    9.525054e-01
  3.169180e+01    9.854317e-01
  3.170768e+01    1.016150e+00
  3.172355e+01    1.082678e+00
  3.173943e+01    1.155722e+00
  3.175530e+01    1.203693e+00
  3.177118e+01    1.245655e+00
  3.178706e+01    1.324217e+00
  3.180293e+01    1.446528e+00
  3.181881e+01    1.546202e+00
  3.183468e+01    1.678327e+00
  3.185056e+01    1.822158e+00
  3.186643e+01    1.972189e+00
  3.188231e+01    2.025013e+00
  3.189818e+01    2.083564e+00
  3.191406e+01    2.069619e+00
  3.192994e+01    2.036721e+00
  3.194581e+01    1.958448e+00
  3.196169e+01    1.882844e+00
  3.197756e+01    1.677151e+00
  3.199344e+01    1.536721e+00
  3.200931e+01    1.429669e+00
  3.202519e+01    1.338734e+00
  3.204106e+01    1.226367e+00
  3.205694e+01    1.176620e+00
  3.207282e+01    1.087869e+00
  3.208869e+01    1.035587e+00
  3.210457e+01    1.004191e+00
  3.212044e+01    9.892571e-01
  3.213632e+01    9.379394e-01
  3.215219e+01    8.996293e-01
  3.216807e+01    8.800939e-01
  3.218394e+01    8.740188e-01
  3.219982e+01    8.404540e-01
  3.221570e+01    8.744702e-01
  3.223157e+01    8.749903e-01
  3.224745e+01    8.322714e-01
  3.226332e+01    8.295249e-01
  3.227920e+01    8.415629e-01
  3.229507e+01    8.442695e-01
  3.231095e+01    8.231927e-01
  3.232682e+01    8.282210e-01
  3.234270e+01    8.078793e-01
  3.235858e+01    8.062063e-01
  3.237445e+01    7.986125e-01
  3.239033e+01    7.790856e-01
  3.240620e+01    7.814983e-01
  3.242208e+01    7.839502e-01
  3.243795e+01    7.965235e-01
  3.245383e+01    7.911675e-01
  3.246970e+01    7.895898e-01
  3.248558e+01    7.777326e-01
  3.250146e+01    7.805874e-01
  3.251733e+01    7.609519e-01
  3.253321e+01    7.685572e-01
  3.254908e+01    7.504428e-01
