# == pyFAI calibration ==
# Distance Sample to Detector: 0.3999999939076516 m
# PONI: 9.750e-02, 1.135e-01 m
# Rotations: -0.000175 0.000000 -0.000000 rad
# 
# == Fit2d calibration ==
# Distance Sample-beamCenter: 400.000 mm
# Center: x=1514.000, y=1300.000 pix
# Tilt: 0.010 deg  TiltPlanRot: 0.010 deg
# 
# Detector Detector	 Spline= None	 PixelSize= 7.500e-05, 7.500e-05 m
#    Detector has a mask: False 
#    Detector has a dark current: False 
#    detector has a flat field: False 
# 
# Wavelength: 6.888e-11 m
# Mask applied: user provided
# Dark current applied: False
# Flat field applied: False
# Polarization factor: 0.99
# Normalization factor: 1.0
# --> /home/myspot/data/2024_07_Rosario/Ru-CGO-ex/2024-07-27_003_Ru-CGO-ex_Reaction_dwell_000023_data_000127.dat
#       q_nm^-1             I 
  2.003187e-02    1.542387e-01
  3.590745e-02    1.284358e-01
  5.178302e-02    1.272895e-01
  6.765859e-02    2.776802e-01
  8.353417e-02    1.624761e-01
  9.940974e-02    1.855022e-01
  1.152853e-01    9.828816e-02
  1.311609e-01    4.137332e-02
  1.470365e-01    7.956236e-02
  1.629120e-01    1.263624e-01
  1.787876e-01    7.578330e-02
  1.946632e-01    3.938525e-02
  2.105388e-01    3.580124e-02
  2.264143e-01    5.317440e-02
  2.422899e-01    3.986654e-02
  2.581655e-01    2.350598e-02
  2.740411e-01    3.684247e-02
  2.899166e-01    7.282242e-02
  3.057922e-01    6.706020e-02
  3.216678e-01    1.700110e-02
  3.375433e-01    5.218394e-02
  3.534189e-01    8.241451e-02
  3.692945e-01    4.909106e-02
  3.851701e-01    5.168504e-02
  4.010456e-01    5.554048e-02
  4.169212e-01    3.577011e-02
  4.327968e-01    4.441797e-02
  4.486724e-01    3.629842e-02
  4.645479e-01    1.169215e-02
  4.804235e-01    2.207276e-02
  4.962991e-01    2.724016e-02
  5.121747e-01    5.710968e-02
  5.280502e-01    5.335144e-02
  5.439258e-01    2.959391e-02
  5.598014e-01    3.749146e-02
  5.756770e-01    5.516829e-02
  5.915525e-01    4.471153e-02
  6.074281e-01    3.649619e-02
  6.233037e-01    3.781866e-02
  6.391793e-01    3.653178e-02
  6.550548e-01    6.575205e-02
  6.709304e-01    4.559889e-02
  6.868060e-01    3.955303e-02
  7.026815e-01    5.812511e-02
  7.185571e-01    4.579331e-02
  7.344327e-01    5.204055e-02
  7.503083e-01    8.082199e-02
  7.661838e-01    9.380126e-02
  7.820594e-01    1.361207e-01
  7.979350e-01    1.865333e-01
  8.138106e-01    2.327947e-01
  8.296861e-01    3.023940e-01
  8.455617e-01    3.815158e-01
  8.614373e-01    4.751705e-01
  8.773129e-01    5.563644e-01
  8.931884e-01    6.245725e-01
  9.090640e-01    6.059864e-01
  9.249396e-01    7.009252e-01
  9.408152e-01    8.898335e-01
  9.566907e-01    9.553632e-01
  9.725663e-01    9.673723e-01
  9.884419e-01    1.103608e+00
  1.004317e+00    1.095774e+00
  1.020193e+00    1.200933e+00
  1.036069e+00    1.323848e+00
  1.051944e+00    1.371344e+00
  1.067820e+00    1.412877e+00
  1.083695e+00    1.443421e+00
  1.099571e+00    1.470150e+00
  1.115446e+00    1.582193e+00
  1.131322e+00    1.651029e+00
  1.147198e+00    1.595658e+00
  1.163073e+00    1.649978e+00
  1.178949e+00    1.757594e+00
  1.194824e+00    1.801500e+00
  1.210700e+00    2.068791e+00
  1.226575e+00    2.272043e+00
  1.242451e+00    2.475431e+00
  1.258327e+00    2.433794e+00
  1.274202e+00    2.514847e+00
  1.290078e+00    2.622381e+00
  1.305953e+00    2.713495e+00
  1.321829e+00    2.628284e+00
  1.337705e+00    2.789572e+00
  1.353580e+00    2.684174e+00
  1.369456e+00    2.664211e+00
  1.385331e+00    2.791784e+00
  1.401207e+00    2.824340e+00
  1.417082e+00    2.749082e+00
  1.432958e+00    2.789563e+00
  1.448834e+00    3.021122e+00
  1.464709e+00    3.123776e+00
  1.480585e+00    3.270534e+00
  1.496460e+00    3.248273e+00
  1.512336e+00    3.164213e+00
  1.528211e+00    3.176401e+00
  1.544087e+00    3.170921e+00
  1.559963e+00    3.153884e+00
  1.575838e+00    3.207118e+00
  1.591714e+00    3.254047e+00
  1.607589e+00    3.297822e+00
  1.623465e+00    3.193202e+00
  1.639340e+00    3.197699e+00
  1.655216e+00    2.993746e+00
  1.671092e+00    2.936098e+00
  1.686967e+00    2.941821e+00
  1.702843e+00    2.921559e+00
  1.718718e+00    3.004408e+00
  1.734594e+00    2.933224e+00
  1.750469e+00    2.926642e+00
  1.766345e+00    3.080937e+00
  1.782221e+00    3.086203e+00
  1.798096e+00    3.087008e+00
  1.813972e+00    3.087114e+00
  1.829847e+00    3.015819e+00
  1.845723e+00    3.023343e+00
  1.861598e+00    3.004201e+00
  1.877474e+00    3.061960e+00
  1.893350e+00    3.138054e+00
  1.909225e+00    3.212714e+00
  1.925101e+00    3.187676e+00
  1.940976e+00    3.164820e+00
  1.956852e+00    3.103195e+00
  1.972727e+00    3.012321e+00
  1.988603e+00    3.093688e+00
  2.004479e+00    3.113404e+00
  2.020354e+00    3.013353e+00
  2.036230e+00    3.131394e+00
  2.052105e+00    3.153170e+00
  2.067981e+00    3.082654e+00
  2.083856e+00    3.092192e+00
  2.099732e+00    3.143827e+00
  2.115608e+00    3.198465e+00
  2.131483e+00    3.179306e+00
  2.147359e+00    3.069257e+00
  2.163234e+00    3.070336e+00
  2.179110e+00    3.169276e+00
  2.194985e+00    3.279307e+00
  2.210861e+00    3.153563e+00
  2.226737e+00    3.058889e+00
  2.242612e+00    3.099122e+00
  2.258488e+00    3.091632e+00
  2.274363e+00    3.084381e+00
  2.290239e+00    3.042663e+00
  2.306115e+00    3.180290e+00
  2.321990e+00    3.132438e+00
  2.337866e+00    3.050820e+00
  2.353741e+00    3.034016e+00
  2.369617e+00    3.126583e+00
  2.385492e+00    3.193331e+00
  2.401368e+00    3.170403e+00
  2.417244e+00    3.129615e+00
  2.433119e+00    3.147411e+00
  2.448995e+00    3.025327e+00
  2.464870e+00    3.080199e+00
  2.480746e+00    3.266740e+00
  2.496621e+00    3.144597e+00
  2.512497e+00    3.063794e+00
  2.528373e+00    3.265725e+00
  2.544248e+00    3.271138e+00
  2.560124e+00    3.207795e+00
  2.575999e+00    3.054329e+00
  2.591875e+00    3.145550e+00
  2.607750e+00    3.122977e+00
  2.623626e+00    3.233225e+00
  2.639502e+00    3.214293e+00
  2.655377e+00    3.247820e+00
  2.671253e+00    3.270043e+00
  2.687128e+00    3.276727e+00
  2.703004e+00    3.351462e+00
  2.718879e+00    3.284294e+00
  2.734755e+00    3.235022e+00
  2.750631e+00    3.212717e+00
  2.766506e+00    3.212669e+00
  2.782382e+00    3.205624e+00
  2.798257e+00    3.282449e+00
  2.814133e+00    3.356819e+00
  2.830008e+00    3.302397e+00
  2.845884e+00    3.230292e+00
  2.861760e+00    3.178328e+00
  2.877635e+00    3.270869e+00
  2.893511e+00    3.424186e+00
  2.909386e+00    3.348533e+00
  2.925262e+00    3.227029e+00
  2.941137e+00    3.245044e+00
  2.957013e+00    3.242620e+00
  2.972889e+00    3.264689e+00
  2.988764e+00    3.269504e+00
  3.004640e+00    3.262170e+00
  3.020515e+00    3.314512e+00
  3.036391e+00    3.289052e+00
  3.052266e+00    3.296697e+00
  3.068142e+00    3.320905e+00
  3.084018e+00    3.299229e+00
  3.099893e+00    3.344336e+00
  3.115769e+00    3.406268e+00
  3.131644e+00    3.416027e+00
  3.147520e+00    3.448738e+00
  3.163395e+00    3.431689e+00
  3.179271e+00    3.345058e+00
  3.195147e+00    3.277202e+00
  3.211022e+00    3.433816e+00
  3.226898e+00    3.418703e+00
  3.242773e+00    3.346051e+00
  3.258649e+00    3.361492e+00
  3.274525e+00    3.399935e+00
  3.290400e+00    3.355452e+00
  3.306276e+00    3.388676e+00
  3.322151e+00    3.389978e+00
  3.338027e+00    3.387555e+00
  3.353902e+00    3.433476e+00
  3.369778e+00    3.319710e+00
  3.385654e+00    3.408981e+00
  3.401529e+00    3.445663e+00
  3.417405e+00    3.471464e+00
  3.433280e+00    3.443658e+00
  3.449156e+00    3.375706e+00
  3.465031e+00    3.468438e+00
  3.480907e+00    3.463203e+00
  3.496783e+00    3.469843e+00
  3.512658e+00    3.539051e+00
  3.528534e+00    3.468332e+00
  3.544409e+00    3.437941e+00
  3.560285e+00    3.502575e+00
  3.576160e+00    3.510966e+00
  3.592036e+00    3.465869e+00
  3.607912e+00    3.597521e+00
  3.623787e+00    3.414168e+00
  3.639663e+00    3.393718e+00
  3.655538e+00    3.424951e+00
  3.671414e+00    3.448486e+00
  3.687289e+00    3.471677e+00
  3.703165e+00    3.421881e+00
  3.719041e+00    3.362933e+00
  3.734916e+00    3.446943e+00
  3.750792e+00    3.448588e+00
  3.766667e+00    3.364440e+00
  3.782543e+00    3.440085e+00
  3.798418e+00    3.515380e+00
  3.814294e+00    3.462319e+00
  3.830170e+00    3.409544e+00
  3.846045e+00    3.416499e+00
  3.861921e+00    3.509520e+00
  3.877796e+00    3.492620e+00
  3.893672e+00    3.423851e+00
  3.909547e+00    3.470316e+00
  3.925423e+00    3.434098e+00
  3.941299e+00    3.406859e+00
  3.957174e+00    3.412507e+00
  3.973050e+00    3.479140e+00
  3.988925e+00    3.475895e+00
  4.004801e+00    3.473795e+00
  4.020676e+00    3.535882e+00
  4.036552e+00    3.522322e+00
  4.052428e+00    3.468322e+00
  4.068303e+00    3.539831e+00
  4.084179e+00    3.583356e+00
  4.100054e+00    3.626125e+00
  4.115930e+00    3.550673e+00
  4.131806e+00    3.494331e+00
  4.147681e+00    3.451517e+00
  4.163557e+00    3.557734e+00
  4.179432e+00    3.529058e+00
  4.195308e+00    3.556966e+00
  4.211183e+00    3.570441e+00
  4.227059e+00    3.637780e+00
  4.242935e+00    3.558581e+00
  4.258810e+00    3.612913e+00
  4.274686e+00    3.609884e+00
  4.290561e+00    3.475404e+00
  4.306437e+00    3.641451e+00
  4.322312e+00    3.623596e+00
  4.338188e+00    3.568948e+00
  4.354064e+00    3.508797e+00
  4.369939e+00    3.527368e+00
  4.385815e+00    3.592315e+00
  4.401690e+00    3.581511e+00
  4.417566e+00    3.579687e+00
  4.433441e+00    3.579601e+00
  4.449317e+00    3.568694e+00
  4.465193e+00    3.615757e+00
  4.481068e+00    3.586009e+00
  4.496944e+00    3.581880e+00
  4.512819e+00    3.514814e+00
  4.528695e+00    3.512043e+00
  4.544570e+00    3.516102e+00
  4.560446e+00    3.495618e+00
  4.576322e+00    3.560860e+00
  4.592197e+00    3.671559e+00
  4.608073e+00    3.644738e+00
  4.623948e+00    3.618309e+00
  4.639824e+00    3.603328e+00
  4.655699e+00    3.659012e+00
  4.671575e+00    3.583225e+00
  4.687451e+00    3.628524e+00
  4.703326e+00    3.685981e+00
  4.719202e+00    3.624445e+00
  4.735077e+00    3.604910e+00
  4.750953e+00    3.645494e+00
  4.766828e+00    3.623096e+00
  4.782704e+00    3.604621e+00
  4.798580e+00    3.623943e+00
  4.814455e+00    3.628561e+00
  4.830331e+00    3.601740e+00
  4.846206e+00    3.647333e+00
  4.862082e+00    3.689776e+00
  4.877957e+00    3.627794e+00
  4.893833e+00    3.576230e+00
  4.909709e+00    3.638435e+00
  4.925584e+00    3.627588e+00
  4.941460e+00    3.613021e+00
  4.957335e+00    3.633959e+00
  4.973211e+00    3.650444e+00
  4.989086e+00    3.573961e+00
  5.004962e+00    3.616887e+00
  5.020838e+00    3.621446e+00
  5.036713e+00    3.609668e+00
  5.052589e+00    3.610548e+00
  5.068464e+00    3.667065e+00
  5.084340e+00    3.640009e+00
  5.100216e+00    3.592680e+00
  5.116091e+00    3.641952e+00
  5.131967e+00    3.581064e+00
  5.147842e+00    3.595073e+00
  5.163718e+00    3.629708e+00
  5.179593e+00    3.596515e+00
  5.195469e+00    3.598474e+00
  5.211345e+00    3.696134e+00
  5.227220e+00    3.690766e+00
  5.243096e+00    3.632250e+00
  5.258971e+00    3.600875e+00
  5.274847e+00    3.679520e+00
  5.290722e+00    3.666752e+00
  5.306598e+00    3.709533e+00
  5.322474e+00    3.639918e+00
  5.338349e+00    3.638637e+00
  5.354225e+00    3.602794e+00
  5.370100e+00    3.623121e+00
  5.385976e+00    3.692559e+00
  5.401851e+00    3.596558e+00
  5.417727e+00    3.558568e+00
  5.433603e+00    3.570835e+00
  5.449478e+00    3.604329e+00
  5.465354e+00    3.600161e+00
  5.481229e+00    3.644090e+00
  5.497105e+00    3.568398e+00
  5.512980e+00    3.439098e+00
  5.528856e+00    3.499707e+00
  5.544732e+00    3.593967e+00
  5.560607e+00    3.531851e+00
  5.576483e+00    3.550486e+00
  5.592358e+00    3.532490e+00
  5.608234e+00    3.490585e+00
  5.624109e+00    3.545035e+00
  5.639985e+00    3.540513e+00
  5.655861e+00    3.589390e+00
  5.671736e+00    3.565125e+00
  5.687612e+00    3.536025e+00
  5.703487e+00    3.604914e+00
  5.719363e+00    3.622095e+00
  5.735238e+00    3.637551e+00
  5.751114e+00    3.611666e+00
  5.766990e+00    3.437739e+00
  5.782865e+00    3.442696e+00
  5.798741e+00    3.501576e+00
  5.814616e+00    3.507916e+00
  5.830492e+00    3.505927e+00
  5.846367e+00    3.528275e+00
  5.862243e+00    3.583148e+00
  5.878119e+00    3.583811e+00
  5.893994e+00    3.481094e+00
  5.909870e+00    3.464207e+00
  5.925745e+00    3.506566e+00
  5.941621e+00    3.562649e+00
  5.957497e+00    3.579784e+00
  5.973372e+00    3.488174e+00
  5.989248e+00    3.594150e+00
  6.005123e+00    3.523032e+00
  6.020999e+00    3.465760e+00
  6.036874e+00    3.525249e+00
  6.052750e+00    3.516036e+00
  6.068626e+00    3.600285e+00
  6.084501e+00    3.607809e+00
  6.100377e+00    3.596933e+00
  6.116252e+00    3.622425e+00
  6.132128e+00    3.507586e+00
  6.148003e+00    3.469188e+00
  6.163879e+00    3.455885e+00
  6.179755e+00    3.570006e+00
  6.195630e+00    3.596827e+00
  6.211506e+00    3.592341e+00
  6.227381e+00    3.532947e+00
  6.243257e+00    3.541462e+00
  6.259132e+00    3.460118e+00
  6.275008e+00    3.494845e+00
  6.290884e+00    3.546542e+00
  6.306759e+00    3.541479e+00
  6.322635e+00    3.601605e+00
  6.338510e+00    3.535520e+00
  6.354386e+00    3.518665e+00
  6.370261e+00    3.579606e+00
  6.386137e+00    3.631925e+00
  6.402013e+00    3.563078e+00
  6.417888e+00    3.516994e+00
  6.433764e+00    3.528375e+00
  6.449639e+00    3.609161e+00
  6.465515e+00    3.677753e+00
  6.481390e+00    3.598199e+00
  6.497266e+00    3.490180e+00
  6.513142e+00    3.493000e+00
  6.529017e+00    3.530191e+00
  6.544893e+00    3.549257e+00
  6.560768e+00    3.518785e+00
  6.576644e+00    3.533233e+00
  6.592519e+00    3.498447e+00
  6.608395e+00    3.557858e+00
  6.624271e+00    3.573586e+00
  6.640146e+00    3.500301e+00
  6.656022e+00    3.514303e+00
  6.671897e+00    3.499263e+00
  6.687773e+00    3.467404e+00
  6.703648e+00    3.533451e+00
  6.719524e+00    3.610796e+00
  6.735400e+00    3.613221e+00
  6.751275e+00    3.498803e+00
  6.767151e+00    3.520788e+00
  6.783026e+00    3.597625e+00
  6.798902e+00    3.591794e+00
  6.814777e+00    3.555470e+00
  6.830653e+00    3.545197e+00
  6.846529e+00    3.510726e+00
  6.862404e+00    3.484584e+00
  6.878280e+00    3.512564e+00
  6.894155e+00    3.541001e+00
  6.910031e+00    3.551275e+00
  6.925907e+00    3.603741e+00
  6.941782e+00    3.563190e+00
  6.957658e+00    3.561543e+00
  6.973533e+00    3.499041e+00
  6.989409e+00    3.516245e+00
  7.005284e+00    3.553155e+00
  7.021160e+00    3.547564e+00
  7.037036e+00    3.480356e+00
  7.052911e+00    3.499801e+00
  7.068787e+00    3.514612e+00
  7.084662e+00    3.510717e+00
  7.100538e+00    3.477428e+00
  7.116413e+00    3.457381e+00
  7.132289e+00    3.522204e+00
  7.148165e+00    3.537183e+00
  7.164040e+00    3.598412e+00
  7.179916e+00    3.526333e+00
  7.195791e+00    3.475585e+00
  7.211667e+00    3.504243e+00
  7.227542e+00    3.446471e+00
  7.243418e+00    3.498523e+00
  7.259294e+00    3.533597e+00
  7.275169e+00    3.496660e+00
  7.291045e+00    3.530187e+00
  7.306920e+00    3.490767e+00
  7.322796e+00    3.475037e+00
  7.338671e+00    3.506883e+00
  7.354547e+00    3.446515e+00
  7.370423e+00    3.513210e+00
  7.386298e+00    3.499459e+00
  7.402174e+00    3.542403e+00
  7.418049e+00    3.537123e+00
  7.433925e+00    3.521583e+00
  7.449800e+00    3.453928e+00
  7.465676e+00    3.402515e+00
  7.481552e+00    3.443075e+00
  7.497427e+00    3.443998e+00
  7.513303e+00    3.463639e+00
  7.529178e+00    3.408691e+00
  7.545054e+00    3.447885e+00
  7.560929e+00    3.501290e+00
  7.576805e+00    3.444015e+00
  7.592681e+00    3.549660e+00
  7.608556e+00    3.559223e+00
  7.624432e+00    3.475294e+00
  7.640307e+00    3.430299e+00
  7.656183e+00    3.448628e+00
  7.672058e+00    3.503916e+00
  7.687934e+00    3.437340e+00
  7.703810e+00    3.392296e+00
  7.719685e+00    3.456777e+00
  7.735561e+00    3.458809e+00
  7.751436e+00    3.448116e+00
  7.767312e+00    3.475738e+00
  7.783187e+00    3.520933e+00
  7.799063e+00    3.478601e+00
  7.814939e+00    3.417263e+00
  7.830814e+00    3.403689e+00
  7.846690e+00    3.418760e+00
  7.862565e+00    3.452192e+00
  7.878441e+00    3.432915e+00
  7.894317e+00    3.470827e+00
  7.910192e+00    3.427170e+00
  7.926068e+00    3.423288e+00
  7.941943e+00    3.435843e+00
  7.957819e+00    3.447787e+00
  7.973694e+00    3.433609e+00
  7.989570e+00    3.415267e+00
  8.005446e+00    3.410724e+00
  8.021321e+00    3.423593e+00
  8.037197e+00    3.402870e+00
  8.053072e+00    3.404726e+00
  8.068948e+00    3.448592e+00
  8.084823e+00    3.399623e+00
  8.100699e+00    3.481393e+00
  8.116575e+00    3.496192e+00
  8.132450e+00    3.417867e+00
  8.148326e+00    3.408076e+00
  8.164201e+00    3.449662e+00
  8.180077e+00    3.406917e+00
  8.195952e+00    3.400752e+00
  8.211828e+00    3.455904e+00
  8.227704e+00    3.493804e+00
  8.243579e+00    3.474284e+00
  8.259455e+00    3.464450e+00
  8.275330e+00    3.431261e+00
  8.291206e+00    3.441206e+00
  8.307081e+00    3.381828e+00
  8.322957e+00    3.414183e+00
  8.338833e+00    3.423711e+00
  8.354708e+00    3.373217e+00
  8.370584e+00    3.391424e+00
  8.386459e+00    3.380347e+00
  8.402335e+00    3.381111e+00
  8.418210e+00    3.343695e+00
  8.434086e+00    3.333322e+00
  8.449962e+00    3.350621e+00
  8.465837e+00    3.319336e+00
  8.481713e+00    3.372843e+00
  8.497588e+00    3.389940e+00
  8.513464e+00    3.378955e+00
  8.529339e+00    3.350235e+00
  8.545215e+00    3.314302e+00
  8.561091e+00    3.280426e+00
  8.576966e+00    3.349056e+00
  8.592842e+00    3.359624e+00
  8.608717e+00    3.332778e+00
  8.624593e+00    3.438676e+00
  8.640468e+00    3.391810e+00
  8.656344e+00    3.327353e+00
  8.672220e+00    3.316426e+00
  8.688095e+00    3.383974e+00
  8.703971e+00    3.350561e+00
  8.719846e+00    3.314489e+00
  8.735722e+00    3.353727e+00
  8.751598e+00    3.299182e+00
  8.767473e+00    3.335059e+00
  8.783349e+00    3.316726e+00
  8.799224e+00    3.325215e+00
  8.815100e+00    3.333997e+00
  8.830975e+00    3.310045e+00
  8.846851e+00    3.271349e+00
  8.862727e+00    3.288861e+00
  8.878602e+00    3.305979e+00
  8.894478e+00    3.309471e+00
  8.910353e+00    3.264881e+00
  8.926229e+00    3.284758e+00
  8.942104e+00    3.286396e+00
  8.957980e+00    3.339108e+00
  8.973856e+00    3.370538e+00
  8.989731e+00    3.406680e+00
  9.005607e+00    3.260549e+00
  9.021482e+00    3.256181e+00
  9.037358e+00    3.286948e+00
  9.053233e+00    3.213627e+00
  9.069109e+00    3.209925e+00
  9.084985e+00    3.282955e+00
  9.100860e+00    3.229030e+00
  9.116736e+00    3.286819e+00
  9.132611e+00    3.298963e+00
  9.148487e+00    3.283631e+00
  9.164362e+00    3.206603e+00
  9.180238e+00    3.178621e+00
  9.196114e+00    3.185591e+00
  9.211989e+00    3.256835e+00
  9.227865e+00    3.261793e+00
  9.243740e+00    3.286010e+00
  9.259616e+00    3.256944e+00
  9.275491e+00    3.236856e+00
  9.291367e+00    3.250857e+00
  9.307243e+00    3.278203e+00
  9.323118e+00    3.258103e+00
  9.338994e+00    3.216191e+00
  9.354869e+00    3.211114e+00
  9.370745e+00    3.148387e+00
  9.386620e+00    3.164418e+00
  9.402496e+00    3.189323e+00
  9.418372e+00    3.227610e+00
  9.434247e+00    3.256792e+00
  9.450123e+00    3.228606e+00
  9.465998e+00    3.184004e+00
  9.481874e+00    3.205743e+00
  9.497749e+00    3.167260e+00
  9.513625e+00    3.174067e+00
  9.529501e+00    3.212393e+00
  9.545376e+00    3.159971e+00
  9.561252e+00    3.195510e+00
  9.577127e+00    3.241330e+00
  9.593003e+00    3.220054e+00
  9.608878e+00    3.136910e+00
  9.624754e+00    3.190128e+00
  9.640630e+00    3.196927e+00
  9.656505e+00    3.205543e+00
  9.672381e+00    3.178055e+00
  9.688256e+00    3.162473e+00
  9.704132e+00    3.097273e+00
  9.720008e+00    3.088597e+00
  9.735883e+00    3.189306e+00
  9.751759e+00    3.178318e+00
  9.767634e+00    3.156299e+00
  9.783510e+00    3.131240e+00
  9.799385e+00    3.183345e+00
  9.815261e+00    3.163033e+00
  9.831137e+00    3.120603e+00
  9.847012e+00    3.133608e+00
  9.862888e+00    3.131857e+00
  9.878763e+00    3.123653e+00
  9.894639e+00    3.119281e+00
  9.910514e+00    3.148946e+00
  9.926390e+00    3.119144e+00
  9.942266e+00    3.119942e+00
  9.958141e+00    3.121176e+00
  9.974017e+00    3.075835e+00
  9.989892e+00    3.074735e+00
  1.000577e+01    3.063783e+00
  1.002164e+01    3.100336e+00
  1.003752e+01    3.115785e+00
  1.005339e+01    3.043947e+00
  1.006927e+01    3.017988e+00
  1.008515e+01    3.080130e+00
  1.010102e+01    3.047405e+00
  1.011690e+01    3.044510e+00
  1.013277e+01    3.088131e+00
  1.014865e+01    3.082273e+00
  1.016452e+01    3.087476e+00
  1.018040e+01    3.078986e+00
  1.019627e+01    3.051204e+00
  1.021215e+01    3.098835e+00
  1.022803e+01    3.089489e+00
  1.024390e+01    3.074651e+00
  1.025978e+01    2.995751e+00
  1.027565e+01    3.027530e+00
  1.029153e+01    3.046410e+00
  1.030740e+01    3.073938e+00
  1.032328e+01    3.014728e+00
  1.033915e+01    3.026434e+00
  1.035503e+01    3.026737e+00
  1.037091e+01    3.024701e+00
  1.038678e+01    3.043185e+00
  1.040266e+01    3.017764e+00
  1.041853e+01    2.998291e+00
  1.043441e+01    2.997839e+00
  1.045028e+01    3.000384e+00
  1.046616e+01    2.971203e+00
  1.048204e+01    2.953915e+00
  1.049791e+01    2.960817e+00
  1.051379e+01    2.936597e+00
  1.052966e+01    2.989312e+00
  1.054554e+01    2.986061e+00
  1.056141e+01    3.026011e+00
  1.057729e+01    3.013534e+00
  1.059316e+01    2.955672e+00
  1.060904e+01    2.959940e+00
  1.062492e+01    2.983198e+00
  1.064079e+01    3.011595e+00
  1.065667e+01    2.994223e+00
  1.067254e+01    2.945060e+00
  1.068842e+01    2.950321e+00
  1.070429e+01    2.984266e+00
  1.072017e+01    2.935085e+00
  1.073604e+01    2.925750e+00
  1.075192e+01    2.958458e+00
  1.076780e+01    2.997176e+00
  1.078367e+01    2.966027e+00
  1.079955e+01    2.938185e+00
  1.081542e+01    2.907637e+00
  1.083130e+01    2.893841e+00
  1.084717e+01    2.905437e+00
  1.086305e+01    2.934753e+00
  1.087892e+01    2.866334e+00
  1.089480e+01    2.867142e+00
  1.091068e+01    2.886745e+00
  1.092655e+01    2.852946e+00
  1.094243e+01    2.856686e+00
  1.095830e+01    2.890693e+00
  1.097418e+01    2.904568e+00
  1.099005e+01    2.931284e+00
  1.100593e+01    2.879541e+00
  1.102180e+01    2.912962e+00
  1.103768e+01    2.926657e+00
  1.105356e+01    2.896707e+00
  1.106943e+01    2.873067e+00
  1.108531e+01    2.824367e+00
  1.110118e+01    2.856622e+00
  1.111706e+01    2.870536e+00
  1.113293e+01    2.865836e+00
  1.114881e+01    2.867081e+00
  1.116468e+01    2.884556e+00
  1.118056e+01    2.921363e+00
  1.119644e+01    2.934145e+00
  1.121231e+01    2.875078e+00
  1.122819e+01    2.794115e+00
  1.124406e+01    2.807332e+00
  1.125994e+01    2.824421e+00
  1.127581e+01    2.827662e+00
  1.129169e+01    2.824324e+00
  1.130756e+01    2.789982e+00
  1.132344e+01    2.842025e+00
  1.133932e+01    2.802705e+00
  1.135519e+01    2.799384e+00
  1.137107e+01    2.848486e+00
  1.138694e+01    2.848429e+00
  1.140282e+01    2.816285e+00
  1.141869e+01    2.837124e+00
  1.143457e+01    2.825155e+00
  1.145045e+01    2.793535e+00
  1.146632e+01    2.815225e+00
  1.148220e+01    2.840191e+00
  1.149807e+01    2.811058e+00
  1.151395e+01    2.777583e+00
  1.152982e+01    2.822638e+00
  1.154570e+01    2.823141e+00
  1.156157e+01    2.810528e+00
  1.157745e+01    2.762061e+00
  1.159333e+01    2.780042e+00
  1.160920e+01    2.805442e+00
  1.162508e+01    2.764973e+00
  1.164095e+01    2.761735e+00
  1.165683e+01    2.771768e+00
  1.167270e+01    2.733259e+00
  1.168858e+01    2.731407e+00
  1.170445e+01    2.730211e+00
  1.172033e+01    2.763811e+00
  1.173621e+01    2.767823e+00
  1.175208e+01    2.759194e+00
  1.176796e+01    2.729578e+00
  1.178383e+01    2.702816e+00
  1.179971e+01    2.742080e+00
  1.181558e+01    2.706358e+00
  1.183146e+01    2.671155e+00
  1.184733e+01    2.712213e+00
  1.186321e+01    2.708405e+00
  1.187909e+01    2.726136e+00
  1.189496e+01    2.713705e+00
  1.191084e+01    2.719254e+00
  1.192671e+01    2.688534e+00
  1.194259e+01    2.651012e+00
  1.195846e+01    2.719655e+00
  1.197434e+01    2.711622e+00
  1.199021e+01    2.646381e+00
  1.200609e+01    2.652715e+00
  1.202197e+01    2.688339e+00
  1.203784e+01    2.676060e+00
  1.205372e+01    2.673780e+00
  1.206959e+01    2.745251e+00
  1.208547e+01    2.755160e+00
  1.210134e+01    2.697719e+00
  1.211722e+01    2.673972e+00
  1.213309e+01    2.686938e+00
  1.214897e+01    2.673450e+00
  1.216485e+01    2.645172e+00
  1.218072e+01    2.725723e+00
  1.219660e+01    2.671909e+00
  1.221247e+01    2.653042e+00
  1.222835e+01    2.656044e+00
  1.224422e+01    2.644673e+00
  1.226010e+01    2.690711e+00
  1.227597e+01    2.680987e+00
  1.229185e+01    2.659139e+00
  1.230773e+01    2.693004e+00
  1.232360e+01    2.662227e+00
  1.233948e+01    2.642020e+00
  1.235535e+01    2.649863e+00
  1.237123e+01    2.678959e+00
  1.238710e+01    2.644075e+00
  1.240298e+01    2.701046e+00
  1.241886e+01    2.700946e+00
  1.243473e+01    2.641664e+00
  1.245061e+01    2.680400e+00
  1.246648e+01    2.711620e+00
  1.248236e+01    2.707487e+00
  1.249823e+01    2.696295e+00
  1.251411e+01    2.678261e+00
  1.252998e+01    2.754887e+00
  1.254586e+01    2.765614e+00
  1.256174e+01    2.746440e+00
  1.257761e+01    2.726516e+00
  1.259349e+01    2.701511e+00
  1.260936e+01    2.694948e+00
  1.262524e+01    2.684137e+00
  1.264111e+01    2.723469e+00
  1.265699e+01    2.748214e+00
  1.267286e+01    2.759092e+00
  1.268874e+01    2.765918e+00
  1.270462e+01    2.796012e+00
  1.272049e+01    2.803198e+00
  1.273637e+01    2.786361e+00
  1.275224e+01    2.856553e+00
  1.276812e+01    2.917104e+00
  1.278399e+01    2.906896e+00
  1.279987e+01    3.006082e+00
  1.281574e+01    3.030152e+00
  1.283162e+01    3.095177e+00
  1.284750e+01    3.188633e+00
  1.286337e+01    3.239827e+00
  1.287925e+01    3.381935e+00
  1.289512e+01    3.498254e+00
  1.291100e+01    3.667166e+00
  1.292687e+01    3.877616e+00
  1.294275e+01    4.114302e+00
  1.295862e+01    4.446548e+00
  1.297450e+01    4.821211e+00
  1.299038e+01    5.302866e+00
  1.300625e+01    5.983290e+00
  1.302213e+01    6.807478e+00
  1.303800e+01    7.727885e+00
  1.305388e+01    8.923949e+00
  1.306975e+01    1.024131e+01
  1.308563e+01    1.153194e+01
  1.310150e+01    1.266584e+01
  1.311738e+01    1.390701e+01
  1.313326e+01    1.495845e+01
  1.314913e+01    1.569354e+01
  1.316501e+01    1.631346e+01
  1.318088e+01    1.625148e+01
  1.319676e+01    1.552702e+01
  1.321263e+01    1.421742e+01
  1.322851e+01    1.238069e+01
  1.324438e+01    1.052327e+01
  1.326026e+01    9.009927e+00
  1.327614e+01    7.621679e+00
  1.329201e+01    6.620484e+00
  1.330789e+01    5.919653e+00
  1.332376e+01    5.255054e+00
  1.333964e+01    4.898660e+00
  1.335551e+01    4.488723e+00
  1.337139e+01    4.064394e+00
  1.338727e+01    3.819202e+00
  1.340314e+01    3.587502e+00
  1.341902e+01    3.420019e+00
  1.343489e+01    3.338202e+00
  1.345077e+01    3.212994e+00
  1.346664e+01    3.139545e+00
  1.348252e+01    3.021201e+00
  1.349839e+01    2.933319e+00
  1.351427e+01    2.905185e+00
  1.353015e+01    2.864007e+00
  1.354602e+01    2.781775e+00
  1.356190e+01    2.753353e+00
  1.357777e+01    2.759774e+00
  1.359365e+01    2.692341e+00
  1.360952e+01    2.647527e+00
  1.362540e+01    2.610995e+00
  1.364127e+01    2.568941e+00
  1.365715e+01    2.563834e+00
  1.367303e+01    2.574262e+00
  1.368890e+01    2.588281e+00
  1.370478e+01    2.551481e+00
  1.372065e+01    2.506589e+00
  1.373653e+01    2.497541e+00
  1.375240e+01    2.507374e+00
  1.376828e+01    2.481562e+00
  1.378415e+01    2.448246e+00
  1.380003e+01    2.483324e+00
  1.381591e+01    2.453783e+00
  1.383178e+01    2.402566e+00
  1.384766e+01    2.410177e+00
  1.386353e+01    2.443270e+00
  1.387941e+01    2.434127e+00
  1.389528e+01    2.412945e+00
  1.391116e+01    2.383919e+00
  1.392703e+01    2.385465e+00
  1.394291e+01    2.373655e+00
  1.395879e+01    2.337157e+00
  1.397466e+01    2.390136e+00
  1.399054e+01    2.436708e+00
  1.400641e+01    2.373954e+00
  1.402229e+01    2.373043e+00
  1.403816e+01    2.356817e+00
  1.405404e+01    2.347275e+00
  1.406991e+01    2.300490e+00
  1.408579e+01    2.303286e+00
  1.410167e+01    2.331116e+00
  1.411754e+01    2.326520e+00
  1.413342e+01    2.306037e+00
  1.414929e+01    2.314295e+00
  1.416517e+01    2.322490e+00
  1.418104e+01    2.326424e+00
  1.419692e+01    2.274580e+00
  1.421279e+01    2.316984e+00
  1.422867e+01    2.261884e+00
  1.424455e+01    2.247436e+00
  1.426042e+01    2.277112e+00
  1.427630e+01    2.264520e+00
  1.429217e+01    2.271708e+00
  1.430805e+01    2.282836e+00
  1.432392e+01    2.268925e+00
  1.433980e+01    2.198852e+00
  1.435568e+01    2.225132e+00
  1.437155e+01    2.270362e+00
  1.438743e+01    2.249689e+00
  1.440330e+01    2.222025e+00
  1.441918e+01    2.215047e+00
  1.443505e+01    2.181325e+00
  1.445093e+01    2.193583e+00
  1.446680e+01    2.220050e+00
  1.448268e+01    2.251077e+00
  1.449856e+01    2.226088e+00
  1.451443e+01    2.198377e+00
  1.453031e+01    2.226634e+00
  1.454618e+01    2.196429e+00
  1.456206e+01    2.219296e+00
  1.457793e+01    2.235101e+00
  1.459381e+01    2.188120e+00
  1.460968e+01    2.206362e+00
  1.462556e+01    2.183220e+00
  1.464144e+01    2.206403e+00
  1.465731e+01    2.230068e+00
  1.467319e+01    2.215362e+00
  1.468906e+01    2.211715e+00
  1.470494e+01    2.187730e+00
  1.472081e+01    2.186584e+00
  1.473669e+01    2.175532e+00
  1.475256e+01    2.143093e+00
  1.476844e+01    2.172028e+00
  1.478432e+01    2.175549e+00
  1.480019e+01    2.188710e+00
  1.481607e+01    2.177384e+00
  1.483194e+01    2.178132e+00
  1.484782e+01    2.173645e+00
  1.486369e+01    2.177654e+00
  1.487957e+01    2.188467e+00
  1.489544e+01    2.239338e+00
  1.491132e+01    2.266705e+00
  1.492720e+01    2.289130e+00
  1.494307e+01    2.248453e+00
  1.495895e+01    2.320467e+00
  1.497482e+01    2.369227e+00
  1.499070e+01    2.372787e+00
  1.500657e+01    2.412987e+00
  1.502245e+01    2.473440e+00
  1.503832e+01    2.554842e+00
  1.505420e+01    2.715062e+00
  1.507008e+01    2.837105e+00
  1.508595e+01    3.010699e+00
  1.510183e+01    3.234679e+00
  1.511770e+01    3.437209e+00
  1.513358e+01    3.743623e+00
  1.514945e+01    4.159548e+00
  1.516533e+01    4.519121e+00
  1.518120e+01    4.910606e+00
  1.519708e+01    5.221887e+00
  1.521296e+01    5.439447e+00
  1.522883e+01    5.642116e+00
  1.524471e+01    5.824086e+00
  1.526058e+01    5.793087e+00
  1.527646e+01    5.721978e+00
  1.529233e+01    5.479180e+00
  1.530821e+01    5.099835e+00
  1.532409e+01    4.633207e+00
  1.533996e+01    4.107892e+00
  1.535584e+01    3.723219e+00
  1.537171e+01    3.393790e+00
  1.538759e+01    3.160459e+00
  1.540346e+01    2.937283e+00
  1.541934e+01    2.771394e+00
  1.543521e+01    2.637334e+00
  1.545109e+01    2.501749e+00
  1.546697e+01    2.443085e+00
  1.548284e+01    2.382299e+00
  1.549872e+01    2.279803e+00
  1.551459e+01    2.260223e+00
  1.553047e+01    2.190892e+00
  1.554634e+01    2.110868e+00
  1.556222e+01    2.117764e+00
  1.557809e+01    2.146435e+00
  1.559397e+01    2.095749e+00
  1.560985e+01    2.037831e+00
  1.562572e+01    2.074337e+00
  1.564160e+01    2.047630e+00
  1.565747e+01    2.012015e+00
  1.567335e+01    2.020730e+00
  1.568922e+01    1.977941e+00
  1.570510e+01    1.955588e+00
  1.572097e+01    1.950990e+00
  1.573685e+01    1.965470e+00
  1.575273e+01    1.982563e+00
  1.576860e+01    1.987539e+00
  1.578448e+01    1.934117e+00
  1.580035e+01    1.911952e+00
  1.581623e+01    1.913198e+00
  1.583210e+01    1.913279e+00
  1.584798e+01    1.917711e+00
  1.586385e+01    1.911685e+00
  1.587973e+01    1.926625e+00
  1.589561e+01    1.935475e+00
  1.591148e+01    1.930014e+00
  1.592736e+01    1.922758e+00
  1.594323e+01    1.890383e+00
  1.595911e+01    1.878414e+00
  1.597498e+01    1.858417e+00
  1.599086e+01    1.846595e+00
  1.600673e+01    1.845595e+00
  1.602261e+01    1.878746e+00
  1.603849e+01    1.892466e+00
  1.605436e+01    1.890428e+00
  1.607024e+01    1.838627e+00
  1.608611e+01    1.833252e+00
  1.610199e+01    1.796418e+00
  1.611786e+01    1.776909e+00
  1.613374e+01    1.808976e+00
  1.614961e+01    1.793445e+00
  1.616549e+01    1.828964e+00
  1.618137e+01    1.811850e+00
  1.619724e+01    1.804972e+00
  1.621312e+01    1.822493e+00
  1.622899e+01    1.826237e+00
  1.624487e+01    1.818490e+00
  1.626074e+01    1.814782e+00
  1.627662e+01    1.782646e+00
  1.629250e+01    1.777907e+00
  1.630837e+01    1.775071e+00
  1.632425e+01    1.789557e+00
  1.634012e+01    1.774877e+00
  1.635600e+01    1.792126e+00
  1.637187e+01    1.776310e+00
  1.638775e+01    1.784289e+00
  1.640362e+01    1.754701e+00
  1.641950e+01    1.779699e+00
  1.643538e+01    1.754631e+00
  1.645125e+01    1.791827e+00
  1.646713e+01    1.772436e+00
  1.648300e+01    1.744249e+00
  1.649888e+01    1.753653e+00
  1.651475e+01    1.731979e+00
  1.653063e+01    1.716849e+00
  1.654650e+01    1.724481e+00
  1.656238e+01    1.740784e+00
  1.657826e+01    1.745309e+00
  1.659413e+01    1.723212e+00
  1.661001e+01    1.728110e+00
  1.662588e+01    1.735352e+00
  1.664176e+01    1.710072e+00
  1.665763e+01    1.717782e+00
  1.667351e+01    1.711140e+00
  1.668938e+01    1.712785e+00
  1.670526e+01    1.714180e+00
  1.672114e+01    1.722127e+00
  1.673701e+01    1.700423e+00
  1.675289e+01    1.690888e+00
  1.676876e+01    1.725698e+00
  1.678464e+01    1.706616e+00
  1.680051e+01    1.705322e+00
  1.681639e+01    1.708946e+00
  1.683226e+01    1.707867e+00
  1.684814e+01    1.684950e+00
  1.686402e+01    1.663563e+00
  1.687989e+01    1.671728e+00
  1.689577e+01    1.661141e+00
  1.691164e+01    1.690698e+00
  1.692752e+01    1.685168e+00
  1.694339e+01    1.677939e+00
  1.695927e+01    1.661415e+00
  1.697514e+01    1.668416e+00
  1.699102e+01    1.659842e+00
  1.700690e+01    1.667916e+00
  1.702277e+01    1.650956e+00
  1.703865e+01    1.619751e+00
  1.705452e+01    1.615830e+00
  1.707040e+01    1.642606e+00
  1.708627e+01    1.657601e+00
  1.710215e+01    1.671320e+00
  1.711802e+01    1.647534e+00
  1.713390e+01    1.662514e+00
  1.714978e+01    1.646313e+00
  1.716565e+01    1.639618e+00
  1.718153e+01    1.615358e+00
  1.719740e+01    1.641901e+00
  1.721328e+01    1.635093e+00
  1.722915e+01    1.610160e+00
  1.724503e+01    1.638143e+00
  1.726091e+01    1.640387e+00
  1.727678e+01    1.622117e+00
  1.729266e+01    1.627135e+00
  1.730853e+01    1.609777e+00
  1.732441e+01    1.625186e+00
  1.734028e+01    1.594993e+00
  1.735616e+01    1.570387e+00
  1.737203e+01    1.588784e+00
  1.738791e+01    1.583738e+00
  1.740379e+01    1.585556e+00
  1.741966e+01    1.578292e+00
  1.743554e+01    1.574328e+00
  1.745141e+01    1.591313e+00
  1.746729e+01    1.581470e+00
  1.748316e+01    1.584734e+00
  1.749904e+01    1.577513e+00
  1.751491e+01    1.579911e+00
  1.753079e+01    1.576766e+00
  1.754667e+01    1.561311e+00
  1.756254e+01    1.585029e+00
  1.757842e+01    1.557794e+00
  1.759429e+01    1.554126e+00
  1.761017e+01    1.532044e+00
  1.762604e+01    1.565281e+00
  1.764192e+01    1.570587e+00
  1.765779e+01    1.540572e+00
  1.767367e+01    1.547201e+00
  1.768955e+01    1.557328e+00
  1.770542e+01    1.569510e+00
  1.772130e+01    1.540885e+00
  1.773717e+01    1.557398e+00
  1.775305e+01    1.552332e+00
  1.776892e+01    1.526624e+00
  1.778480e+01    1.532708e+00
  1.780067e+01    1.536061e+00
  1.781655e+01    1.550213e+00
  1.783243e+01    1.559181e+00
  1.784830e+01    1.581306e+00
  1.786418e+01    1.559506e+00
  1.788005e+01    1.548646e+00
  1.789593e+01    1.529158e+00
  1.791180e+01    1.521367e+00
  1.792768e+01    1.515935e+00
  1.794355e+01    1.500532e+00
  1.795943e+01    1.511664e+00
  1.797531e+01    1.533131e+00
  1.799118e+01    1.547646e+00
  1.800706e+01    1.521441e+00
  1.802293e+01    1.520051e+00
  1.803881e+01    1.498281e+00
  1.805468e+01    1.482841e+00
  1.807056e+01    1.479725e+00
  1.808643e+01    1.487761e+00
  1.810231e+01    1.487511e+00
  1.811819e+01    1.516782e+00
  1.813406e+01    1.501705e+00
  1.814994e+01    1.484385e+00
  1.816581e+01    1.479385e+00
  1.818169e+01    1.492664e+00
  1.819756e+01    1.509884e+00
  1.821344e+01    1.494046e+00
  1.822932e+01    1.483621e+00
  1.824519e+01    1.457387e+00
  1.826107e+01    1.446900e+00
  1.827694e+01    1.448437e+00
  1.829282e+01    1.432399e+00
  1.830869e+01    1.433920e+00
  1.832457e+01    1.440348e+00
  1.834044e+01    1.430111e+00
  1.835632e+01    1.468231e+00
  1.837220e+01    1.481206e+00
  1.838807e+01    1.466029e+00
  1.840395e+01    1.448577e+00
  1.841982e+01    1.450477e+00
  1.843570e+01    1.457767e+00
  1.845157e+01    1.434578e+00
  1.846745e+01    1.430260e+00
  1.848332e+01    1.417261e+00
  1.849920e+01    1.423079e+00
  1.851508e+01    1.436142e+00
  1.853095e+01    1.444484e+00
  1.854683e+01    1.427200e+00
  1.856270e+01    1.399988e+00
  1.857858e+01    1.432030e+00
  1.859445e+01    1.451707e+00
  1.861033e+01    1.434164e+00
  1.862620e+01    1.413014e+00
  1.864208e+01    1.390100e+00
  1.865796e+01    1.396763e+00
  1.867383e+01    1.429545e+00
  1.868971e+01    1.437613e+00
  1.870558e+01    1.429636e+00
  1.872146e+01    1.383015e+00
  1.873733e+01    1.408341e+00
  1.875321e+01    1.407729e+00
  1.876908e+01    1.408149e+00
  1.878496e+01    1.411004e+00
  1.880084e+01    1.406502e+00
  1.881671e+01    1.403651e+00
  1.883259e+01    1.389933e+00
  1.884846e+01    1.383544e+00
  1.886434e+01    1.387623e+00
  1.888021e+01    1.381532e+00
  1.889609e+01    1.392691e+00
  1.891196e+01    1.376786e+00
  1.892784e+01    1.380332e+00
  1.894372e+01    1.405398e+00
  1.895959e+01    1.410261e+00
  1.897547e+01    1.396384e+00
  1.899134e+01    1.367123e+00
  1.900722e+01    1.357366e+00
  1.902309e+01    1.384123e+00
  1.903897e+01    1.396717e+00
  1.905484e+01    1.355033e+00
  1.907072e+01    1.331310e+00
  1.908660e+01    1.355498e+00
  1.910247e+01    1.351018e+00
  1.911835e+01    1.329069e+00
  1.913422e+01    1.376396e+00
  1.915010e+01    1.402989e+00
  1.916597e+01    1.390800e+00
  1.918185e+01    1.350897e+00
  1.919773e+01    1.341035e+00
  1.921360e+01    1.366323e+00
  1.922948e+01    1.374758e+00
  1.924535e+01    1.366621e+00
  1.926123e+01    1.356120e+00
  1.927710e+01    1.362915e+00
  1.929298e+01    1.343832e+00
  1.930885e+01    1.334355e+00
  1.932473e+01    1.327104e+00
  1.934061e+01    1.347041e+00
  1.935648e+01    1.330794e+00
  1.937236e+01    1.363273e+00
  1.938823e+01    1.338357e+00
  1.940411e+01    1.333171e+00
  1.941998e+01    1.323689e+00
  1.943586e+01    1.298244e+00
  1.945173e+01    1.318939e+00
  1.946761e+01    1.350279e+00
  1.948349e+01    1.342674e+00
  1.949936e+01    1.358224e+00
  1.951524e+01    1.352576e+00
  1.953111e+01    1.338633e+00
  1.954699e+01    1.336670e+00
  1.956286e+01    1.280308e+00
  1.957874e+01    1.307942e+00
  1.959461e+01    1.349268e+00
  1.961049e+01    1.340257e+00
  1.962637e+01    1.305923e+00
  1.964224e+01    1.261424e+00
  1.965812e+01    1.281584e+00
  1.967399e+01    1.311312e+00
  1.968987e+01    1.309151e+00
  1.970574e+01    1.310579e+00
  1.972162e+01    1.297836e+00
  1.973749e+01    1.330508e+00
  1.975337e+01    1.322840e+00
  1.976925e+01    1.326416e+00
  1.978512e+01    1.310586e+00
  1.980100e+01    1.294266e+00
  1.981687e+01    1.274651e+00
  1.983275e+01    1.286930e+00
  1.984862e+01    1.305677e+00
  1.986450e+01    1.289081e+00
  1.988037e+01    1.281111e+00
  1.989625e+01    1.270211e+00
  1.991213e+01    1.301199e+00
  1.992800e+01    1.293124e+00
  1.994388e+01    1.284550e+00
  1.995975e+01    1.287262e+00
  1.997563e+01    1.283522e+00
  1.999150e+01    1.282190e+00
  2.000738e+01    1.254516e+00
  2.002325e+01    1.263589e+00
  2.003913e+01    1.291248e+00
  2.005501e+01    1.264848e+00
  2.007088e+01    1.232640e+00
  2.008676e+01    1.278599e+00
  2.010263e+01    1.291956e+00
  2.011851e+01    1.264089e+00
  2.013438e+01    1.260452e+00
  2.015026e+01    1.261201e+00
  2.016614e+01    1.267426e+00
  2.018201e+01    1.263102e+00
  2.019789e+01    1.255161e+00
  2.021376e+01    1.252735e+00
  2.022964e+01    1.235532e+00
  2.024551e+01    1.266373e+00
  2.026139e+01    1.272347e+00
  2.027726e+01    1.267903e+00
  2.029314e+01    1.269677e+00
  2.030902e+01    1.237544e+00
  2.032489e+01    1.228765e+00
  2.034077e+01    1.245732e+00
  2.035664e+01    1.250804e+00
  2.037252e+01    1.250304e+00
  2.038839e+01    1.246493e+00
  2.040427e+01    1.238663e+00
  2.042014e+01    1.228569e+00
  2.043602e+01    1.255331e+00
  2.045190e+01    1.250377e+00
  2.046777e+01    1.229731e+00
  2.048365e+01    1.233599e+00
  2.049952e+01    1.217643e+00
  2.051540e+01    1.243692e+00
  2.053127e+01    1.243490e+00
  2.054715e+01    1.238624e+00
  2.056302e+01    1.248856e+00
  2.057890e+01    1.218594e+00
  2.059478e+01    1.224356e+00
  2.061065e+01    1.234204e+00
  2.062653e+01    1.233068e+00
  2.064240e+01    1.240847e+00
  2.065828e+01    1.210964e+00
  2.067415e+01    1.237849e+00
  2.069003e+01    1.241839e+00
  2.070590e+01    1.239298e+00
  2.072178e+01    1.228638e+00
  2.073766e+01    1.235889e+00
  2.075353e+01    1.207810e+00
  2.076941e+01    1.243295e+00
  2.078528e+01    1.231417e+00
  2.080116e+01    1.241444e+00
  2.081703e+01    1.206928e+00
  2.083291e+01    1.206756e+00
  2.084878e+01    1.219150e+00
  2.086466e+01    1.239786e+00
  2.088054e+01    1.241679e+00
  2.089641e+01    1.248232e+00
  2.091229e+01    1.241078e+00
  2.092816e+01    1.236396e+00
  2.094404e+01    1.230512e+00
  2.095991e+01    1.223862e+00
  2.097579e+01    1.237491e+00
  2.099166e+01    1.234195e+00
  2.100754e+01    1.229300e+00
  2.102342e+01    1.260298e+00
  2.103929e+01    1.254175e+00
  2.105517e+01    1.230252e+00
  2.107104e+01    1.218772e+00
  2.108692e+01    1.219258e+00
  2.110279e+01    1.211497e+00
  2.111867e+01    1.225343e+00
  2.113455e+01    1.214135e+00
  2.115042e+01    1.215759e+00
  2.116630e+01    1.220438e+00
  2.118217e+01    1.220603e+00
  2.119805e+01    1.228626e+00
  2.121392e+01    1.225589e+00
  2.122980e+01    1.231000e+00
  2.124567e+01    1.240857e+00
  2.126155e+01    1.242754e+00
  2.127743e+01    1.246324e+00
  2.129330e+01    1.250691e+00
  2.130918e+01    1.262134e+00
  2.132505e+01    1.276069e+00
  2.134093e+01    1.277506e+00
  2.135680e+01    1.285074e+00
  2.137268e+01    1.279908e+00
  2.138855e+01    1.304910e+00
  2.140443e+01    1.322889e+00
  2.142031e+01    1.310161e+00
  2.143618e+01    1.349126e+00
  2.145206e+01    1.342641e+00
  2.146793e+01    1.346889e+00
  2.148381e+01    1.388539e+00
  2.149968e+01    1.416140e+00
  2.151556e+01    1.456707e+00
  2.153143e+01    1.460849e+00
  2.154731e+01    1.501261e+00
  2.156319e+01    1.556140e+00
  2.157906e+01    1.604679e+00
  2.159494e+01    1.677268e+00
  2.161081e+01    1.779957e+00
  2.162669e+01    1.869022e+00
  2.164256e+01    1.953034e+00
  2.165844e+01    2.093444e+00
  2.167431e+01    2.294384e+00
  2.169019e+01    2.526671e+00
  2.170607e+01    2.804054e+00
  2.172194e+01    3.176841e+00
  2.173782e+01    3.564957e+00
  2.175369e+01    4.069786e+00
  2.176957e+01    4.643956e+00
  2.178544e+01    5.256690e+00
  2.180132e+01    5.970787e+00
  2.181719e+01    6.583803e+00
  2.183307e+01    7.161089e+00
  2.184895e+01    7.815172e+00
  2.186482e+01    8.389297e+00
  2.188070e+01    8.772910e+00
  2.189657e+01    8.916806e+00
  2.191245e+01    8.676926e+00
  2.192832e+01    8.137897e+00
  2.194420e+01    7.369432e+00
  2.196007e+01    6.375590e+00
  2.197595e+01    5.545217e+00
  2.199183e+01    4.742935e+00
  2.200770e+01    4.098456e+00
  2.202358e+01    3.582199e+00
  2.203945e+01    3.110059e+00
  2.205533e+01    2.765758e+00
  2.207120e+01    2.569415e+00
  2.208708e+01    2.282540e+00
  2.210296e+01    2.107593e+00
  2.211883e+01    1.957794e+00
  2.213471e+01    1.839546e+00
  2.215058e+01    1.718156e+00
  2.216646e+01    1.649341e+00
  2.218233e+01    1.571559e+00
  2.219821e+01    1.521949e+00
  2.221408e+01    1.449075e+00
  2.222996e+01    1.432219e+00
  2.224584e+01    1.404499e+00
  2.226171e+01    1.361231e+00
  2.227759e+01    1.343012e+00
  2.229346e+01    1.291287e+00
  2.230934e+01    1.260550e+00
  2.232521e+01    1.251711e+00
  2.234109e+01    1.243777e+00
  2.235696e+01    1.231935e+00
  2.237284e+01    1.211976e+00
  2.238872e+01    1.208734e+00
  2.240459e+01    1.198230e+00
  2.242047e+01    1.180822e+00
  2.243634e+01    1.166762e+00
  2.245222e+01    1.163717e+00
  2.246809e+01    1.141441e+00
  2.248397e+01    1.132636e+00
  2.249984e+01    1.129439e+00
  2.251572e+01    1.122350e+00
  2.253160e+01    1.103014e+00
  2.254747e+01    1.105396e+00
  2.256335e+01    1.128222e+00
  2.257922e+01    1.111527e+00
  2.259510e+01    1.093862e+00
  2.261097e+01    1.096864e+00
  2.262685e+01    1.104812e+00
  2.264272e+01    1.103543e+00
  2.265860e+01    1.081647e+00
  2.267448e+01    1.068325e+00
  2.269035e+01    1.055828e+00
  2.270623e+01    1.063514e+00
  2.272210e+01    1.057392e+00
  2.273798e+01    1.064315e+00
  2.275385e+01    1.053516e+00
  2.276973e+01    1.043106e+00
  2.278560e+01    1.058893e+00
  2.280148e+01    1.053327e+00
  2.281736e+01    1.050119e+00
  2.283323e+01    1.048636e+00
  2.284911e+01    1.032688e+00
  2.286498e+01    1.048165e+00
  2.288086e+01    1.071221e+00
  2.289673e+01    1.030808e+00
  2.291261e+01    1.039163e+00
  2.292848e+01    1.034207e+00
  2.294436e+01    1.015932e+00
  2.296024e+01    1.017702e+00
  2.297611e+01    1.017596e+00
  2.299199e+01    1.011467e+00
  2.300786e+01    1.038660e+00
  2.302374e+01    1.030029e+00
  2.303961e+01    1.037486e+00
  2.305549e+01    1.011704e+00
  2.307137e+01    1.008410e+00
  2.308724e+01    9.847857e-01
  2.310312e+01    1.007969e+00
  2.311899e+01    1.014929e+00
  2.313487e+01    1.002014e+00
  2.315074e+01    9.827195e-01
  2.316662e+01    9.817188e-01
  2.318249e+01    9.876949e-01
  2.319837e+01    9.689241e-01
  2.321425e+01    1.002380e+00
  2.323012e+01    1.012988e+00
  2.324600e+01    9.791341e-01
  2.326187e+01    9.788931e-01
  2.327775e+01    9.877203e-01
  2.329362e+01    9.813998e-01
  2.330950e+01    9.861670e-01
  2.332537e+01    9.823022e-01
  2.334125e+01    9.701909e-01
  2.335713e+01    9.798149e-01
  2.337300e+01    9.606206e-01
  2.338888e+01    9.498866e-01
  2.340475e+01    9.686570e-01
  2.342063e+01    9.616690e-01
  2.343650e+01    9.518241e-01
  2.345238e+01    9.615380e-01
  2.346825e+01    9.688387e-01
  2.348413e+01    9.514441e-01
  2.350001e+01    9.716721e-01
  2.351588e+01    9.524510e-01
  2.353176e+01    9.714004e-01
  2.354763e+01    9.689148e-01
  2.356351e+01    9.515205e-01
  2.357938e+01    9.599241e-01
  2.359526e+01    9.639514e-01
  2.361113e+01    9.616060e-01
  2.362701e+01    9.701714e-01
  2.364289e+01    9.405021e-01
  2.365876e+01    9.502048e-01
  2.367464e+01    9.320183e-01
  2.369051e+01    9.437252e-01
  2.370639e+01    9.399300e-01
  2.372226e+01    9.419547e-01
  2.373814e+01    9.416372e-01
  2.375401e+01    9.363298e-01
  2.376989e+01    9.337787e-01
  2.378577e+01    9.090278e-01
  2.380164e+01    9.123922e-01
  2.381752e+01    9.204382e-01
  2.383339e+01    9.035857e-01
  2.384927e+01    9.072835e-01
  2.386514e+01    9.211766e-01
  2.388102e+01    9.006811e-01
  2.389689e+01    9.080125e-01
  2.391277e+01    9.017728e-01
  2.392865e+01    8.985212e-01
  2.394452e+01    9.023921e-01
  2.396040e+01    8.938767e-01
  2.397627e+01    8.999385e-01
  2.399215e+01    9.004636e-01
  2.400802e+01    8.957232e-01
  2.402390e+01    9.130648e-01
  2.403978e+01    9.080840e-01
  2.405565e+01    9.148209e-01
  2.407153e+01    8.970599e-01
  2.408740e+01    8.857843e-01
  2.410328e+01    8.895693e-01
  2.411915e+01    8.817054e-01
  2.413503e+01    8.792357e-01
  2.415090e+01    8.701263e-01
  2.416678e+01    8.886358e-01
  2.418266e+01    8.649914e-01
  2.419853e+01    8.653490e-01
  2.421441e+01    8.857097e-01
  2.423028e+01    8.796139e-01
  2.424616e+01    8.783862e-01
  2.426203e+01    8.764532e-01
  2.427791e+01    8.871108e-01
  2.429378e+01    8.921935e-01
  2.430966e+01    8.909730e-01
  2.432554e+01    8.939784e-01
  2.434141e+01    8.867369e-01
  2.435729e+01    9.074340e-01
  2.437316e+01    8.962332e-01
  2.438904e+01    8.817105e-01
  2.440491e+01    8.792393e-01
  2.442079e+01    8.878938e-01
  2.443666e+01    8.973960e-01
  2.445254e+01    8.839349e-01
  2.446842e+01    8.809296e-01
  2.448429e+01    9.069878e-01
  2.450017e+01    8.759939e-01
  2.451604e+01    8.669147e-01
  2.453192e+01    8.950413e-01
  2.454779e+01    8.757391e-01
  2.456367e+01    8.833901e-01
  2.457954e+01    8.902870e-01
  2.459542e+01    8.996435e-01
  2.461130e+01    8.721874e-01
  2.462717e+01    8.777139e-01
  2.464305e+01    8.606598e-01
  2.465892e+01    8.512571e-01
  2.467480e+01    8.556471e-01
  2.469067e+01    8.579389e-01
  2.470655e+01    8.773272e-01
  2.472242e+01    8.860018e-01
  2.473830e+01    8.789318e-01
  2.475418e+01    8.783352e-01
  2.477005e+01    8.913888e-01
  2.478593e+01    8.859098e-01
  2.480180e+01    8.957302e-01
  2.481768e+01    8.801922e-01
  2.483355e+01    8.933411e-01
  2.484943e+01    9.057466e-01
  2.486530e+01    8.935032e-01
  2.488118e+01    9.142980e-01
  2.489706e+01    9.080966e-01
  2.491293e+01    8.944055e-01
  2.492881e+01    8.953597e-01
  2.494468e+01    9.001307e-01
  2.496056e+01    8.877293e-01
  2.497643e+01    8.721378e-01
  2.499231e+01    8.881195e-01
  2.500819e+01    8.727412e-01
  2.502406e+01    8.784370e-01
  2.503994e+01    9.059722e-01
  2.505581e+01    8.915134e-01
  2.507169e+01    9.037803e-01
  2.508756e+01    9.076099e-01
  2.510344e+01    8.931526e-01
  2.511931e+01    8.987955e-01
  2.513519e+01    8.817919e-01
  2.515107e+01    8.928918e-01
  2.516694e+01    9.252556e-01
  2.518282e+01    9.227521e-01
  2.519869e+01    9.223971e-01
  2.521457e+01    9.370936e-01
  2.523044e+01    9.386217e-01
  2.524632e+01    9.250571e-01
  2.526219e+01    9.507163e-01
  2.527807e+01    9.450250e-01
  2.529395e+01    9.341131e-01
  2.530982e+01    9.564365e-01
  2.532570e+01    9.748666e-01
  2.534157e+01    9.663556e-01
  2.535745e+01    9.527265e-01
  2.537332e+01    9.621217e-01
  2.538920e+01    9.869452e-01
  2.540507e+01    9.991561e-01
  2.542095e+01    1.008429e+00
  2.543683e+01    9.954552e-01
  2.545270e+01    1.015687e+00
  2.546858e+01    1.031301e+00
  2.548445e+01    1.061850e+00
  2.550033e+01    1.052842e+00
  2.551620e+01    1.045089e+00
  2.553208e+01    1.062071e+00
  2.554795e+01    1.083537e+00
  2.556383e+01    1.144047e+00
  2.557971e+01    1.163200e+00
  2.559558e+01    1.209325e+00
  2.561146e+01    1.234717e+00
  2.562733e+01    1.250948e+00
  2.564321e+01    1.295342e+00
  2.565908e+01    1.369919e+00
  2.567496e+01    1.442731e+00
  2.569083e+01    1.497673e+00
  2.570671e+01    1.595126e+00
  2.572259e+01    1.735560e+00
  2.573846e+01    1.893255e+00
  2.575434e+01    2.032775e+00
  2.577021e+01    2.245583e+00
  2.578609e+01    2.516287e+00
  2.580196e+01    2.861760e+00
  2.581784e+01    3.280708e+00
  2.583371e+01    3.723913e+00
  2.584959e+01    4.227151e+00
  2.586547e+01    4.784350e+00
  2.588134e+01    5.305336e+00
  2.589722e+01    5.904361e+00
  2.591309e+01    6.335459e+00
  2.592897e+01    6.762752e+00
  2.594484e+01    7.014136e+00
  2.596072e+01    7.084744e+00
  2.597660e+01    6.885898e+00
  2.599247e+01    6.444182e+00
  2.600835e+01    5.851299e+00
  2.602422e+01    5.179028e+00
  2.604010e+01    4.468663e+00
  2.605597e+01    3.860473e+00
  2.607185e+01    3.348379e+00
  2.608772e+01    2.895948e+00
  2.610360e+01    2.546553e+00
  2.611948e+01    2.290534e+00
  2.613535e+01    2.064059e+00
  2.615123e+01    1.898941e+00
  2.616710e+01    1.768144e+00
  2.618298e+01    1.623915e+00
  2.619885e+01    1.539261e+00
  2.621473e+01    1.479350e+00
  2.623060e+01    1.406007e+00
  2.624648e+01    1.361321e+00
  2.626236e+01    1.277261e+00
  2.627823e+01    1.230068e+00
  2.629411e+01    1.196594e+00
  2.630998e+01    1.183974e+00
  2.632586e+01    1.133259e+00
  2.634173e+01    1.126930e+00
  2.635761e+01    1.094319e+00
  2.637348e+01    1.062828e+00
  2.638936e+01    1.053857e+00
  2.640524e+01    1.058723e+00
  2.642111e+01    1.030329e+00
  2.643699e+01    1.003661e+00
  2.645286e+01    1.013458e+00
  2.646874e+01    1.014924e+00
  2.648461e+01    1.006297e+00
  2.650049e+01    9.885525e-01
  2.651636e+01    1.007559e+00
  2.653224e+01    9.715895e-01
  2.654812e+01    9.639717e-01
  2.656399e+01    9.533100e-01
  2.657987e+01    9.468032e-01
  2.659574e+01    9.572452e-01
  2.661162e+01    9.495969e-01
  2.662749e+01    9.469448e-01
  2.664337e+01    9.555170e-01
  2.665924e+01    9.816166e-01
  2.667512e+01    9.652592e-01
  2.669100e+01    9.679149e-01
  2.670687e+01    9.631383e-01
  2.672275e+01    9.621536e-01
  2.673862e+01    9.675661e-01
  2.675450e+01    9.647005e-01
  2.677037e+01    9.484826e-01
  2.678625e+01    9.898844e-01
  2.680212e+01    9.750273e-01
  2.681800e+01    9.367429e-01
  2.683388e+01    9.762158e-01
  2.684975e+01    9.973691e-01
  2.686563e+01    9.959109e-01
  2.688150e+01    9.805829e-01
  2.689738e+01    1.000096e+00
  2.691325e+01    1.005491e+00
  2.692913e+01    1.014785e+00
  2.694501e+01    1.011715e+00
  2.696088e+01    1.052025e+00
  2.697676e+01    1.071596e+00
  2.699263e+01    1.074882e+00
  2.700851e+01    1.105255e+00
  2.702438e+01    1.141865e+00
  2.704026e+01    1.182567e+00
  2.705613e+01    1.251075e+00
  2.707201e+01    1.297531e+00
  2.708789e+01    1.381534e+00
  2.710376e+01    1.494824e+00
  2.711964e+01    1.613064e+00
  2.713551e+01    1.758920e+00
  2.715139e+01    1.844932e+00
  2.716726e+01    1.989493e+00
  2.718314e+01    2.090824e+00
  2.719901e+01    2.166526e+00
  2.721489e+01    2.179342e+00
  2.723077e+01    2.128446e+00
  2.724664e+01    2.028202e+00
  2.726252e+01    1.934835e+00
  2.727839e+01    1.793406e+00
  2.729427e+01    1.667737e+00
  2.731014e+01    1.579495e+00
  2.732602e+01    1.466509e+00
  2.734189e+01    1.356296e+00
  2.735777e+01    1.255595e+00
  2.737365e+01    1.200352e+00
  2.738952e+01    1.162905e+00
  2.740540e+01    1.092563e+00
  2.742127e+01    1.075408e+00
  2.743715e+01    1.060003e+00
  2.745302e+01    1.053180e+00
  2.746890e+01    1.043436e+00
  2.748477e+01    1.005224e+00
  2.750065e+01    9.939808e-01
  2.751653e+01    9.649913e-01
  2.753240e+01    9.567595e-01
  2.754828e+01    9.472882e-01
  2.756415e+01    9.506769e-01
  2.758003e+01    9.188607e-01
  2.759590e+01    9.110550e-01
  2.761178e+01    9.078375e-01
  2.762765e+01    8.963868e-01
  2.764353e+01    8.985996e-01
  2.765941e+01    9.176466e-01
  2.767528e+01    9.044735e-01
  2.769116e+01    9.230842e-01
  2.770703e+01    9.112927e-01
  2.772291e+01    8.773381e-01
  2.773878e+01    8.823348e-01
  2.775466e+01    8.917370e-01
  2.777054e+01    8.870129e-01
  2.778641e+01    9.052783e-01
  2.780229e+01    8.859798e-01
  2.781816e+01    8.633401e-01
  2.783404e+01    8.697795e-01
  2.784991e+01    8.787397e-01
  2.786579e+01    8.787588e-01
  2.788166e+01    8.851253e-01
  2.789754e+01    8.934869e-01
  2.791342e+01    8.494229e-01
  2.792929e+01    8.640635e-01
  2.794517e+01    8.717019e-01
  2.796104e+01    8.505103e-01
  2.797692e+01    8.643965e-01
  2.799279e+01    8.620530e-01
  2.800867e+01    8.504031e-01
  2.802454e+01    8.564786e-01
  2.804042e+01    8.559602e-01
  2.805630e+01    8.818306e-01
  2.807217e+01    8.775795e-01
  2.808805e+01    8.550789e-01
  2.810392e+01    8.600977e-01
  2.811980e+01    8.614358e-01
  2.813567e+01    8.489174e-01
  2.815155e+01    8.420846e-01
  2.816742e+01    8.383799e-01
  2.818330e+01    8.436349e-01
  2.819918e+01    8.276659e-01
  2.821505e+01    8.383111e-01
  2.823093e+01    8.459890e-01
  2.824680e+01    8.535442e-01
  2.826268e+01    8.517419e-01
  2.827855e+01    8.301588e-01
  2.829443e+01    8.343460e-01
  2.831030e+01    8.408858e-01
  2.832618e+01    8.477266e-01
  2.834206e+01    8.416525e-01
  2.835793e+01    8.491191e-01
  2.837381e+01    8.403146e-01
  2.838968e+01    8.415754e-01
  2.840556e+01    8.430516e-01
  2.842143e+01    8.321069e-01
  2.843731e+01    8.565538e-01
  2.845318e+01    8.497860e-01
  2.846906e+01    8.417289e-01
  2.848494e+01    8.213771e-01
  2.850081e+01    8.409351e-01
  2.851669e+01    8.372831e-01
  2.853256e+01    8.366544e-01
  2.854844e+01    8.174832e-01
  2.856431e+01    8.407215e-01
  2.858019e+01    8.417777e-01
  2.859606e+01    8.365496e-01
  2.861194e+01    8.267230e-01
  2.862782e+01    8.358282e-01
  2.864369e+01    8.367783e-01
  2.865957e+01    8.265483e-01
  2.867544e+01    8.054830e-01
  2.869132e+01    8.245178e-01
  2.870719e+01    8.162444e-01
  2.872307e+01    8.092144e-01
  2.873895e+01    8.189325e-01
  2.875482e+01    8.250049e-01
  2.877070e+01    8.393118e-01
  2.878657e+01    8.249591e-01
  2.880245e+01    8.077314e-01
  2.881832e+01    8.188150e-01
  2.883420e+01    8.379899e-01
  2.885007e+01    8.185601e-01
  2.886595e+01    8.285127e-01
  2.888183e+01    8.124030e-01
  2.889770e+01    8.175907e-01
  2.891358e+01    8.212941e-01
  2.892945e+01    8.149703e-01
  2.894533e+01    8.141391e-01
  2.896120e+01    8.189994e-01
  2.897708e+01    8.170128e-01
  2.899295e+01    8.007267e-01
  2.900883e+01    7.858899e-01
  2.902471e+01    8.186437e-01
  2.904058e+01    8.123811e-01
  2.905646e+01    8.069128e-01
  2.907233e+01    8.154275e-01
  2.908821e+01    8.182434e-01
  2.910408e+01    8.092175e-01
  2.911996e+01    8.035459e-01
  2.913583e+01    7.969404e-01
  2.915171e+01    7.928517e-01
  2.916759e+01    8.116274e-01
  2.918346e+01    8.109484e-01
  2.919934e+01    8.002468e-01
  2.921521e+01    8.039054e-01
  2.923109e+01    7.979194e-01
  2.924696e+01    8.176078e-01
  2.926284e+01    8.176457e-01
  2.927871e+01    8.017866e-01
  2.929459e+01    7.881513e-01
  2.931047e+01    7.941561e-01
  2.932634e+01    7.890387e-01
  2.934222e+01    7.865752e-01
  2.935809e+01    8.003824e-01
  2.937397e+01    8.172688e-01
  2.938984e+01    8.043804e-01
  2.940572e+01    8.002872e-01
  2.942159e+01    8.060396e-01
  2.943747e+01    7.972211e-01
  2.945335e+01    7.989722e-01
  2.946922e+01    7.831449e-01
  2.948510e+01    7.928203e-01
  2.950097e+01    7.783234e-01
  2.951685e+01    7.805997e-01
  2.953272e+01    7.959253e-01
  2.954860e+01    8.020439e-01
  2.956447e+01    7.891963e-01
  2.958035e+01    7.881413e-01
  2.959623e+01    7.924114e-01
  2.961210e+01    8.090342e-01
  2.962798e+01    8.146224e-01
  2.964385e+01    7.915092e-01
  2.965973e+01    7.940778e-01
  2.967560e+01    8.165162e-01
  2.969148e+01    7.938660e-01
  2.970736e+01    8.017413e-01
  2.972323e+01    7.890562e-01
  2.973911e+01    7.849727e-01
  2.975498e+01    7.706960e-01
  2.977086e+01    7.807389e-01
  2.978673e+01    7.751835e-01
  2.980261e+01    7.794008e-01
  2.981848e+01    7.957592e-01
  2.983436e+01    7.888758e-01
  2.985024e+01    7.929502e-01
  2.986611e+01    7.857428e-01
  2.988199e+01    7.872543e-01
  2.989786e+01    7.666720e-01
  2.991374e+01    7.758912e-01
  2.992961e+01    7.860172e-01
  2.994549e+01    7.832658e-01
  2.996136e+01    7.910970e-01
  2.997724e+01    8.132332e-01
  2.999312e+01    8.154852e-01
  3.000899e+01    8.116838e-01
  3.002487e+01    8.208811e-01
  3.004074e+01    8.186911e-01
  3.005662e+01    7.930154e-01
  3.007249e+01    7.974328e-01
  3.008837e+01    8.122579e-01
  3.010424e+01    7.838159e-01
  3.012012e+01    7.878956e-01
  3.013600e+01    7.907556e-01
  3.015187e+01    7.861621e-01
  3.016775e+01    7.784801e-01
  3.018362e+01    8.118762e-01
  3.019950e+01    7.974261e-01
  3.021537e+01    8.003110e-01
  3.023125e+01    7.845137e-01
  3.024712e+01    7.729180e-01
  3.026300e+01    7.740740e-01
  3.027888e+01    7.886592e-01
  3.029475e+01    7.983822e-01
  3.031063e+01    7.932230e-01
  3.032650e+01    7.912486e-01
  3.034238e+01    7.880331e-01
  3.035825e+01    7.802870e-01
  3.037413e+01    7.681825e-01
  3.039000e+01    7.841991e-01
  3.040588e+01    8.110653e-01
  3.042176e+01    7.733580e-01
  3.043763e+01    7.587775e-01
  3.045351e+01    7.689601e-01
  3.046938e+01    7.872165e-01
  3.048526e+01    7.716625e-01
  3.050113e+01    7.617783e-01
  3.051701e+01    7.752951e-01
  3.053288e+01    7.684648e-01
  3.054876e+01    7.743803e-01
  3.056464e+01    7.881008e-01
  3.058051e+01    7.867392e-01
  3.059639e+01    7.839922e-01
  3.061226e+01    7.715751e-01
  3.062814e+01    7.736819e-01
  3.064401e+01    7.690821e-01
  3.065989e+01    7.865484e-01
  3.067577e+01    7.839734e-01
  3.069164e+01    7.773067e-01
  3.070752e+01    7.521304e-01
  3.072339e+01    7.811363e-01
  3.073927e+01    7.856561e-01
  3.075514e+01    7.915042e-01
  3.077102e+01    7.873357e-01
  3.078689e+01    7.810898e-01
  3.080277e+01    7.931018e-01
  3.081865e+01    7.851796e-01
  3.083452e+01    7.674664e-01
  3.085040e+01    7.709853e-01
  3.086627e+01    7.872771e-01
  3.088215e+01    7.844741e-01
  3.089802e+01    7.889251e-01
  3.091390e+01    7.868289e-01
  3.092977e+01    7.959396e-01
  3.094565e+01    7.802683e-01
  3.096153e+01    7.790617e-01
  3.097740e+01    7.655473e-01
  3.099328e+01    7.842717e-01
  3.100915e+01    7.754823e-01
  3.102503e+01    7.779365e-01
  3.104090e+01    7.852815e-01
  3.105678e+01    7.901258e-01
  3.107265e+01    7.612879e-01
  3.108853e+01    7.747210e-01
  3.110441e+01    7.801063e-01
  3.112028e+01    7.972821e-01
  3.113616e+01    7.947248e-01
  3.115203e+01    7.947324e-01
  3.116791e+01    7.899794e-01
  3.118378e+01    7.916970e-01
  3.119966e+01    7.858121e-01
  3.121553e+01    7.625945e-01
  3.123141e+01    7.726049e-01
  3.124729e+01    7.903731e-01
  3.126316e+01    7.780889e-01
  3.127904e+01    7.685805e-01
  3.129491e+01    7.925687e-01
  3.131079e+01    7.733085e-01
  3.132666e+01    7.841782e-01
  3.134254e+01    7.847095e-01
  3.135841e+01    7.930823e-01
  3.137429e+01    7.960415e-01
  3.139017e+01    7.808048e-01
  3.140604e+01    7.940744e-01
  3.142192e+01    7.863554e-01
  3.143779e+01    8.158922e-01
  3.145367e+01    8.082973e-01
  3.146954e+01    8.011136e-01
  3.148542e+01    7.951874e-01
  3.150129e+01    8.164918e-01
  3.151717e+01    8.417004e-01
  3.153305e+01    8.184547e-01
  3.154892e+01    8.024610e-01
  3.156480e+01    8.301038e-01
  3.158067e+01    8.495591e-01
  3.159655e+01    8.813565e-01
  3.161242e+01    8.870140e-01
  3.162830e+01    9.123044e-01
  3.164418e+01    9.188064e-01
  3.166005e+01    9.444342e-01
  3.167593e+01    9.473798e-01
  3.169180e+01    9.814376e-01
  3.170768e+01    1.026068e+00
  3.172355e+01    1.069942e+00
  3.173943e+01    1.108993e+00
  3.175530e+01    1.198645e+00
  3.177118e+01    1.280300e+00
  3.178706e+01    1.357697e+00
  3.180293e+01    1.473183e+00
  3.181881e+01    1.579183e+00
  3.183468e+01    1.690261e+00
  3.185056e+01    1.837127e+00
  3.186643e+01    1.934710e+00
  3.188231e+01    2.038528e+00
  3.189818e+01    2.075641e+00
  3.191406e+01    2.087898e+00
  3.192994e+01    2.044676e+00
  3.194581e+01    1.918123e+00
  3.196169e+01    1.811329e+00
  3.197756e+01    1.687892e+00
  3.199344e+01    1.524328e+00
  3.200931e+01    1.408697e+00
  3.202519e+01    1.294248e+00
  3.204106e+01    1.204245e+00
  3.205694e+01    1.123148e+00
  3.207282e+01    1.078707e+00
  3.208869e+01    1.021401e+00
  3.210457e+01    9.694151e-01
  3.212044e+01    9.610236e-01
  3.213632e+01    9.034589e-01
  3.215219e+01    8.965806e-01
  3.216807e+01    8.690532e-01
  3.218394e+01    8.760741e-01
  3.219982e+01    8.745039e-01
  3.221570e+01    8.365851e-01
  3.223157e+01    8.293723e-01
  3.224745e+01    8.136762e-01
  3.226332e+01    8.206785e-01
  3.227920e+01    8.238707e-01
  3.229507e+01    7.984079e-01
  3.231095e+01    7.912157e-01
  3.232682e+01    8.190719e-01
  3.234270e+01    8.157701e-01
  3.235858e+01    7.782051e-01
  3.237445e+01    7.655785e-01
  3.239033e+01    7.783206e-01
  3.240620e+01    7.865568e-01
  3.242208e+01    7.714568e-01
  3.243795e+01    7.841278e-01
  3.245383e+01    7.785281e-01
  3.246970e+01    7.835451e-01
  3.248558e+01    7.863887e-01
  3.250146e+01    7.895365e-01
  3.251733e+01    7.888322e-01
  3.253321e+01    7.715878e-01
  3.254908e+01    7.777859e-01
