# == pyFAI calibration ==
# Distance Sample to Detector: 0.3999999939076516 m
# PONI: 9.750e-02, 1.135e-01 m
# Rotations: -0.000175 0.000000 -0.000000 rad
# 
# == Fit2d calibration ==
# Distance Sample-beamCenter: 400.000 mm
# Center: x=1514.000, y=1300.000 pix
# Tilt: 0.010 deg  TiltPlanRot: 0.010 deg
# 
# Detector Detector	 Spline= None	 PixelSize= 7.500e-05, 7.500e-05 m
#    Detector has a mask: False 
#    Detector has a dark current: False 
#    detector has a flat field: False 
# 
# Wavelength: 6.888e-11 m
# Mask applied: user provided
# Dark current applied: False
# Flat field applied: False
# Polarization factor: 0.99
# Normalization factor: 1.0
# --> /home/myspot/data/2024_07_Rosario/Ru-CGO-ex/2024-07-27_003_Ru-CGO-ex_Reaction_dwell_000023_data_000177.dat
#       q_nm^-1             I 
  2.003187e-02    2.195869e-01
  3.590745e-02    2.044017e-01
  5.178302e-02    4.023641e-01
  6.765859e-02    3.037600e-01
  8.353417e-02    2.407108e-01
  9.940974e-02    1.246189e-01
  1.152853e-01    1.435422e-01
  1.311609e-01    1.328120e-01
  1.470365e-01    1.076118e-01
  1.629120e-01    4.873009e-02
  1.787876e-01    8.042005e-03
  1.946632e-01    4.330184e-02
  2.105388e-01    1.479848e-02
  2.264143e-01    4.632921e-02
  2.422899e-01    3.070093e-02
  2.581655e-01    2.017681e-02
  2.740411e-01    4.070383e-02
  2.899166e-01    6.679544e-02
  3.057922e-01    8.240677e-02
  3.216678e-01    2.140631e-02
  3.375433e-01    2.745174e-02
  3.534189e-01    3.650626e-02
  3.692945e-01    2.223415e-02
  3.851701e-01    5.759254e-02
  4.010456e-01    4.745237e-02
  4.169212e-01    3.385004e-02
  4.327968e-01    3.825733e-02
  4.486724e-01    9.952943e-03
  4.645479e-01    4.892904e-02
  4.804235e-01    6.275788e-02
  4.962991e-01    4.144684e-02
  5.121747e-01    1.927042e-02
  5.280502e-01    4.684024e-02
  5.439258e-01    5.583712e-02
  5.598014e-01    4.378704e-02
  5.756770e-01    3.845246e-02
  5.915525e-01    6.206034e-02
  6.074281e-01    2.445393e-02
  6.233037e-01    4.663369e-02
  6.391793e-01    5.602176e-02
  6.550548e-01    6.813596e-02
  6.709304e-01    3.847668e-02
  6.868060e-01    4.254559e-02
  7.026815e-01    5.608162e-02
  7.185571e-01    6.522106e-02
  7.344327e-01    3.856075e-02
  7.503083e-01    1.636923e-02
  7.661838e-01    4.835719e-02
  7.820594e-01    1.028611e-01
  7.979350e-01    2.101462e-01
  8.138106e-01    2.562567e-01
  8.296861e-01    2.754149e-01
  8.455617e-01    2.946302e-01
  8.614373e-01    4.073880e-01
  8.773129e-01    5.222806e-01
  8.931884e-01    5.688606e-01
  9.090640e-01    6.449593e-01
  9.249396e-01    7.782475e-01
  9.408152e-01    7.854010e-01
  9.566907e-01    8.054677e-01
  9.725663e-01    1.033350e+00
  9.884419e-01    1.178076e+00
  1.004317e+00    1.265702e+00
  1.020193e+00    1.376342e+00
  1.036069e+00    1.415514e+00
  1.051944e+00    1.498227e+00
  1.067820e+00    1.481496e+00
  1.083695e+00    1.626137e+00
  1.099571e+00    1.573597e+00
  1.115446e+00    1.688415e+00
  1.131322e+00    1.751971e+00
  1.147198e+00    1.678216e+00
  1.163073e+00    1.652333e+00
  1.178949e+00    1.800468e+00
  1.194824e+00    1.855535e+00
  1.210700e+00    2.014600e+00
  1.226575e+00    2.147024e+00
  1.242451e+00    2.352126e+00
  1.258327e+00    2.416568e+00
  1.274202e+00    2.530952e+00
  1.290078e+00    2.574434e+00
  1.305953e+00    2.638327e+00
  1.321829e+00    2.672301e+00
  1.337705e+00    2.572369e+00
  1.353580e+00    2.568040e+00
  1.369456e+00    2.684243e+00
  1.385331e+00    2.777357e+00
  1.401207e+00    2.842924e+00
  1.417082e+00    2.870653e+00
  1.432958e+00    2.808199e+00
  1.448834e+00    2.837497e+00
  1.464709e+00    2.959697e+00
  1.480585e+00    2.989769e+00
  1.496460e+00    2.988337e+00
  1.512336e+00    3.015064e+00
  1.528211e+00    2.929757e+00
  1.544087e+00    3.019774e+00
  1.559963e+00    3.138258e+00
  1.575838e+00    3.262220e+00
  1.591714e+00    3.241470e+00
  1.607589e+00    3.144412e+00
  1.623465e+00    3.233519e+00
  1.639340e+00    3.193518e+00
  1.655216e+00    3.167629e+00
  1.671092e+00    3.084688e+00
  1.686967e+00    3.089596e+00
  1.702843e+00    3.072581e+00
  1.718718e+00    3.073797e+00
  1.734594e+00    3.018991e+00
  1.750469e+00    3.124356e+00
  1.766345e+00    3.125066e+00
  1.782221e+00    2.981281e+00
  1.798096e+00    2.949167e+00
  1.813972e+00    3.043244e+00
  1.829847e+00    3.064837e+00
  1.845723e+00    2.988531e+00
  1.861598e+00    3.043215e+00
  1.877474e+00    3.026639e+00
  1.893350e+00    2.978322e+00
  1.909225e+00    3.025947e+00
  1.925101e+00    3.006542e+00
  1.940976e+00    2.914630e+00
  1.956852e+00    2.936219e+00
  1.972727e+00    2.926169e+00
  1.988603e+00    3.027398e+00
  2.004479e+00    3.021512e+00
  2.020354e+00    3.118445e+00
  2.036230e+00    3.002820e+00
  2.052105e+00    2.962076e+00
  2.067981e+00    2.989167e+00
  2.083856e+00    2.961025e+00
  2.099732e+00    3.016958e+00
  2.115608e+00    2.970710e+00
  2.131483e+00    3.024051e+00
  2.147359e+00    3.098917e+00
  2.163234e+00    3.049330e+00
  2.179110e+00    3.005875e+00
  2.194985e+00    3.074412e+00
  2.210861e+00    3.116510e+00
  2.226737e+00    3.027718e+00
  2.242612e+00    3.093551e+00
  2.258488e+00    3.162329e+00
  2.274363e+00    3.063611e+00
  2.290239e+00    2.985502e+00
  2.306115e+00    3.011248e+00
  2.321990e+00    3.014646e+00
  2.337866e+00    3.039766e+00
  2.353741e+00    3.103120e+00
  2.369617e+00    3.143776e+00
  2.385492e+00    3.156614e+00
  2.401368e+00    3.201370e+00
  2.417244e+00    3.150848e+00
  2.433119e+00    3.146273e+00
  2.448995e+00    3.099922e+00
  2.464870e+00    3.117670e+00
  2.480746e+00    3.126761e+00
  2.496621e+00    3.103826e+00
  2.512497e+00    3.069257e+00
  2.528373e+00    3.086095e+00
  2.544248e+00    3.246240e+00
  2.560124e+00    3.246208e+00
  2.575999e+00    3.207912e+00
  2.591875e+00    3.249870e+00
  2.607750e+00    3.254307e+00
  2.623626e+00    3.233439e+00
  2.639502e+00    3.210409e+00
  2.655377e+00    3.196430e+00
  2.671253e+00    3.175961e+00
  2.687128e+00    3.190376e+00
  2.703004e+00    3.202920e+00
  2.718879e+00    3.281642e+00
  2.734755e+00    3.275410e+00
  2.750631e+00    3.282062e+00
  2.766506e+00    3.340219e+00
  2.782382e+00    3.278018e+00
  2.798257e+00    3.179080e+00
  2.814133e+00    3.260928e+00
  2.830008e+00    3.269702e+00
  2.845884e+00    3.268488e+00
  2.861760e+00    3.325436e+00
  2.877635e+00    3.381873e+00
  2.893511e+00    3.232064e+00
  2.909386e+00    3.278559e+00
  2.925262e+00    3.317765e+00
  2.941137e+00    3.308460e+00
  2.957013e+00    3.254193e+00
  2.972889e+00    3.382698e+00
  2.988764e+00    3.386321e+00
  3.004640e+00    3.395813e+00
  3.020515e+00    3.343097e+00
  3.036391e+00    3.317893e+00
  3.052266e+00    3.297068e+00
  3.068142e+00    3.308721e+00
  3.084018e+00    3.187744e+00
  3.099893e+00    3.184678e+00
  3.115769e+00    3.215989e+00
  3.131644e+00    3.192143e+00
  3.147520e+00    3.199329e+00
  3.163395e+00    3.323831e+00
  3.179271e+00    3.296056e+00
  3.195147e+00    3.332024e+00
  3.211022e+00    3.461347e+00
  3.226898e+00    3.465926e+00
  3.242773e+00    3.335212e+00
  3.258649e+00    3.217979e+00
  3.274525e+00    3.308227e+00
  3.290400e+00    3.252191e+00
  3.306276e+00    3.420692e+00
  3.322151e+00    3.510689e+00
  3.338027e+00    3.385782e+00
  3.353902e+00    3.359896e+00
  3.369778e+00    3.419924e+00
  3.385654e+00    3.384907e+00
  3.401529e+00    3.352263e+00
  3.417405e+00    3.313235e+00
  3.433280e+00    3.314767e+00
  3.449156e+00    3.389224e+00
  3.465031e+00    3.399670e+00
  3.480907e+00    3.303716e+00
  3.496783e+00    3.288506e+00
  3.512658e+00    3.320209e+00
  3.528534e+00    3.423931e+00
  3.544409e+00    3.502271e+00
  3.560285e+00    3.442906e+00
  3.576160e+00    3.408838e+00
  3.592036e+00    3.407702e+00
  3.607912e+00    3.448094e+00
  3.623787e+00    3.408244e+00
  3.639663e+00    3.360867e+00
  3.655538e+00    3.317486e+00
  3.671414e+00    3.454907e+00
  3.687289e+00    3.490897e+00
  3.703165e+00    3.491631e+00
  3.719041e+00    3.516250e+00
  3.734916e+00    3.556345e+00
  3.750792e+00    3.564887e+00
  3.766667e+00    3.482529e+00
  3.782543e+00    3.521752e+00
  3.798418e+00    3.376807e+00
  3.814294e+00    3.439566e+00
  3.830170e+00    3.468074e+00
  3.846045e+00    3.549094e+00
  3.861921e+00    3.506332e+00
  3.877796e+00    3.443572e+00
  3.893672e+00    3.413820e+00
  3.909547e+00    3.402189e+00
  3.925423e+00    3.348428e+00
  3.941299e+00    3.408472e+00
  3.957174e+00    3.387248e+00
  3.973050e+00    3.549264e+00
  3.988925e+00    3.502950e+00
  4.004801e+00    3.501371e+00
  4.020676e+00    3.522008e+00
  4.036552e+00    3.459413e+00
  4.052428e+00    3.528311e+00
  4.068303e+00    3.648539e+00
  4.084179e+00    3.580181e+00
  4.100054e+00    3.620662e+00
  4.115930e+00    3.637667e+00
  4.131806e+00    3.609344e+00
  4.147681e+00    3.446798e+00
  4.163557e+00    3.407613e+00
  4.179432e+00    3.437420e+00
  4.195308e+00    3.519485e+00
  4.211183e+00    3.519941e+00
  4.227059e+00    3.504520e+00
  4.242935e+00    3.566083e+00
  4.258810e+00    3.516237e+00
  4.274686e+00    3.434242e+00
  4.290561e+00    3.504399e+00
  4.306437e+00    3.473526e+00
  4.322312e+00    3.499739e+00
  4.338188e+00    3.580755e+00
  4.354064e+00    3.521618e+00
  4.369939e+00    3.501555e+00
  4.385815e+00    3.537454e+00
  4.401690e+00    3.594320e+00
  4.417566e+00    3.489117e+00
  4.433441e+00    3.479882e+00
  4.449317e+00    3.512035e+00
  4.465193e+00    3.553436e+00
  4.481068e+00    3.470439e+00
  4.496944e+00    3.554319e+00
  4.512819e+00    3.513929e+00
  4.528695e+00    3.618472e+00
  4.544570e+00    3.543265e+00
  4.560446e+00    3.448392e+00
  4.576322e+00    3.489899e+00
  4.592197e+00    3.522221e+00
  4.608073e+00    3.519842e+00
  4.623948e+00    3.522258e+00
  4.639824e+00    3.586031e+00
  4.655699e+00    3.650717e+00
  4.671575e+00    3.652173e+00
  4.687451e+00    3.569870e+00
  4.703326e+00    3.535509e+00
  4.719202e+00    3.595351e+00
  4.735077e+00    3.560372e+00
  4.750953e+00    3.577093e+00
  4.766828e+00    3.587880e+00
  4.782704e+00    3.592373e+00
  4.798580e+00    3.561975e+00
  4.814455e+00    3.545017e+00
  4.830331e+00    3.523708e+00
  4.846206e+00    3.603459e+00
  4.862082e+00    3.567340e+00
  4.877957e+00    3.599719e+00
  4.893833e+00    3.628461e+00
  4.909709e+00    3.602112e+00
  4.925584e+00    3.595761e+00
  4.941460e+00    3.622784e+00
  4.957335e+00    3.618277e+00
  4.973211e+00    3.587666e+00
  4.989086e+00    3.594080e+00
  5.004962e+00    3.577938e+00
  5.020838e+00    3.583599e+00
  5.036713e+00    3.588334e+00
  5.052589e+00    3.546943e+00
  5.068464e+00    3.564733e+00
  5.084340e+00    3.583282e+00
  5.100216e+00    3.608377e+00
  5.116091e+00    3.626573e+00
  5.131967e+00    3.493517e+00
  5.147842e+00    3.543723e+00
  5.163718e+00    3.549887e+00
  5.179593e+00    3.607159e+00
  5.195469e+00    3.645636e+00
  5.211345e+00    3.593207e+00
  5.227220e+00    3.543899e+00
  5.243096e+00    3.641661e+00
  5.258971e+00    3.662113e+00
  5.274847e+00    3.656566e+00
  5.290722e+00    3.636603e+00
  5.306598e+00    3.638867e+00
  5.322474e+00    3.547595e+00
  5.338349e+00    3.566966e+00
  5.354225e+00    3.637288e+00
  5.370100e+00    3.634614e+00
  5.385976e+00    3.657648e+00
  5.401851e+00    3.618659e+00
  5.417727e+00    3.482443e+00
  5.433603e+00    3.505141e+00
  5.449478e+00    3.583569e+00
  5.465354e+00    3.598313e+00
  5.481229e+00    3.521181e+00
  5.497105e+00    3.505269e+00
  5.512980e+00    3.541531e+00
  5.528856e+00    3.576688e+00
  5.544732e+00    3.622831e+00
  5.560607e+00    3.498700e+00
  5.576483e+00    3.470046e+00
  5.592358e+00    3.512922e+00
  5.608234e+00    3.483698e+00
  5.624109e+00    3.495457e+00
  5.639985e+00    3.603646e+00
  5.655861e+00    3.586256e+00
  5.671736e+00    3.516619e+00
  5.687612e+00    3.527715e+00
  5.703487e+00    3.577144e+00
  5.719363e+00    3.548952e+00
  5.735238e+00    3.603358e+00
  5.751114e+00    3.571777e+00
  5.766990e+00    3.528221e+00
  5.782865e+00    3.495515e+00
  5.798741e+00    3.447994e+00
  5.814616e+00    3.381046e+00
  5.830492e+00    3.435070e+00
  5.846367e+00    3.492503e+00
  5.862243e+00    3.476346e+00
  5.878119e+00    3.489547e+00
  5.893994e+00    3.427031e+00
  5.909870e+00    3.454063e+00
  5.925745e+00    3.472632e+00
  5.941621e+00    3.564374e+00
  5.957497e+00    3.546870e+00
  5.973372e+00    3.455045e+00
  5.989248e+00    3.431745e+00
  6.005123e+00    3.444715e+00
  6.020999e+00    3.461975e+00
  6.036874e+00    3.558022e+00
  6.052750e+00    3.526935e+00
  6.068626e+00    3.516991e+00
  6.084501e+00    3.626176e+00
  6.100377e+00    3.610092e+00
  6.116252e+00    3.523150e+00
  6.132128e+00    3.499830e+00
  6.148003e+00    3.521236e+00
  6.163879e+00    3.592310e+00
  6.179755e+00    3.557351e+00
  6.195630e+00    3.514493e+00
  6.211506e+00    3.560256e+00
  6.227381e+00    3.572093e+00
  6.243257e+00    3.558163e+00
  6.259132e+00    3.549885e+00
  6.275008e+00    3.649359e+00
  6.290884e+00    3.503402e+00
  6.306759e+00    3.487061e+00
  6.322635e+00    3.529841e+00
  6.338510e+00    3.607919e+00
  6.354386e+00    3.531108e+00
  6.370261e+00    3.481721e+00
  6.386137e+00    3.508356e+00
  6.402013e+00    3.505776e+00
  6.417888e+00    3.514077e+00
  6.433764e+00    3.547882e+00
  6.449639e+00    3.553504e+00
  6.465515e+00    3.557801e+00
  6.481390e+00    3.566755e+00
  6.497266e+00    3.557080e+00
  6.513142e+00    3.481595e+00
  6.529017e+00    3.442645e+00
  6.544893e+00    3.454319e+00
  6.560768e+00    3.509636e+00
  6.576644e+00    3.478618e+00
  6.592519e+00    3.447694e+00
  6.608395e+00    3.437816e+00
  6.624271e+00    3.518389e+00
  6.640146e+00    3.514366e+00
  6.656022e+00    3.446302e+00
  6.671897e+00    3.483227e+00
  6.687773e+00    3.452116e+00
  6.703648e+00    3.438861e+00
  6.719524e+00    3.454151e+00
  6.735400e+00    3.496102e+00
  6.751275e+00    3.460418e+00
  6.767151e+00    3.530055e+00
  6.783026e+00    3.502951e+00
  6.798902e+00    3.510267e+00
  6.814777e+00    3.492429e+00
  6.830653e+00    3.524770e+00
  6.846529e+00    3.495711e+00
  6.862404e+00    3.479629e+00
  6.878280e+00    3.509704e+00
  6.894155e+00    3.501892e+00
  6.910031e+00    3.489473e+00
  6.925907e+00    3.491902e+00
  6.941782e+00    3.494263e+00
  6.957658e+00    3.471004e+00
  6.973533e+00    3.499818e+00
  6.989409e+00    3.394159e+00
  7.005284e+00    3.486144e+00
  7.021160e+00    3.546606e+00
  7.037036e+00    3.558111e+00
  7.052911e+00    3.532147e+00
  7.068787e+00    3.553065e+00
  7.084662e+00    3.448951e+00
  7.100538e+00    3.474398e+00
  7.116413e+00    3.473729e+00
  7.132289e+00    3.525372e+00
  7.148165e+00    3.464962e+00
  7.164040e+00    3.581192e+00
  7.179916e+00    3.454301e+00
  7.195791e+00    3.429636e+00
  7.211667e+00    3.446655e+00
  7.227542e+00    3.362263e+00
  7.243418e+00    3.447668e+00
  7.259294e+00    3.490130e+00
  7.275169e+00    3.550340e+00
  7.291045e+00    3.490969e+00
  7.306920e+00    3.391095e+00
  7.322796e+00    3.394777e+00
  7.338671e+00    3.417912e+00
  7.354547e+00    3.464885e+00
  7.370423e+00    3.488523e+00
  7.386298e+00    3.504012e+00
  7.402174e+00    3.518843e+00
  7.418049e+00    3.502388e+00
  7.433925e+00    3.450410e+00
  7.449800e+00    3.427785e+00
  7.465676e+00    3.407639e+00
  7.481552e+00    3.442575e+00
  7.497427e+00    3.401613e+00
  7.513303e+00    3.426703e+00
  7.529178e+00    3.383999e+00
  7.545054e+00    3.362304e+00
  7.560929e+00    3.434497e+00
  7.576805e+00    3.462948e+00
  7.592681e+00    3.477725e+00
  7.608556e+00    3.481060e+00
  7.624432e+00    3.514342e+00
  7.640307e+00    3.494222e+00
  7.656183e+00    3.448440e+00
  7.672058e+00    3.399885e+00
  7.687934e+00    3.333805e+00
  7.703810e+00    3.415977e+00
  7.719685e+00    3.451007e+00
  7.735561e+00    3.406002e+00
  7.751436e+00    3.351878e+00
  7.767312e+00    3.369446e+00
  7.783187e+00    3.395267e+00
  7.799063e+00    3.376449e+00
  7.814939e+00    3.374811e+00
  7.830814e+00    3.429596e+00
  7.846690e+00    3.373671e+00
  7.862565e+00    3.391010e+00
  7.878441e+00    3.378147e+00
  7.894317e+00    3.371224e+00
  7.910192e+00    3.422315e+00
  7.926068e+00    3.439181e+00
  7.941943e+00    3.383950e+00
  7.957819e+00    3.413452e+00
  7.973694e+00    3.408299e+00
  7.989570e+00    3.375781e+00
  8.005446e+00    3.299510e+00
  8.021321e+00    3.364786e+00
  8.037197e+00    3.372402e+00
  8.053072e+00    3.443147e+00
  8.068948e+00    3.463604e+00
  8.084823e+00    3.400633e+00
  8.100699e+00    3.405591e+00
  8.116575e+00    3.360294e+00
  8.132450e+00    3.376742e+00
  8.148326e+00    3.451552e+00
  8.164201e+00    3.467860e+00
  8.180077e+00    3.446233e+00
  8.195952e+00    3.447271e+00
  8.211828e+00    3.439687e+00
  8.227704e+00    3.398995e+00
  8.243579e+00    3.453499e+00
  8.259455e+00    3.406790e+00
  8.275330e+00    3.325870e+00
  8.291206e+00    3.357388e+00
  8.307081e+00    3.357166e+00
  8.322957e+00    3.330442e+00
  8.338833e+00    3.390329e+00
  8.354708e+00    3.340669e+00
  8.370584e+00    3.322974e+00
  8.386459e+00    3.308211e+00
  8.402335e+00    3.317524e+00
  8.418210e+00    3.347436e+00
  8.434086e+00    3.284831e+00
  8.449962e+00    3.329306e+00
  8.465837e+00    3.352962e+00
  8.481713e+00    3.364521e+00
  8.497588e+00    3.357587e+00
  8.513464e+00    3.310527e+00
  8.529339e+00    3.315901e+00
  8.545215e+00    3.291634e+00
  8.561091e+00    3.338434e+00
  8.576966e+00    3.302296e+00
  8.592842e+00    3.237108e+00
  8.608717e+00    3.294208e+00
  8.624593e+00    3.293846e+00
  8.640468e+00    3.364271e+00
  8.656344e+00    3.346014e+00
  8.672220e+00    3.302023e+00
  8.688095e+00    3.276160e+00
  8.703971e+00    3.243654e+00
  8.719846e+00    3.292227e+00
  8.735722e+00    3.265941e+00
  8.751598e+00    3.304098e+00
  8.767473e+00    3.379169e+00
  8.783349e+00    3.339199e+00
  8.799224e+00    3.311695e+00
  8.815100e+00    3.279452e+00
  8.830975e+00    3.261323e+00
  8.846851e+00    3.245674e+00
  8.862727e+00    3.280740e+00
  8.878602e+00    3.341169e+00
  8.894478e+00    3.276972e+00
  8.910353e+00    3.242554e+00
  8.926229e+00    3.259114e+00
  8.942104e+00    3.280345e+00
  8.957980e+00    3.254938e+00
  8.973856e+00    3.262271e+00
  8.989731e+00    3.284317e+00
  9.005607e+00    3.268004e+00
  9.021482e+00    3.275460e+00
  9.037358e+00    3.219019e+00
  9.053233e+00    3.235122e+00
  9.069109e+00    3.265977e+00
  9.084985e+00    3.303574e+00
  9.100860e+00    3.268358e+00
  9.116736e+00    3.247080e+00
  9.132611e+00    3.170843e+00
  9.148487e+00    3.133084e+00
  9.164362e+00    3.213135e+00
  9.180238e+00    3.213135e+00
  9.196114e+00    3.212662e+00
  9.211989e+00    3.175274e+00
  9.227865e+00    3.197237e+00
  9.243740e+00    3.200543e+00
  9.259616e+00    3.202156e+00
  9.275491e+00    3.175827e+00
  9.291367e+00    3.148219e+00
  9.307243e+00    3.136316e+00
  9.323118e+00    3.130481e+00
  9.338994e+00    3.220095e+00
  9.354869e+00    3.176941e+00
  9.370745e+00    3.134979e+00
  9.386620e+00    3.158005e+00
  9.402496e+00    3.203744e+00
  9.418372e+00    3.234914e+00
  9.434247e+00    3.153131e+00
  9.450123e+00    3.152001e+00
  9.465998e+00    3.176547e+00
  9.481874e+00    3.155545e+00
  9.497749e+00    3.149683e+00
  9.513625e+00    3.199915e+00
  9.529501e+00    3.139886e+00
  9.545376e+00    3.089024e+00
  9.561252e+00    3.105620e+00
  9.577127e+00    3.115611e+00
  9.593003e+00    3.147596e+00
  9.608878e+00    3.165642e+00
  9.624754e+00    3.135666e+00
  9.640630e+00    3.210974e+00
  9.656505e+00    3.154875e+00
  9.672381e+00    3.102737e+00
  9.688256e+00    3.109812e+00
  9.704132e+00    3.159621e+00
  9.720008e+00    3.143693e+00
  9.735883e+00    3.087897e+00
  9.751759e+00    3.110672e+00
  9.767634e+00    3.147728e+00
  9.783510e+00    3.072603e+00
  9.799385e+00    3.114008e+00
  9.815261e+00    3.109642e+00
  9.831137e+00    3.117192e+00
  9.847012e+00    3.122558e+00
  9.862888e+00    3.127496e+00
  9.878763e+00    3.054595e+00
  9.894639e+00    3.037692e+00
  9.910514e+00    3.094048e+00
  9.926390e+00    3.096953e+00
  9.942266e+00    3.070057e+00
  9.958141e+00    3.052536e+00
  9.974017e+00    3.075727e+00
  9.989892e+00    3.103335e+00
  1.000577e+01    3.062141e+00
  1.002164e+01    3.099234e+00
  1.003752e+01    3.111943e+00
  1.005339e+01    3.089637e+00
  1.006927e+01    3.109034e+00
  1.008515e+01    3.129842e+00
  1.010102e+01    3.080463e+00
  1.011690e+01    2.983123e+00
  1.013277e+01    3.040182e+00
  1.014865e+01    3.019329e+00
  1.016452e+01    3.040846e+00
  1.018040e+01    3.067549e+00
  1.019627e+01    3.052526e+00
  1.021215e+01    3.060649e+00
  1.022803e+01    2.994831e+00
  1.024390e+01    3.042084e+00
  1.025978e+01    3.057188e+00
  1.027565e+01    2.972560e+00
  1.029153e+01    3.012982e+00
  1.030740e+01    2.979491e+00
  1.032328e+01    3.029218e+00
  1.033915e+01    3.030486e+00
  1.035503e+01    3.001869e+00
  1.037091e+01    2.999079e+00
  1.038678e+01    2.996978e+00
  1.040266e+01    2.987324e+00
  1.041853e+01    2.990142e+00
  1.043441e+01    3.018257e+00
  1.045028e+01    2.964502e+00
  1.046616e+01    2.997239e+00
  1.048204e+01    2.986897e+00
  1.049791e+01    2.948011e+00
  1.051379e+01    2.933308e+00
  1.052966e+01    2.943995e+00
  1.054554e+01    2.955373e+00
  1.056141e+01    2.927685e+00
  1.057729e+01    2.975658e+00
  1.059316e+01    2.980649e+00
  1.060904e+01    3.004502e+00
  1.062492e+01    2.971514e+00
  1.064079e+01    2.925687e+00
  1.065667e+01    2.984359e+00
  1.067254e+01    2.972386e+00
  1.068842e+01    2.967931e+00
  1.070429e+01    2.981613e+00
  1.072017e+01    2.958072e+00
  1.073604e+01    2.955221e+00
  1.075192e+01    2.928183e+00
  1.076780e+01    2.900486e+00
  1.078367e+01    2.961958e+00
  1.079955e+01    2.930698e+00
  1.081542e+01    2.947516e+00
  1.083130e+01    2.921591e+00
  1.084717e+01    2.922865e+00
  1.086305e+01    2.873435e+00
  1.087892e+01    2.906517e+00
  1.089480e+01    2.927359e+00
  1.091068e+01    2.970546e+00
  1.092655e+01    2.965266e+00
  1.094243e+01    2.941412e+00
  1.095830e+01    2.898967e+00
  1.097418e+01    2.831723e+00
  1.099005e+01    2.894992e+00
  1.100593e+01    2.856817e+00
  1.102180e+01    2.836272e+00
  1.103768e+01    2.860771e+00
  1.105356e+01    2.864921e+00
  1.106943e+01    2.843455e+00
  1.108531e+01    2.817580e+00
  1.110118e+01    2.819110e+00
  1.111706e+01    2.812105e+00
  1.113293e+01    2.833183e+00
  1.114881e+01    2.856836e+00
  1.116468e+01    2.846206e+00
  1.118056e+01    2.818302e+00
  1.119644e+01    2.767717e+00
  1.121231e+01    2.814744e+00
  1.122819e+01    2.868036e+00
  1.124406e+01    2.862153e+00
  1.125994e+01    2.784832e+00
  1.127581e+01    2.790617e+00
  1.129169e+01    2.792000e+00
  1.130756e+01    2.764267e+00
  1.132344e+01    2.773412e+00
  1.133932e+01    2.756363e+00
  1.135519e+01    2.758760e+00
  1.137107e+01    2.764264e+00
  1.138694e+01    2.792121e+00
  1.140282e+01    2.798161e+00
  1.141869e+01    2.793328e+00
  1.143457e+01    2.751864e+00
  1.145045e+01    2.723464e+00
  1.146632e+01    2.805566e+00
  1.148220e+01    2.796457e+00
  1.149807e+01    2.747669e+00
  1.151395e+01    2.772378e+00
  1.152982e+01    2.735795e+00
  1.154570e+01    2.722704e+00
  1.156157e+01    2.740087e+00
  1.157745e+01    2.757289e+00
  1.159333e+01    2.776844e+00
  1.160920e+01    2.735334e+00
  1.162508e+01    2.747095e+00
  1.164095e+01    2.742896e+00
  1.165683e+01    2.723542e+00
  1.167270e+01    2.702574e+00
  1.168858e+01    2.701160e+00
  1.170445e+01    2.705538e+00
  1.172033e+01    2.726494e+00
  1.173621e+01    2.717103e+00
  1.175208e+01    2.682948e+00
  1.176796e+01    2.677587e+00
  1.178383e+01    2.721337e+00
  1.179971e+01    2.691679e+00
  1.181558e+01    2.716822e+00
  1.183146e+01    2.733918e+00
  1.184733e+01    2.694196e+00
  1.186321e+01    2.691053e+00
  1.187909e+01    2.670929e+00
  1.189496e+01    2.632663e+00
  1.191084e+01    2.674956e+00
  1.192671e+01    2.700694e+00
  1.194259e+01    2.668185e+00
  1.195846e+01    2.670742e+00
  1.197434e+01    2.713498e+00
  1.199021e+01    2.715620e+00
  1.200609e+01    2.719207e+00
  1.202197e+01    2.688778e+00
  1.203784e+01    2.690921e+00
  1.205372e+01    2.693228e+00
  1.206959e+01    2.667103e+00
  1.208547e+01    2.625831e+00
  1.210134e+01    2.653169e+00
  1.211722e+01    2.682140e+00
  1.213309e+01    2.646851e+00
  1.214897e+01    2.597197e+00
  1.216485e+01    2.625855e+00
  1.218072e+01    2.647803e+00
  1.219660e+01    2.639153e+00
  1.221247e+01    2.629305e+00
  1.222835e+01    2.659358e+00
  1.224422e+01    2.629646e+00
  1.226010e+01    2.629456e+00
  1.227597e+01    2.638987e+00
  1.229185e+01    2.665115e+00
  1.230773e+01    2.680758e+00
  1.232360e+01    2.671930e+00
  1.233948e+01    2.651402e+00
  1.235535e+01    2.631434e+00
  1.237123e+01    2.671140e+00
  1.238710e+01    2.671108e+00
  1.240298e+01    2.659668e+00
  1.241886e+01    2.695677e+00
  1.243473e+01    2.698040e+00
  1.245061e+01    2.658254e+00
  1.246648e+01    2.662477e+00
  1.248236e+01    2.696383e+00
  1.249823e+01    2.661059e+00
  1.251411e+01    2.652291e+00
  1.252998e+01    2.676386e+00
  1.254586e+01    2.630451e+00
  1.256174e+01    2.623767e+00
  1.257761e+01    2.660993e+00
  1.259349e+01    2.680453e+00
  1.260936e+01    2.686053e+00
  1.262524e+01    2.699235e+00
  1.264111e+01    2.681118e+00
  1.265699e+01    2.686466e+00
  1.267286e+01    2.713516e+00
  1.268874e+01    2.735789e+00
  1.270462e+01    2.806249e+00
  1.272049e+01    2.823243e+00
  1.273637e+01    2.820342e+00
  1.275224e+01    2.851776e+00
  1.276812e+01    2.859149e+00
  1.278399e+01    2.935472e+00
  1.279987e+01    3.001130e+00
  1.281574e+01    3.030163e+00
  1.283162e+01    3.067999e+00
  1.284750e+01    3.115653e+00
  1.286337e+01    3.216590e+00
  1.287925e+01    3.310585e+00
  1.289512e+01    3.433214e+00
  1.291100e+01    3.563391e+00
  1.292687e+01    3.793616e+00
  1.294275e+01    4.062720e+00
  1.295862e+01    4.284885e+00
  1.297450e+01    4.768973e+00
  1.299038e+01    5.257360e+00
  1.300625e+01    5.763949e+00
  1.302213e+01    6.565821e+00
  1.303800e+01    7.468456e+00
  1.305388e+01    8.691704e+00
  1.306975e+01    1.003255e+01
  1.308563e+01    1.134962e+01
  1.310150e+01    1.242019e+01
  1.311738e+01    1.350816e+01
  1.313326e+01    1.468456e+01
  1.314913e+01    1.553241e+01
  1.316501e+01    1.612653e+01
  1.318088e+01    1.622315e+01
  1.319676e+01    1.549697e+01
  1.321263e+01    1.414332e+01
  1.322851e+01    1.237137e+01
  1.324438e+01    1.053582e+01
  1.326026e+01    9.042597e+00
  1.327614e+01    7.715537e+00
  1.329201e+01    6.684664e+00
  1.330789e+01    5.848588e+00
  1.332376e+01    5.270147e+00
  1.333964e+01    4.837104e+00
  1.335551e+01    4.444383e+00
  1.337139e+01    4.136515e+00
  1.338727e+01    3.845609e+00
  1.340314e+01    3.604460e+00
  1.341902e+01    3.391291e+00
  1.343489e+01    3.295580e+00
  1.345077e+01    3.201988e+00
  1.346664e+01    3.132339e+00
  1.348252e+01    2.964488e+00
  1.349839e+01    2.944584e+00
  1.351427e+01    2.965982e+00
  1.353015e+01    2.869961e+00
  1.354602e+01    2.771579e+00
  1.356190e+01    2.758441e+00
  1.357777e+01    2.729849e+00
  1.359365e+01    2.694503e+00
  1.360952e+01    2.631626e+00
  1.362540e+01    2.624689e+00
  1.364127e+01    2.610873e+00
  1.365715e+01    2.580290e+00
  1.367303e+01    2.565186e+00
  1.368890e+01    2.548442e+00
  1.370478e+01    2.506345e+00
  1.372065e+01    2.518690e+00
  1.373653e+01    2.482127e+00
  1.375240e+01    2.423071e+00
  1.376828e+01    2.452507e+00
  1.378415e+01    2.493267e+00
  1.380003e+01    2.476757e+00
  1.381591e+01    2.463407e+00
  1.383178e+01    2.442170e+00
  1.384766e+01    2.441967e+00
  1.386353e+01    2.412332e+00
  1.387941e+01    2.431843e+00
  1.389528e+01    2.413831e+00
  1.391116e+01    2.392062e+00
  1.392703e+01    2.363592e+00
  1.394291e+01    2.338854e+00
  1.395879e+01    2.334386e+00
  1.397466e+01    2.333069e+00
  1.399054e+01    2.291928e+00
  1.400641e+01    2.342416e+00
  1.402229e+01    2.368950e+00
  1.403816e+01    2.323709e+00
  1.405404e+01    2.356241e+00
  1.406991e+01    2.349515e+00
  1.408579e+01    2.308949e+00
  1.410167e+01    2.292892e+00
  1.411754e+01    2.269688e+00
  1.413342e+01    2.276747e+00
  1.414929e+01    2.287753e+00
  1.416517e+01    2.293766e+00
  1.418104e+01    2.250804e+00
  1.419692e+01    2.233858e+00
  1.421279e+01    2.227468e+00
  1.422867e+01    2.232939e+00
  1.424455e+01    2.242249e+00
  1.426042e+01    2.254115e+00
  1.427630e+01    2.229777e+00
  1.429217e+01    2.229695e+00
  1.430805e+01    2.249814e+00
  1.432392e+01    2.264761e+00
  1.433980e+01    2.229834e+00
  1.435568e+01    2.204348e+00
  1.437155e+01    2.218830e+00
  1.438743e+01    2.236568e+00
  1.440330e+01    2.240571e+00
  1.441918e+01    2.227801e+00
  1.443505e+01    2.214518e+00
  1.445093e+01    2.198812e+00
  1.446680e+01    2.168823e+00
  1.448268e+01    2.204683e+00
  1.449856e+01    2.213758e+00
  1.451443e+01    2.199105e+00
  1.453031e+01    2.229042e+00
  1.454618e+01    2.205741e+00
  1.456206e+01    2.175843e+00
  1.457793e+01    2.184808e+00
  1.459381e+01    2.200314e+00
  1.460968e+01    2.237071e+00
  1.462556e+01    2.235244e+00
  1.464144e+01    2.224543e+00
  1.465731e+01    2.193079e+00
  1.467319e+01    2.140744e+00
  1.468906e+01    2.143175e+00
  1.470494e+01    2.158902e+00
  1.472081e+01    2.212085e+00
  1.473669e+01    2.177388e+00
  1.475256e+01    2.163104e+00
  1.476844e+01    2.168872e+00
  1.478432e+01    2.187824e+00
  1.480019e+01    2.211733e+00
  1.481607e+01    2.208715e+00
  1.483194e+01    2.195347e+00
  1.484782e+01    2.186236e+00
  1.486369e+01    2.189521e+00
  1.487957e+01    2.191526e+00
  1.489544e+01    2.209839e+00
  1.491132e+01    2.229866e+00
  1.492720e+01    2.234574e+00
  1.494307e+01    2.272157e+00
  1.495895e+01    2.287286e+00
  1.497482e+01    2.348032e+00
  1.499070e+01    2.393203e+00
  1.500657e+01    2.401598e+00
  1.502245e+01    2.502133e+00
  1.503832e+01    2.592633e+00
  1.505420e+01    2.661860e+00
  1.507008e+01    2.773647e+00
  1.508595e+01    2.909407e+00
  1.510183e+01    3.150269e+00
  1.511770e+01    3.429844e+00
  1.513358e+01    3.759043e+00
  1.514945e+01    4.134051e+00
  1.516533e+01    4.497568e+00
  1.518120e+01    4.847246e+00
  1.519708e+01    5.090295e+00
  1.521296e+01    5.321269e+00
  1.522883e+01    5.523502e+00
  1.524471e+01    5.639174e+00
  1.526058e+01    5.752098e+00
  1.527646e+01    5.698327e+00
  1.529233e+01    5.395272e+00
  1.530821e+01    5.048571e+00
  1.532409e+01    4.644863e+00
  1.533996e+01    4.144887e+00
  1.535584e+01    3.779636e+00
  1.537171e+01    3.385249e+00
  1.538759e+01    3.068246e+00
  1.540346e+01    2.906110e+00
  1.541934e+01    2.753707e+00
  1.543521e+01    2.608298e+00
  1.545109e+01    2.483033e+00
  1.546697e+01    2.398226e+00
  1.548284e+01    2.319349e+00
  1.549872e+01    2.280489e+00
  1.551459e+01    2.203871e+00
  1.553047e+01    2.174411e+00
  1.554634e+01    2.160023e+00
  1.556222e+01    2.118567e+00
  1.557809e+01    2.084711e+00
  1.559397e+01    2.069618e+00
  1.560985e+01    2.052766e+00
  1.562572e+01    2.025156e+00
  1.564160e+01    2.023739e+00
  1.565747e+01    2.015721e+00
  1.567335e+01    1.993713e+00
  1.568922e+01    1.960817e+00
  1.570510e+01    1.952000e+00
  1.572097e+01    1.912161e+00
  1.573685e+01    1.934243e+00
  1.575273e+01    1.952461e+00
  1.576860e+01    1.922363e+00
  1.578448e+01    1.921440e+00
  1.580035e+01    1.946359e+00
  1.581623e+01    1.922412e+00
  1.583210e+01    1.899625e+00
  1.584798e+01    1.918061e+00
  1.586385e+01    1.875790e+00
  1.587973e+01    1.855813e+00
  1.589561e+01    1.855994e+00
  1.591148e+01    1.868058e+00
  1.592736e+01    1.890275e+00
  1.594323e+01    1.879676e+00
  1.595911e+01    1.871361e+00
  1.597498e+01    1.857710e+00
  1.599086e+01    1.835361e+00
  1.600673e+01    1.846565e+00
  1.602261e+01    1.863399e+00
  1.603849e+01    1.859065e+00
  1.605436e+01    1.818994e+00
  1.607024e+01    1.813998e+00
  1.608611e+01    1.816354e+00
  1.610199e+01    1.836145e+00
  1.611786e+01    1.843233e+00
  1.613374e+01    1.842834e+00
  1.614961e+01    1.807328e+00
  1.616549e+01    1.808811e+00
  1.618137e+01    1.790619e+00
  1.619724e+01    1.804311e+00
  1.621312e+01    1.807259e+00
  1.622899e+01    1.778952e+00
  1.624487e+01    1.756875e+00
  1.626074e+01    1.764312e+00
  1.627662e+01    1.785209e+00
  1.629250e+01    1.799305e+00
  1.630837e+01    1.752442e+00
  1.632425e+01    1.777157e+00
  1.634012e+01    1.760963e+00
  1.635600e+01    1.755669e+00
  1.637187e+01    1.749797e+00
  1.638775e+01    1.765452e+00
  1.640362e+01    1.738408e+00
  1.641950e+01    1.775898e+00
  1.643538e+01    1.767620e+00
  1.645125e+01    1.766742e+00
  1.646713e+01    1.741177e+00
  1.648300e+01    1.719808e+00
  1.649888e+01    1.742181e+00
  1.651475e+01    1.754099e+00
  1.653063e+01    1.722619e+00
  1.654650e+01    1.730395e+00
  1.656238e+01    1.713309e+00
  1.657826e+01    1.715287e+00
  1.659413e+01    1.708681e+00
  1.661001e+01    1.729853e+00
  1.662588e+01    1.692648e+00
  1.664176e+01    1.716143e+00
  1.665763e+01    1.721445e+00
  1.667351e+01    1.698763e+00
  1.668938e+01    1.705955e+00
  1.670526e+01    1.697116e+00
  1.672114e+01    1.684269e+00
  1.673701e+01    1.663844e+00
  1.675289e+01    1.708523e+00
  1.676876e+01    1.694992e+00
  1.678464e+01    1.691833e+00
  1.680051e+01    1.684027e+00
  1.681639e+01    1.665818e+00
  1.683226e+01    1.659007e+00
  1.684814e+01    1.663867e+00
  1.686402e+01    1.658222e+00
  1.687989e+01    1.659748e+00
  1.689577e+01    1.660182e+00
  1.691164e+01    1.679285e+00
  1.692752e+01    1.673304e+00
  1.694339e+01    1.650690e+00
  1.695927e+01    1.662470e+00
  1.697514e+01    1.647700e+00
  1.699102e+01    1.647873e+00
  1.700690e+01    1.643334e+00
  1.702277e+01    1.656023e+00
  1.703865e+01    1.612883e+00
  1.705452e+01    1.641899e+00
  1.707040e+01    1.642110e+00
  1.708627e+01    1.645490e+00
  1.710215e+01    1.628899e+00
  1.711802e+01    1.586316e+00
  1.713390e+01    1.609440e+00
  1.714978e+01    1.611086e+00
  1.716565e+01    1.599890e+00
  1.718153e+01    1.560158e+00
  1.719740e+01    1.583458e+00
  1.721328e+01    1.627616e+00
  1.722915e+01    1.612680e+00
  1.724503e+01    1.584242e+00
  1.726091e+01    1.576969e+00
  1.727678e+01    1.618758e+00
  1.729266e+01    1.590591e+00
  1.730853e+01    1.620005e+00
  1.732441e+01    1.579689e+00
  1.734028e+01    1.576952e+00
  1.735616e+01    1.610192e+00
  1.737203e+01    1.576576e+00
  1.738791e+01    1.590720e+00
  1.740379e+01    1.606754e+00
  1.741966e+01    1.571056e+00
  1.743554e+01    1.566534e+00
  1.745141e+01    1.567411e+00
  1.746729e+01    1.555569e+00
  1.748316e+01    1.575299e+00
  1.749904e+01    1.560652e+00
  1.751491e+01    1.537543e+00
  1.753079e+01    1.549643e+00
  1.754667e+01    1.542356e+00
  1.756254e+01    1.548015e+00
  1.757842e+01    1.557885e+00
  1.759429e+01    1.534487e+00
  1.761017e+01    1.554214e+00
  1.762604e+01    1.583086e+00
  1.764192e+01    1.548160e+00
  1.765779e+01    1.535261e+00
  1.767367e+01    1.528829e+00
  1.768955e+01    1.522849e+00
  1.770542e+01    1.538177e+00
  1.772130e+01    1.565244e+00
  1.773717e+01    1.556359e+00
  1.775305e+01    1.543691e+00
  1.776892e+01    1.520025e+00
  1.778480e+01    1.528756e+00
  1.780067e+01    1.501444e+00
  1.781655e+01    1.487603e+00
  1.783243e+01    1.507460e+00
  1.784830e+01    1.537729e+00
  1.786418e+01    1.503037e+00
  1.788005e+01    1.502663e+00
  1.789593e+01    1.510479e+00
  1.791180e+01    1.524649e+00
  1.792768e+01    1.534443e+00
  1.794355e+01    1.518866e+00
  1.795943e+01    1.466482e+00
  1.797531e+01    1.490075e+00
  1.799118e+01    1.503430e+00
  1.800706e+01    1.474277e+00
  1.802293e+01    1.512611e+00
  1.803881e+01    1.505836e+00
  1.805468e+01    1.463664e+00
  1.807056e+01    1.462008e+00
  1.808643e+01    1.480044e+00
  1.810231e+01    1.485832e+00
  1.811819e+01    1.474850e+00
  1.813406e+01    1.473964e+00
  1.814994e+01    1.490106e+00
  1.816581e+01    1.480281e+00
  1.818169e+01    1.473370e+00
  1.819756e+01    1.467969e+00
  1.821344e+01    1.462982e+00
  1.822932e+01    1.484922e+00
  1.824519e+01    1.490277e+00
  1.826107e+01    1.467090e+00
  1.827694e+01    1.467882e+00
  1.829282e+01    1.473603e+00
  1.830869e+01    1.466858e+00
  1.832457e+01    1.457606e+00
  1.834044e+01    1.441577e+00
  1.835632e+01    1.426000e+00
  1.837220e+01    1.413022e+00
  1.838807e+01    1.412700e+00
  1.840395e+01    1.419515e+00
  1.841982e+01    1.455973e+00
  1.843570e+01    1.460357e+00
  1.845157e+01    1.464440e+00
  1.846745e+01    1.445840e+00
  1.848332e+01    1.429299e+00
  1.849920e+01    1.454304e+00
  1.851508e+01    1.433341e+00
  1.853095e+01    1.440210e+00
  1.854683e+01    1.439405e+00
  1.856270e+01    1.417944e+00
  1.857858e+01    1.429237e+00
  1.859445e+01    1.433174e+00
  1.861033e+01    1.396092e+00
  1.862620e+01    1.406115e+00
  1.864208e+01    1.425122e+00
  1.865796e+01    1.410579e+00
  1.867383e+01    1.411409e+00
  1.868971e+01    1.414522e+00
  1.870558e+01    1.420871e+00
  1.872146e+01    1.421027e+00
  1.873733e+01    1.395774e+00
  1.875321e+01    1.390289e+00
  1.876908e+01    1.387928e+00
  1.878496e+01    1.395721e+00
  1.880084e+01    1.383893e+00
  1.881671e+01    1.385175e+00
  1.883259e+01    1.403137e+00
  1.884846e+01    1.381243e+00
  1.886434e+01    1.356651e+00
  1.888021e+01    1.387348e+00
  1.889609e+01    1.379616e+00
  1.891196e+01    1.366032e+00
  1.892784e+01    1.349078e+00
  1.894372e+01    1.379360e+00
  1.895959e+01    1.411644e+00
  1.897547e+01    1.405623e+00
  1.899134e+01    1.391575e+00
  1.900722e+01    1.368890e+00
  1.902309e+01    1.348085e+00
  1.903897e+01    1.375806e+00
  1.905484e+01    1.373111e+00
  1.907072e+01    1.334464e+00
  1.908660e+01    1.350961e+00
  1.910247e+01    1.378965e+00
  1.911835e+01    1.380309e+00
  1.913422e+01    1.357789e+00
  1.915010e+01    1.330891e+00
  1.916597e+01    1.350902e+00
  1.918185e+01    1.357285e+00
  1.919773e+01    1.341545e+00
  1.921360e+01    1.327444e+00
  1.922948e+01    1.339045e+00
  1.924535e+01    1.334886e+00
  1.926123e+01    1.328843e+00
  1.927710e+01    1.355082e+00
  1.929298e+01    1.377802e+00
  1.930885e+01    1.357274e+00
  1.932473e+01    1.351847e+00
  1.934061e+01    1.343754e+00
  1.935648e+01    1.340163e+00
  1.937236e+01    1.345070e+00
  1.938823e+01    1.324193e+00
  1.940411e+01    1.331583e+00
  1.941998e+01    1.361520e+00
  1.943586e+01    1.311342e+00
  1.945173e+01    1.327953e+00
  1.946761e+01    1.328297e+00
  1.948349e+01    1.320694e+00
  1.949936e+01    1.339793e+00
  1.951524e+01    1.307382e+00
  1.953111e+01    1.300413e+00
  1.954699e+01    1.317424e+00
  1.956286e+01    1.303448e+00
  1.957874e+01    1.305929e+00
  1.959461e+01    1.303225e+00
  1.961049e+01    1.304666e+00
  1.962637e+01    1.318872e+00
  1.964224e+01    1.332705e+00
  1.965812e+01    1.314690e+00
  1.967399e+01    1.314345e+00
  1.968987e+01    1.339591e+00
  1.970574e+01    1.297454e+00
  1.972162e+01    1.289790e+00
  1.973749e+01    1.289903e+00
  1.975337e+01    1.328103e+00
  1.976925e+01    1.319655e+00
  1.978512e+01    1.305414e+00
  1.980100e+01    1.296377e+00
  1.981687e+01    1.286798e+00
  1.983275e+01    1.302540e+00
  1.984862e+01    1.277967e+00
  1.986450e+01    1.275573e+00
  1.988037e+01    1.279278e+00
  1.989625e+01    1.260433e+00
  1.991213e+01    1.271324e+00
  1.992800e+01    1.276159e+00
  1.994388e+01    1.271307e+00
  1.995975e+01    1.271304e+00
  1.997563e+01    1.261098e+00
  1.999150e+01    1.261584e+00
  2.000738e+01    1.251344e+00
  2.002325e+01    1.265580e+00
  2.003913e+01    1.246650e+00
  2.005501e+01    1.272994e+00
  2.007088e+01    1.237622e+00
  2.008676e+01    1.264486e+00
  2.010263e+01    1.266783e+00
  2.011851e+01    1.258699e+00
  2.013438e+01    1.251817e+00
  2.015026e+01    1.235029e+00
  2.016614e+01    1.230672e+00
  2.018201e+01    1.245308e+00
  2.019789e+01    1.245344e+00
  2.021376e+01    1.237939e+00
  2.022964e+01    1.257326e+00
  2.024551e+01    1.256186e+00
  2.026139e+01    1.251728e+00
  2.027726e+01    1.232632e+00
  2.029314e+01    1.240863e+00
  2.030902e+01    1.249952e+00
  2.032489e+01    1.242916e+00
  2.034077e+01    1.236811e+00
  2.035664e+01    1.246336e+00
  2.037252e+01    1.205917e+00
  2.038839e+01    1.212774e+00
  2.040427e+01    1.228119e+00
  2.042014e+01    1.225732e+00
  2.043602e+01    1.238493e+00
  2.045190e+01    1.238289e+00
  2.046777e+01    1.203163e+00
  2.048365e+01    1.233075e+00
  2.049952e+01    1.215293e+00
  2.051540e+01    1.220664e+00
  2.053127e+01    1.223342e+00
  2.054715e+01    1.207825e+00
  2.056302e+01    1.223297e+00
  2.057890e+01    1.215014e+00
  2.059478e+01    1.221005e+00
  2.061065e+01    1.226582e+00
  2.062653e+01    1.227255e+00
  2.064240e+01    1.210502e+00
  2.065828e+01    1.205925e+00
  2.067415e+01    1.226857e+00
  2.069003e+01    1.210865e+00
  2.070590e+01    1.186993e+00
  2.072178e+01    1.165726e+00
  2.073766e+01    1.180907e+00
  2.075353e+01    1.213743e+00
  2.076941e+01    1.230006e+00
  2.078528e+01    1.209878e+00
  2.080116e+01    1.184201e+00
  2.081703e+01    1.191328e+00
  2.083291e+01    1.204787e+00
  2.084878e+01    1.189188e+00
  2.086466e+01    1.207633e+00
  2.088054e+01    1.226146e+00
  2.089641e+01    1.216882e+00
  2.091229e+01    1.211731e+00
  2.092816e+01    1.221233e+00
  2.094404e+01    1.201027e+00
  2.095991e+01    1.204590e+00
  2.097579e+01    1.204334e+00
  2.099166e+01    1.203117e+00
  2.100754e+01    1.214666e+00
  2.102342e+01    1.213603e+00
  2.103929e+01    1.204911e+00
  2.105517e+01    1.176016e+00
  2.107104e+01    1.219173e+00
  2.108692e+01    1.210277e+00
  2.110279e+01    1.204817e+00
  2.111867e+01    1.205870e+00
  2.113455e+01    1.221774e+00
  2.115042e+01    1.195478e+00
  2.116630e+01    1.196442e+00
  2.118217e+01    1.243198e+00
  2.119805e+01    1.227663e+00
  2.121392e+01    1.237141e+00
  2.122980e+01    1.243337e+00
  2.124567e+01    1.201953e+00
  2.126155e+01    1.223040e+00
  2.127743e+01    1.245696e+00
  2.129330e+01    1.234783e+00
  2.130918e+01    1.258397e+00
  2.132505e+01    1.236014e+00
  2.134093e+01    1.252129e+00
  2.135680e+01    1.253662e+00
  2.137268e+01    1.282425e+00
  2.138855e+01    1.297628e+00
  2.140443e+01    1.311288e+00
  2.142031e+01    1.310310e+00
  2.143618e+01    1.319801e+00
  2.145206e+01    1.348473e+00
  2.146793e+01    1.370084e+00
  2.148381e+01    1.387117e+00
  2.149968e+01    1.407944e+00
  2.151556e+01    1.430637e+00
  2.153143e+01    1.473505e+00
  2.154731e+01    1.512767e+00
  2.156319e+01    1.530492e+00
  2.157906e+01    1.586023e+00
  2.159494e+01    1.669737e+00
  2.161081e+01    1.727594e+00
  2.162669e+01    1.819953e+00
  2.164256e+01    1.921670e+00
  2.165844e+01    2.065494e+00
  2.167431e+01    2.269867e+00
  2.169019e+01    2.471161e+00
  2.170607e+01    2.722718e+00
  2.172194e+01    3.006995e+00
  2.173782e+01    3.437051e+00
  2.175369e+01    3.963045e+00
  2.176957e+01    4.497616e+00
  2.178544e+01    5.098004e+00
  2.180132e+01    5.695926e+00
  2.181719e+01    6.398944e+00
  2.183307e+01    7.076334e+00
  2.184895e+01    7.664724e+00
  2.186482e+01    8.254015e+00
  2.188070e+01    8.635612e+00
  2.189657e+01    8.861913e+00
  2.191245e+01    8.666073e+00
  2.192832e+01    8.228613e+00
  2.194420e+01    7.485566e+00
  2.196007e+01    6.593382e+00
  2.197595e+01    5.669751e+00
  2.199183e+01    4.787032e+00
  2.200770e+01    4.154557e+00
  2.202358e+01    3.617221e+00
  2.203945e+01    3.172267e+00
  2.205533e+01    2.823981e+00
  2.207120e+01    2.520186e+00
  2.208708e+01    2.306574e+00
  2.210296e+01    2.142602e+00
  2.211883e+01    2.009248e+00
  2.213471e+01    1.872142e+00
  2.215058e+01    1.746861e+00
  2.216646e+01    1.647833e+00
  2.218233e+01    1.607815e+00
  2.219821e+01    1.536039e+00
  2.221408e+01    1.456836e+00
  2.222996e+01    1.413200e+00
  2.224584e+01    1.353080e+00
  2.226171e+01    1.346026e+00
  2.227759e+01    1.350533e+00
  2.229346e+01    1.291342e+00
  2.230934e+01    1.302326e+00
  2.232521e+01    1.267471e+00
  2.234109e+01    1.232006e+00
  2.235696e+01    1.228535e+00
  2.237284e+01    1.233116e+00
  2.238872e+01    1.201294e+00
  2.240459e+01    1.218699e+00
  2.242047e+01    1.188445e+00
  2.243634e+01    1.150565e+00
  2.245222e+01    1.140352e+00
  2.246809e+01    1.157760e+00
  2.248397e+01    1.138249e+00
  2.249984e+01    1.164889e+00
  2.251572e+01    1.128759e+00
  2.253160e+01    1.101652e+00
  2.254747e+01    1.099241e+00
  2.256335e+01    1.087865e+00
  2.257922e+01    1.096275e+00
  2.259510e+01    1.088985e+00
  2.261097e+01    1.082069e+00
  2.262685e+01    1.066507e+00
  2.264272e+01    1.083979e+00
  2.265860e+01    1.081198e+00
  2.267448e+01    1.067123e+00
  2.269035e+01    1.048863e+00
  2.270623e+01    1.049969e+00
  2.272210e+01    1.045927e+00
  2.273798e+01    1.037052e+00
  2.275385e+01    1.050898e+00
  2.276973e+01    1.043725e+00
  2.278560e+01    1.045025e+00
  2.280148e+01    1.040305e+00
  2.281736e+01    1.051881e+00
  2.283323e+01    1.052137e+00
  2.284911e+01    1.045687e+00
  2.286498e+01    1.026190e+00
  2.288086e+01    1.033898e+00
  2.289673e+01    1.040100e+00
  2.291261e+01    1.020473e+00
  2.292848e+01    1.013221e+00
  2.294436e+01    1.014678e+00
  2.296024e+01    1.021447e+00
  2.297611e+01    1.007257e+00
  2.299199e+01    1.009994e+00
  2.300786e+01    1.011531e+00
  2.302374e+01    1.014263e+00
  2.303961e+01    9.999095e-01
  2.305549e+01    9.937211e-01
  2.307137e+01    1.007463e+00
  2.308724e+01    1.014679e+00
  2.310312e+01    1.017743e+00
  2.311899e+01    1.013153e+00
  2.313487e+01    9.960051e-01
  2.315074e+01    9.793459e-01
  2.316662e+01    9.741989e-01
  2.318249e+01    9.561800e-01
  2.319837e+01    9.620938e-01
  2.321425e+01    9.924678e-01
  2.323012e+01    9.893637e-01
  2.324600e+01    9.693266e-01
  2.326187e+01    9.712016e-01
  2.327775e+01    9.898767e-01
  2.329362e+01    9.607594e-01
  2.330950e+01    9.538170e-01
  2.332537e+01    9.594188e-01
  2.334125e+01    9.642516e-01
  2.335713e+01    9.691224e-01
  2.337300e+01    9.856383e-01
  2.338888e+01    9.806820e-01
  2.340475e+01    9.650229e-01
  2.342063e+01    9.502761e-01
  2.343650e+01    9.435935e-01
  2.345238e+01    9.511099e-01
  2.346825e+01    9.538429e-01
  2.348413e+01    9.568842e-01
  2.350001e+01    9.667764e-01
  2.351588e+01    9.577949e-01
  2.353176e+01    9.645594e-01
  2.354763e+01    9.636658e-01
  2.356351e+01    9.736494e-01
  2.357938e+01    9.487433e-01
  2.359526e+01    9.662474e-01
  2.361113e+01    9.522718e-01
  2.362701e+01    9.519574e-01
  2.364289e+01    9.665954e-01
  2.365876e+01    9.365465e-01
  2.367464e+01    9.379851e-01
  2.369051e+01    9.308878e-01
  2.370639e+01    9.369297e-01
  2.372226e+01    9.295802e-01
  2.373814e+01    9.339023e-01
  2.375401e+01    9.320740e-01
  2.376989e+01    9.183851e-01
  2.378577e+01    9.305216e-01
  2.380164e+01    9.084736e-01
  2.381752e+01    9.022185e-01
  2.383339e+01    9.278411e-01
  2.384927e+01    9.116290e-01
  2.386514e+01    9.127733e-01
  2.388102e+01    8.889061e-01
  2.389689e+01    8.918437e-01
  2.391277e+01    9.047717e-01
  2.392865e+01    9.092360e-01
  2.394452e+01    9.071530e-01
  2.396040e+01    8.890262e-01
  2.397627e+01    8.987215e-01
  2.399215e+01    9.049230e-01
  2.400802e+01    9.037953e-01
  2.402390e+01    8.997292e-01
  2.403978e+01    8.901342e-01
  2.405565e+01    8.782725e-01
  2.407153e+01    8.690056e-01
  2.408740e+01    8.852528e-01
  2.410328e+01    8.854828e-01
  2.411915e+01    8.688230e-01
  2.413503e+01    8.503247e-01
  2.415090e+01    8.691415e-01
  2.416678e+01    8.741216e-01
  2.418266e+01    8.833616e-01
  2.419853e+01    8.624268e-01
  2.421441e+01    8.603624e-01
  2.423028e+01    8.558086e-01
  2.424616e+01    8.674316e-01
  2.426203e+01    8.659664e-01
  2.427791e+01    8.843163e-01
  2.429378e+01    8.943315e-01
  2.430966e+01    8.895956e-01
  2.432554e+01    8.872185e-01
  2.434141e+01    8.575646e-01
  2.435729e+01    8.811586e-01
  2.437316e+01    8.996087e-01
  2.438904e+01    8.869410e-01
  2.440491e+01    8.913566e-01
  2.442079e+01    8.991596e-01
  2.443666e+01    9.160641e-01
  2.445254e+01    8.792034e-01
  2.446842e+01    8.842364e-01
  2.448429e+01    8.884599e-01
  2.450017e+01    8.730432e-01
  2.451604e+01    8.685278e-01
  2.453192e+01    8.882274e-01
  2.454779e+01    8.731208e-01
  2.456367e+01    8.807899e-01
  2.457954e+01    8.815538e-01
  2.459542e+01    8.912107e-01
  2.461130e+01    8.789829e-01
  2.462717e+01    8.717262e-01
  2.464305e+01    8.795138e-01
  2.465892e+01    8.926465e-01
  2.467480e+01    8.958381e-01
  2.469067e+01    8.724068e-01
  2.470655e+01    8.717669e-01
  2.472242e+01    8.625956e-01
  2.473830e+01    8.553259e-01
  2.475418e+01    8.857756e-01
  2.477005e+01    8.735171e-01
  2.478593e+01    8.999993e-01
  2.480180e+01    8.896082e-01
  2.481768e+01    8.771600e-01
  2.483355e+01    8.601985e-01
  2.484943e+01    8.626561e-01
  2.486530e+01    8.782696e-01
  2.488118e+01    8.873720e-01
  2.489706e+01    8.975754e-01
  2.491293e+01    8.899205e-01
  2.492881e+01    8.904687e-01
  2.494468e+01    8.817102e-01
  2.496056e+01    8.952519e-01
  2.497643e+01    8.868481e-01
  2.499231e+01    8.728412e-01
  2.500819e+01    8.778687e-01
  2.502406e+01    8.788210e-01
  2.503994e+01    8.856022e-01
  2.505581e+01    8.864709e-01
  2.507169e+01    8.845515e-01
  2.508756e+01    9.010795e-01
  2.510344e+01    8.940029e-01
  2.511931e+01    8.817517e-01
  2.513519e+01    8.645842e-01
  2.515107e+01    8.951718e-01
  2.516694e+01    9.061102e-01
  2.518282e+01    9.094284e-01
  2.519869e+01    9.013485e-01
  2.521457e+01    9.080005e-01
  2.523044e+01    9.059556e-01
  2.524632e+01    9.180306e-01
  2.526219e+01    9.256004e-01
  2.527807e+01    9.140112e-01
  2.529395e+01    9.138429e-01
  2.530982e+01    9.339687e-01
  2.532570e+01    9.437802e-01
  2.534157e+01    9.591316e-01
  2.535745e+01    9.798209e-01
  2.537332e+01    9.681979e-01
  2.538920e+01    9.661629e-01
  2.540507e+01    9.750859e-01
  2.542095e+01    9.886568e-01
  2.543683e+01    9.929166e-01
  2.545270e+01    1.017869e+00
  2.546858e+01    1.026209e+00
  2.548445e+01    1.042318e+00
  2.550033e+01    1.047720e+00
  2.551620e+01    1.064245e+00
  2.553208e+01    1.080031e+00
  2.554795e+01    1.083759e+00
  2.556383e+01    1.126136e+00
  2.557971e+01    1.135803e+00
  2.559558e+01    1.189270e+00
  2.561146e+01    1.217335e+00
  2.562733e+01    1.249060e+00
  2.564321e+01    1.304134e+00
  2.565908e+01    1.349262e+00
  2.567496e+01    1.382438e+00
  2.569083e+01    1.477929e+00
  2.570671e+01    1.570605e+00
  2.572259e+01    1.660907e+00
  2.573846e+01    1.782556e+00
  2.575434e+01    2.004266e+00
  2.577021e+01    2.204812e+00
  2.578609e+01    2.467729e+00
  2.580196e+01    2.753214e+00
  2.581784e+01    3.112081e+00
  2.583371e+01    3.580158e+00
  2.584959e+01    4.036967e+00
  2.586547e+01    4.583521e+00
  2.588134e+01    5.197119e+00
  2.589722e+01    5.698820e+00
  2.591309e+01    6.238068e+00
  2.592897e+01    6.679539e+00
  2.594484e+01    6.952311e+00
  2.596072e+01    7.075439e+00
  2.597660e+01    6.980740e+00
  2.599247e+01    6.491231e+00
  2.600835e+01    5.917162e+00
  2.602422e+01    5.219182e+00
  2.604010e+01    4.540052e+00
  2.605597e+01    3.975654e+00
  2.607185e+01    3.442167e+00
  2.608772e+01    3.030854e+00
  2.610360e+01    2.651444e+00
  2.611948e+01    2.363538e+00
  2.613535e+01    2.117498e+00
  2.615123e+01    1.927869e+00
  2.616710e+01    1.777468e+00
  2.618298e+01    1.678578e+00
  2.619885e+01    1.572363e+00
  2.621473e+01    1.458373e+00
  2.623060e+01    1.376506e+00
  2.624648e+01    1.328947e+00
  2.626236e+01    1.284011e+00
  2.627823e+01    1.244346e+00
  2.629411e+01    1.207488e+00
  2.630998e+01    1.154607e+00
  2.632586e+01    1.155306e+00
  2.634173e+01    1.119299e+00
  2.635761e+01    1.080627e+00
  2.637348e+01    1.052151e+00
  2.638936e+01    1.061189e+00
  2.640524e+01    1.055143e+00
  2.642111e+01    1.027364e+00
  2.643699e+01    9.990240e-01
  2.645286e+01    9.834688e-01
  2.646874e+01    9.931464e-01
  2.648461e+01    9.882914e-01
  2.650049e+01    9.921387e-01
  2.651636e+01    1.000112e+00
  2.653224e+01    1.013940e+00
  2.654812e+01    9.915301e-01
  2.656399e+01    9.708090e-01
  2.657987e+01    9.918821e-01
  2.659574e+01    9.913716e-01
  2.661162e+01    9.800745e-01
  2.662749e+01    9.801761e-01
  2.664337e+01    9.806796e-01
  2.665924e+01    9.777089e-01
  2.667512e+01    9.622003e-01
  2.669100e+01    9.754760e-01
  2.670687e+01    9.575729e-01
  2.672275e+01    9.527701e-01
  2.673862e+01    9.540362e-01
  2.675450e+01    9.551386e-01
  2.677037e+01    9.575872e-01
  2.678625e+01    9.647265e-01
  2.680212e+01    9.856158e-01
  2.681800e+01    9.946049e-01
  2.683388e+01    9.934974e-01
  2.684975e+01    9.604515e-01
  2.686563e+01    9.602223e-01
  2.688150e+01    9.619212e-01
  2.689738e+01    9.719893e-01
  2.691325e+01    9.827862e-01
  2.692913e+01    1.029330e+00
  2.694501e+01    1.036063e+00
  2.696088e+01    1.016805e+00
  2.697676e+01    1.043360e+00
  2.699263e+01    1.091416e+00
  2.700851e+01    1.112844e+00
  2.702438e+01    1.134980e+00
  2.704026e+01    1.166381e+00
  2.705613e+01    1.221919e+00
  2.707201e+01    1.286342e+00
  2.708789e+01    1.386065e+00
  2.710376e+01    1.443182e+00
  2.711964e+01    1.567042e+00
  2.713551e+01    1.699896e+00
  2.715139e+01    1.798651e+00
  2.716726e+01    1.938206e+00
  2.718314e+01    2.063787e+00
  2.719901e+01    2.146751e+00
  2.721489e+01    2.192531e+00
  2.723077e+01    2.123300e+00
  2.724664e+01    2.052721e+00
  2.726252e+01    1.973504e+00
  2.727839e+01    1.813041e+00
  2.729427e+01    1.677505e+00
  2.731014e+01    1.579769e+00
  2.732602e+01    1.416018e+00
  2.734189e+01    1.345008e+00
  2.735777e+01    1.287420e+00
  2.737365e+01    1.196077e+00
  2.738952e+01    1.150137e+00
  2.740540e+01    1.141794e+00
  2.742127e+01    1.092561e+00
  2.743715e+01    1.076560e+00
  2.745302e+01    1.061510e+00
  2.746890e+01    1.018086e+00
  2.748477e+01    9.955611e-01
  2.750065e+01    9.697567e-01
  2.751653e+01    9.677091e-01
  2.753240e+01    9.481401e-01
  2.754828e+01    9.267352e-01
  2.756415e+01    9.120392e-01
  2.758003e+01    9.051847e-01
  2.759590e+01    9.234390e-01
  2.761178e+01    9.156870e-01
  2.762765e+01    9.417527e-01
  2.764353e+01    9.078313e-01
  2.765941e+01    8.990754e-01
  2.767528e+01    8.895363e-01
  2.769116e+01    8.857145e-01
  2.770703e+01    9.011730e-01
  2.772291e+01    8.860201e-01
  2.773878e+01    8.977286e-01
  2.775466e+01    9.039891e-01
  2.777054e+01    8.774651e-01
  2.778641e+01    8.926924e-01
  2.780229e+01    8.886074e-01
  2.781816e+01    8.753023e-01
  2.783404e+01    8.792689e-01
  2.784991e+01    8.586372e-01
  2.786579e+01    8.513460e-01
  2.788166e+01    8.813208e-01
  2.789754e+01    8.728313e-01
  2.791342e+01    8.313531e-01
  2.792929e+01    8.328859e-01
  2.794517e+01    8.404907e-01
  2.796104e+01    8.379872e-01
  2.797692e+01    8.499556e-01
  2.799279e+01    8.531413e-01
  2.800867e+01    8.465534e-01
  2.802454e+01    8.628144e-01
  2.804042e+01    8.701449e-01
  2.805630e+01    8.732070e-01
  2.807217e+01    8.487594e-01
  2.808805e+01    8.239939e-01
  2.810392e+01    8.338180e-01
  2.811980e+01    8.387779e-01
  2.813567e+01    8.523014e-01
  2.815155e+01    8.347780e-01
  2.816742e+01    8.368378e-01
  2.818330e+01    8.438623e-01
  2.819918e+01    8.350475e-01
  2.821505e+01    8.634753e-01
  2.823093e+01    8.671361e-01
  2.824680e+01    8.554562e-01
  2.826268e+01    8.470315e-01
  2.827855e+01    8.437924e-01
  2.829443e+01    8.385414e-01
  2.831030e+01    8.478668e-01
  2.832618e+01    8.327773e-01
  2.834206e+01    8.497744e-01
  2.835793e+01    8.458220e-01
  2.837381e+01    8.316281e-01
  2.838968e+01    8.410545e-01
  2.840556e+01    8.264780e-01
  2.842143e+01    8.371892e-01
  2.843731e+01    8.342102e-01
  2.845318e+01    8.270454e-01
  2.846906e+01    8.251753e-01
  2.848494e+01    8.271309e-01
  2.850081e+01    8.317067e-01
  2.851669e+01    8.075394e-01
  2.853256e+01    8.106978e-01
  2.854844e+01    8.127847e-01
  2.856431e+01    8.264000e-01
  2.858019e+01    8.187748e-01
  2.859606e+01    8.287523e-01
  2.861194e+01    8.301175e-01
  2.862782e+01    8.373508e-01
  2.864369e+01    8.138148e-01
  2.865957e+01    8.097631e-01
  2.867544e+01    8.102300e-01
  2.869132e+01    8.005697e-01
  2.870719e+01    8.009534e-01
  2.872307e+01    8.183607e-01
  2.873895e+01    8.165663e-01
  2.875482e+01    8.228036e-01
  2.877070e+01    8.328619e-01
  2.878657e+01    8.360506e-01
  2.880245e+01    7.859653e-01
  2.881832e+01    8.012118e-01
  2.883420e+01    8.080772e-01
  2.885007e+01    7.966159e-01
  2.886595e+01    8.049904e-01
  2.888183e+01    8.027687e-01
  2.889770e+01    8.212030e-01
  2.891358e+01    8.018124e-01
  2.892945e+01    8.045318e-01
  2.894533e+01    7.908898e-01
  2.896120e+01    8.049669e-01
  2.897708e+01    8.157766e-01
  2.899295e+01    8.069741e-01
  2.900883e+01    8.155084e-01
  2.902471e+01    8.113946e-01
  2.904058e+01    8.151740e-01
  2.905646e+01    8.106043e-01
  2.907233e+01    8.137616e-01
  2.908821e+01    8.178075e-01
  2.910408e+01    8.116843e-01
  2.911996e+01    8.297713e-01
  2.913583e+01    8.142201e-01
  2.915171e+01    8.217377e-01
  2.916759e+01    8.124540e-01
  2.918346e+01    8.202801e-01
  2.919934e+01    8.128796e-01
  2.921521e+01    7.988999e-01
  2.923109e+01    8.010097e-01
  2.924696e+01    7.982543e-01
  2.926284e+01    8.080939e-01
  2.927871e+01    7.685649e-01
  2.929459e+01    7.893867e-01
  2.931047e+01    8.248535e-01
  2.932634e+01    7.930073e-01
  2.934222e+01    8.019284e-01
  2.935809e+01    8.038481e-01
  2.937397e+01    8.007796e-01
  2.938984e+01    8.132711e-01
  2.940572e+01    7.958183e-01
  2.942159e+01    7.827018e-01
  2.943747e+01    7.925560e-01
  2.945335e+01    8.160197e-01
  2.946922e+01    7.952010e-01
  2.948510e+01    8.082723e-01
  2.950097e+01    8.111544e-01
  2.951685e+01    7.809979e-01
  2.953272e+01    8.065801e-01
  2.954860e+01    7.861696e-01
  2.956447e+01    7.994726e-01
  2.958035e+01    7.965521e-01
  2.959623e+01    8.035697e-01
  2.961210e+01    7.872839e-01
  2.962798e+01    7.973204e-01
  2.964385e+01    7.929904e-01
  2.965973e+01    7.655122e-01
  2.967560e+01    7.923083e-01
  2.969148e+01    7.962258e-01
  2.970736e+01    7.733523e-01
  2.972323e+01    7.870172e-01
  2.973911e+01    8.176324e-01
  2.975498e+01    7.976318e-01
  2.977086e+01    8.009818e-01
  2.978673e+01    7.889556e-01
  2.980261e+01    7.798672e-01
  2.981848e+01    7.604258e-01
  2.983436e+01    7.753026e-01
  2.985024e+01    7.755320e-01
  2.986611e+01    7.883312e-01
  2.988199e+01    8.058876e-01
  2.989786e+01    8.033035e-01
  2.991374e+01    7.705041e-01
  2.992961e+01    7.709409e-01
  2.994549e+01    7.922540e-01
  2.996136e+01    7.851073e-01
  2.997724e+01    8.078666e-01
  2.999312e+01    8.095111e-01
  3.000899e+01    8.092682e-01
  3.002487e+01    8.157031e-01
  3.004074e+01    8.007948e-01
  3.005662e+01    8.150371e-01
  3.007249e+01    8.019577e-01
  3.008837e+01    8.038182e-01
  3.010424e+01    8.013189e-01
  3.012012e+01    7.904950e-01
  3.013600e+01    7.977508e-01
  3.015187e+01    7.614652e-01
  3.016775e+01    7.802687e-01
  3.018362e+01    7.751456e-01
  3.019950e+01    7.809415e-01
  3.021537e+01    7.935151e-01
  3.023125e+01    7.894698e-01
  3.024712e+01    7.683277e-01
  3.026300e+01    7.615063e-01
  3.027888e+01    7.797734e-01
  3.029475e+01    7.813441e-01
  3.031063e+01    7.687714e-01
  3.032650e+01    7.588528e-01
  3.034238e+01    7.609378e-01
  3.035825e+01    7.692334e-01
  3.037413e+01    7.659068e-01
  3.039000e+01    7.592484e-01
  3.040588e+01    7.580395e-01
  3.042176e+01    7.641153e-01
  3.043763e+01    7.743244e-01
  3.045351e+01    7.844576e-01
  3.046938e+01    7.558359e-01
  3.048526e+01    7.698897e-01
  3.050113e+01    7.896844e-01
  3.051701e+01    7.871936e-01
  3.053288e+01    7.782692e-01
  3.054876e+01    7.752194e-01
  3.056464e+01    7.507029e-01
  3.058051e+01    7.650631e-01
  3.059639e+01    7.644469e-01
  3.061226e+01    7.916155e-01
  3.062814e+01    7.710522e-01
  3.064401e+01    7.468464e-01
  3.065989e+01    7.529358e-01
  3.067577e+01    7.669166e-01
  3.069164e+01    7.699661e-01
  3.070752e+01    7.632124e-01
  3.072339e+01    7.573604e-01
  3.073927e+01    7.798890e-01
  3.075514e+01    7.592092e-01
  3.077102e+01    7.731386e-01
  3.078689e+01    7.805616e-01
  3.080277e+01    7.840213e-01
  3.081865e+01    7.580342e-01
  3.083452e+01    7.697794e-01
  3.085040e+01    8.031394e-01
  3.086627e+01    7.751841e-01
  3.088215e+01    7.896299e-01
  3.089802e+01    7.930529e-01
  3.091390e+01    7.850903e-01
  3.092977e+01    7.911865e-01
  3.094565e+01    7.740666e-01
  3.096153e+01    7.714108e-01
  3.097740e+01    7.755365e-01
  3.099328e+01    7.709324e-01
  3.100915e+01    7.607375e-01
  3.102503e+01    7.885317e-01
  3.104090e+01    7.712618e-01
  3.105678e+01    7.697685e-01
  3.107265e+01    7.713814e-01
  3.108853e+01    7.609217e-01
  3.110441e+01    7.763798e-01
  3.112028e+01    7.928445e-01
  3.113616e+01    7.911767e-01
  3.115203e+01    7.746307e-01
  3.116791e+01    7.546815e-01
  3.118378e+01    7.653329e-01
  3.119966e+01    7.813056e-01
  3.121553e+01    7.763156e-01
  3.123141e+01    7.719254e-01
  3.124729e+01    7.734154e-01
  3.126316e+01    7.685978e-01
  3.127904e+01    7.773999e-01
  3.129491e+01    7.720559e-01
  3.131079e+01    7.950809e-01
  3.132666e+01    8.078897e-01
  3.134254e+01    8.103520e-01
  3.135841e+01    8.043115e-01
  3.137429e+01    7.983193e-01
  3.139017e+01    7.967235e-01
  3.140604e+01    7.950379e-01
  3.142192e+01    7.997237e-01
  3.143779e+01    7.871350e-01
  3.145367e+01    8.299679e-01
  3.146954e+01    8.212918e-01
  3.148542e+01    8.320221e-01
  3.150129e+01    8.112669e-01
  3.151717e+01    8.259293e-01
  3.153305e+01    8.309427e-01
  3.154892e+01    8.502229e-01
  3.156480e+01    8.520960e-01
  3.158067e+01    8.646581e-01
  3.159655e+01    8.586379e-01
  3.161242e+01    8.622987e-01
  3.162830e+01    8.687798e-01
  3.164418e+01    9.058565e-01
  3.166005e+01    9.085296e-01
  3.167593e+01    9.391342e-01
  3.169180e+01    9.807427e-01
  3.170768e+01    1.011321e+00
  3.172355e+01    1.054340e+00
  3.173943e+01    1.098864e+00
  3.175530e+01    1.161739e+00
  3.177118e+01    1.216598e+00
  3.178706e+01    1.320591e+00
  3.180293e+01    1.429122e+00
  3.181881e+01    1.562064e+00
  3.183468e+01    1.706841e+00
  3.185056e+01    1.824106e+00
  3.186643e+01    1.948135e+00
  3.188231e+01    2.013296e+00
  3.189818e+01    2.034691e+00
  3.191406e+01    2.078851e+00
  3.192994e+01    2.014465e+00
  3.194581e+01    1.926338e+00
  3.196169e+01    1.822042e+00
  3.197756e+01    1.706614e+00
  3.199344e+01    1.563048e+00
  3.200931e+01    1.394246e+00
  3.202519e+01    1.323128e+00
  3.204106e+01    1.202328e+00
  3.205694e+01    1.133024e+00
  3.207282e+01    1.108589e+00
  3.208869e+01    1.030477e+00
  3.210457e+01    9.935918e-01
  3.212044e+01    9.884785e-01
  3.213632e+01    9.079244e-01
  3.215219e+01    8.754020e-01
  3.216807e+01    8.616178e-01
  3.218394e+01    8.296952e-01
  3.219982e+01    8.214402e-01
  3.221570e+01    8.444729e-01
  3.223157e+01    8.387158e-01
  3.224745e+01    8.292719e-01
  3.226332e+01    8.249378e-01
  3.227920e+01    8.105415e-01
  3.229507e+01    8.199903e-01
  3.231095e+01    8.117663e-01
  3.232682e+01    8.199401e-01
  3.234270e+01    8.105900e-01
  3.235858e+01    7.718465e-01
  3.237445e+01    8.042462e-01
  3.239033e+01    7.958398e-01
  3.240620e+01    7.922258e-01
  3.242208e+01    7.843987e-01
  3.243795e+01    7.831914e-01
  3.245383e+01    7.898716e-01
  3.246970e+01    7.681668e-01
  3.248558e+01    7.762001e-01
  3.250146e+01    7.695395e-01
  3.251733e+01    7.644097e-01
  3.253321e+01    7.642885e-01
  3.254908e+01    7.585546e-01
