# == pyFAI calibration ==
# Distance Sample to Detector: 0.3999999939076516 m
# PONI: 9.750e-02, 1.135e-01 m
# Rotations: -0.000175 0.000000 -0.000000 rad
# 
# == Fit2d calibration ==
# Distance Sample-beamCenter: 400.000 mm
# Center: x=1514.000, y=1300.000 pix
# Tilt: 0.010 deg  TiltPlanRot: 0.010 deg
# 
# Detector Detector	 Spline= None	 PixelSize= 7.500e-05, 7.500e-05 m
#    Detector has a mask: False 
#    Detector has a dark current: False 
#    detector has a flat field: False 
# 
# Wavelength: 6.888e-11 m
# Mask applied: user provided
# Dark current applied: False
# Flat field applied: False
# Polarization factor: 0.99
# Normalization factor: 1.0
# --> /home/myspot/data/2024_07_Rosario/Ru-CGO-ex/2024-07-27_003_Ru-CGO-ex_Reaction_dwell_000023_data_000097.dat
#       q_nm^-1             I 
  2.003187e-02    0.000000e+00
  3.590745e-02    7.159096e-02
  5.178302e-02    1.237076e-01
  6.765859e-02    2.821131e-01
  8.353417e-02    1.671735e-01
  9.940974e-02    1.223573e-02
  1.152853e-01    3.333306e-02
  1.311609e-01    1.990338e-02
  1.470365e-01    4.021445e-02
  1.629120e-01    9.667832e-02
  1.787876e-01    3.366346e-02
  1.946632e-01    3.305013e-02
  2.105388e-01    2.289613e-02
  2.264143e-01    1.918215e-02
  2.422899e-01    6.294537e-02
  2.581655e-01    6.370624e-02
  2.740411e-01    7.234611e-02
  2.899166e-01    1.015803e-01
  3.057922e-01    4.074092e-02
  3.216678e-01    1.654920e-02
  3.375433e-01    2.635206e-02
  3.534189e-01    2.981986e-02
  3.692945e-01    3.599201e-02
  3.851701e-01    3.206493e-02
  4.010456e-01    2.467430e-02
  4.169212e-01    3.985934e-02
  4.327968e-01    6.120730e-02
  4.486724e-01    4.929603e-02
  4.645479e-01    5.923270e-02
  4.804235e-01    3.578756e-02
  4.962991e-01    4.301232e-02
  5.121747e-01    7.548043e-02
  5.280502e-01    6.654591e-02
  5.439258e-01    5.053397e-02
  5.598014e-01    5.613913e-02
  5.756770e-01    2.626795e-02
  5.915525e-01    2.341025e-02
  6.074281e-01    2.537390e-02
  6.233037e-01    7.848839e-02
  6.391793e-01    9.421259e-02
  6.550548e-01    5.767240e-02
  6.709304e-01    3.581671e-02
  6.868060e-01    4.971660e-02
  7.026815e-01    5.957079e-02
  7.185571e-01    5.234376e-02
  7.344327e-01    5.173757e-02
  7.503083e-01    6.925016e-02
  7.661838e-01    7.222472e-02
  7.820594e-01    1.026935e-01
  7.979350e-01    1.942026e-01
  8.138106e-01    2.450438e-01
  8.296861e-01    2.725062e-01
  8.455617e-01    2.913843e-01
  8.614373e-01    4.219859e-01
  8.773129e-01    4.397850e-01
  8.931884e-01    5.783263e-01
  9.090640e-01    7.524409e-01
  9.249396e-01    8.352247e-01
  9.408152e-01    8.468490e-01
  9.566907e-01    8.633793e-01
  9.725663e-01    1.022518e+00
  9.884419e-01    1.063599e+00
  1.004317e+00    1.099128e+00
  1.020193e+00    1.262182e+00
  1.036069e+00    1.270082e+00
  1.051944e+00    1.330240e+00
  1.067820e+00    1.500602e+00
  1.083695e+00    1.663458e+00
  1.099571e+00    1.606808e+00
  1.115446e+00    1.530770e+00
  1.131322e+00    1.689020e+00
  1.147198e+00    1.792521e+00
  1.163073e+00    1.851417e+00
  1.178949e+00    1.781141e+00
  1.194824e+00    1.902357e+00
  1.210700e+00    2.091253e+00
  1.226575e+00    2.243470e+00
  1.242451e+00    2.349100e+00
  1.258327e+00    2.549813e+00
  1.274202e+00    2.627955e+00
  1.290078e+00    2.578436e+00
  1.305953e+00    2.608824e+00
  1.321829e+00    2.667426e+00
  1.337705e+00    2.615494e+00
  1.353580e+00    2.615589e+00
  1.369456e+00    2.827473e+00
  1.385331e+00    2.758168e+00
  1.401207e+00    2.795254e+00
  1.417082e+00    2.904392e+00
  1.432958e+00    2.792285e+00
  1.448834e+00    2.925061e+00
  1.464709e+00    3.079743e+00
  1.480585e+00    3.061833e+00
  1.496460e+00    3.099469e+00
  1.512336e+00    2.990546e+00
  1.528211e+00    3.050224e+00
  1.544087e+00    3.120178e+00
  1.559963e+00    3.249489e+00
  1.575838e+00    3.312456e+00
  1.591714e+00    3.217798e+00
  1.607589e+00    3.079538e+00
  1.623465e+00    3.207778e+00
  1.639340e+00    3.247866e+00
  1.655216e+00    3.048984e+00
  1.671092e+00    3.098910e+00
  1.686967e+00    2.974155e+00
  1.702843e+00    3.104426e+00
  1.718718e+00    3.144315e+00
  1.734594e+00    3.065126e+00
  1.750469e+00    3.171265e+00
  1.766345e+00    3.040088e+00
  1.782221e+00    2.960745e+00
  1.798096e+00    3.000873e+00
  1.813972e+00    3.079461e+00
  1.829847e+00    3.049635e+00
  1.845723e+00    2.984521e+00
  1.861598e+00    3.068712e+00
  1.877474e+00    2.997326e+00
  1.893350e+00    2.889642e+00
  1.909225e+00    2.972971e+00
  1.925101e+00    2.948062e+00
  1.940976e+00    3.201454e+00
  1.956852e+00    3.182223e+00
  1.972727e+00    3.194400e+00
  1.988603e+00    3.099512e+00
  2.004479e+00    3.186072e+00
  2.020354e+00    3.132400e+00
  2.036230e+00    3.215104e+00
  2.052105e+00    3.146640e+00
  2.067981e+00    3.034182e+00
  2.083856e+00    3.111154e+00
  2.099732e+00    3.181090e+00
  2.115608e+00    3.076857e+00
  2.131483e+00    3.070765e+00
  2.147359e+00    3.118926e+00
  2.163234e+00    3.126000e+00
  2.179110e+00    3.031459e+00
  2.194985e+00    3.275351e+00
  2.210861e+00    3.256560e+00
  2.226737e+00    3.121804e+00
  2.242612e+00    3.090490e+00
  2.258488e+00    3.152250e+00
  2.274363e+00    3.156574e+00
  2.290239e+00    3.144235e+00
  2.306115e+00    3.109395e+00
  2.321990e+00    3.124483e+00
  2.337866e+00    3.197394e+00
  2.353741e+00    3.187196e+00
  2.369617e+00    3.181612e+00
  2.385492e+00    3.168644e+00
  2.401368e+00    3.092651e+00
  2.417244e+00    3.169065e+00
  2.433119e+00    3.182605e+00
  2.448995e+00    3.219719e+00
  2.464870e+00    3.133788e+00
  2.480746e+00    3.201616e+00
  2.496621e+00    3.177481e+00
  2.512497e+00    3.148754e+00
  2.528373e+00    3.235521e+00
  2.544248e+00    3.126234e+00
  2.560124e+00    3.183405e+00
  2.575999e+00    3.210768e+00
  2.591875e+00    3.149957e+00
  2.607750e+00    3.168365e+00
  2.623626e+00    3.115272e+00
  2.639502e+00    3.160241e+00
  2.655377e+00    3.229341e+00
  2.671253e+00    3.198427e+00
  2.687128e+00    3.182948e+00
  2.703004e+00    3.202306e+00
  2.718879e+00    3.234167e+00
  2.734755e+00    3.258870e+00
  2.750631e+00    3.317657e+00
  2.766506e+00    3.294314e+00
  2.782382e+00    3.255637e+00
  2.798257e+00    3.346198e+00
  2.814133e+00    3.412614e+00
  2.830008e+00    3.318226e+00
  2.845884e+00    3.223890e+00
  2.861760e+00    3.241734e+00
  2.877635e+00    3.267545e+00
  2.893511e+00    3.412276e+00
  2.909386e+00    3.320152e+00
  2.925262e+00    3.312452e+00
  2.941137e+00    3.307543e+00
  2.957013e+00    3.317646e+00
  2.972889e+00    3.402783e+00
  2.988764e+00    3.411187e+00
  3.004640e+00    3.358203e+00
  3.020515e+00    3.398067e+00
  3.036391e+00    3.374241e+00
  3.052266e+00    3.320881e+00
  3.068142e+00    3.242636e+00
  3.084018e+00    3.255874e+00
  3.099893e+00    3.310618e+00
  3.115769e+00    3.420062e+00
  3.131644e+00    3.372391e+00
  3.147520e+00    3.263460e+00
  3.163395e+00    3.339040e+00
  3.179271e+00    3.427321e+00
  3.195147e+00    3.426253e+00
  3.211022e+00    3.316776e+00
  3.226898e+00    3.364417e+00
  3.242773e+00    3.482083e+00
  3.258649e+00    3.495462e+00
  3.274525e+00    3.458590e+00
  3.290400e+00    3.397479e+00
  3.306276e+00    3.464079e+00
  3.322151e+00    3.424615e+00
  3.338027e+00    3.421256e+00
  3.353902e+00    3.364422e+00
  3.369778e+00    3.363822e+00
  3.385654e+00    3.349294e+00
  3.401529e+00    3.359677e+00
  3.417405e+00    3.405673e+00
  3.433280e+00    3.413126e+00
  3.449156e+00    3.322656e+00
  3.465031e+00    3.319991e+00
  3.480907e+00    3.431723e+00
  3.496783e+00    3.421900e+00
  3.512658e+00    3.409694e+00
  3.528534e+00    3.412390e+00
  3.544409e+00    3.376603e+00
  3.560285e+00    3.410806e+00
  3.576160e+00    3.327901e+00
  3.592036e+00    3.312450e+00
  3.607912e+00    3.484064e+00
  3.623787e+00    3.473392e+00
  3.639663e+00    3.427758e+00
  3.655538e+00    3.499651e+00
  3.671414e+00    3.518664e+00
  3.687289e+00    3.335066e+00
  3.703165e+00    3.364411e+00
  3.719041e+00    3.471700e+00
  3.734916e+00    3.453500e+00
  3.750792e+00    3.487952e+00
  3.766667e+00    3.419297e+00
  3.782543e+00    3.509920e+00
  3.798418e+00    3.526278e+00
  3.814294e+00    3.547396e+00
  3.830170e+00    3.444629e+00
  3.846045e+00    3.428744e+00
  3.861921e+00    3.519515e+00
  3.877796e+00    3.494239e+00
  3.893672e+00    3.528323e+00
  3.909547e+00    3.537278e+00
  3.925423e+00    3.444938e+00
  3.941299e+00    3.478697e+00
  3.957174e+00    3.548272e+00
  3.973050e+00    3.514993e+00
  3.988925e+00    3.538038e+00
  4.004801e+00    3.514387e+00
  4.020676e+00    3.455913e+00
  4.036552e+00    3.479095e+00
  4.052428e+00    3.482364e+00
  4.068303e+00    3.508539e+00
  4.084179e+00    3.489581e+00
  4.100054e+00    3.597230e+00
  4.115930e+00    3.560153e+00
  4.131806e+00    3.434623e+00
  4.147681e+00    3.492033e+00
  4.163557e+00    3.610240e+00
  4.179432e+00    3.602610e+00
  4.195308e+00    3.556359e+00
  4.211183e+00    3.548840e+00
  4.227059e+00    3.535998e+00
  4.242935e+00    3.528393e+00
  4.258810e+00    3.588731e+00
  4.274686e+00    3.582052e+00
  4.290561e+00    3.601784e+00
  4.306437e+00    3.621191e+00
  4.322312e+00    3.595258e+00
  4.338188e+00    3.520831e+00
  4.354064e+00    3.559471e+00
  4.369939e+00    3.574434e+00
  4.385815e+00    3.604305e+00
  4.401690e+00    3.554933e+00
  4.417566e+00    3.568499e+00
  4.433441e+00    3.577846e+00
  4.449317e+00    3.586102e+00
  4.465193e+00    3.522850e+00
  4.481068e+00    3.525364e+00
  4.496944e+00    3.636468e+00
  4.512819e+00    3.665571e+00
  4.528695e+00    3.662884e+00
  4.544570e+00    3.666197e+00
  4.560446e+00    3.596331e+00
  4.576322e+00    3.568364e+00
  4.592197e+00    3.554938e+00
  4.608073e+00    3.592814e+00
  4.623948e+00    3.645794e+00
  4.639824e+00    3.617194e+00
  4.655699e+00    3.566570e+00
  4.671575e+00    3.567318e+00
  4.687451e+00    3.570845e+00
  4.703326e+00    3.612550e+00
  4.719202e+00    3.682891e+00
  4.735077e+00    3.662210e+00
  4.750953e+00    3.637030e+00
  4.766828e+00    3.694442e+00
  4.782704e+00    3.712368e+00
  4.798580e+00    3.678243e+00
  4.814455e+00    3.618770e+00
  4.830331e+00    3.647905e+00
  4.846206e+00    3.728423e+00
  4.862082e+00    3.660477e+00
  4.877957e+00    3.619145e+00
  4.893833e+00    3.614519e+00
  4.909709e+00    3.620340e+00
  4.925584e+00    3.689137e+00
  4.941460e+00    3.719024e+00
  4.957335e+00    3.646028e+00
  4.973211e+00    3.572793e+00
  4.989086e+00    3.590806e+00
  5.004962e+00    3.670513e+00
  5.020838e+00    3.644559e+00
  5.036713e+00    3.611732e+00
  5.052589e+00    3.635328e+00
  5.068464e+00    3.740153e+00
  5.084340e+00    3.757121e+00
  5.100216e+00    3.687088e+00
  5.116091e+00    3.630974e+00
  5.131967e+00    3.618037e+00
  5.147842e+00    3.654173e+00
  5.163718e+00    3.677945e+00
  5.179593e+00    3.685926e+00
  5.195469e+00    3.651578e+00
  5.211345e+00    3.665099e+00
  5.227220e+00    3.626743e+00
  5.243096e+00    3.696158e+00
  5.258971e+00    3.627501e+00
  5.274847e+00    3.574424e+00
  5.290722e+00    3.635776e+00
  5.306598e+00    3.680449e+00
  5.322474e+00    3.763694e+00
  5.338349e+00    3.666246e+00
  5.354225e+00    3.654000e+00
  5.370100e+00    3.636138e+00
  5.385976e+00    3.612379e+00
  5.401851e+00    3.587186e+00
  5.417727e+00    3.641002e+00
  5.433603e+00    3.681515e+00
  5.449478e+00    3.573264e+00
  5.465354e+00    3.560307e+00
  5.481229e+00    3.500281e+00
  5.497105e+00    3.541335e+00
  5.512980e+00    3.583588e+00
  5.528856e+00    3.668828e+00
  5.544732e+00    3.676742e+00
  5.560607e+00    3.595717e+00
  5.576483e+00    3.554003e+00
  5.592358e+00    3.550670e+00
  5.608234e+00    3.503460e+00
  5.624109e+00    3.528228e+00
  5.639985e+00    3.631289e+00
  5.655861e+00    3.693681e+00
  5.671736e+00    3.597827e+00
  5.687612e+00    3.504682e+00
  5.703487e+00    3.523706e+00
  5.719363e+00    3.539411e+00
  5.735238e+00    3.571749e+00
  5.751114e+00    3.488762e+00
  5.766990e+00    3.514407e+00
  5.782865e+00    3.550360e+00
  5.798741e+00    3.516940e+00
  5.814616e+00    3.411539e+00
  5.830492e+00    3.511763e+00
  5.846367e+00    3.542800e+00
  5.862243e+00    3.471276e+00
  5.878119e+00    3.502155e+00
  5.893994e+00    3.577259e+00
  5.909870e+00    3.505129e+00
  5.925745e+00    3.585402e+00
  5.941621e+00    3.546934e+00
  5.957497e+00    3.514763e+00
  5.973372e+00    3.595427e+00
  5.989248e+00    3.565214e+00
  6.005123e+00    3.573633e+00
  6.020999e+00    3.606956e+00
  6.036874e+00    3.608932e+00
  6.052750e+00    3.532240e+00
  6.068626e+00    3.626398e+00
  6.084501e+00    3.617026e+00
  6.100377e+00    3.639572e+00
  6.116252e+00    3.697966e+00
  6.132128e+00    3.697663e+00
  6.148003e+00    3.616099e+00
  6.163879e+00    3.508546e+00
  6.179755e+00    3.588393e+00
  6.195630e+00    3.509160e+00
  6.211506e+00    3.536579e+00
  6.227381e+00    3.523608e+00
  6.243257e+00    3.594510e+00
  6.259132e+00    3.659903e+00
  6.275008e+00    3.593589e+00
  6.290884e+00    3.581456e+00
  6.306759e+00    3.600112e+00
  6.322635e+00    3.643942e+00
  6.338510e+00    3.543164e+00
  6.354386e+00    3.530825e+00
  6.370261e+00    3.528426e+00
  6.386137e+00    3.503311e+00
  6.402013e+00    3.611631e+00
  6.417888e+00    3.560256e+00
  6.433764e+00    3.587711e+00
  6.449639e+00    3.598378e+00
  6.465515e+00    3.574322e+00
  6.481390e+00    3.569800e+00
  6.497266e+00    3.597855e+00
  6.513142e+00    3.521887e+00
  6.529017e+00    3.474827e+00
  6.544893e+00    3.550081e+00
  6.560768e+00    3.538706e+00
  6.576644e+00    3.558024e+00
  6.592519e+00    3.517886e+00
  6.608395e+00    3.526007e+00
  6.624271e+00    3.528111e+00
  6.640146e+00    3.490776e+00
  6.656022e+00    3.487745e+00
  6.671897e+00    3.574070e+00
  6.687773e+00    3.654799e+00
  6.703648e+00    3.612831e+00
  6.719524e+00    3.560592e+00
  6.735400e+00    3.511431e+00
  6.751275e+00    3.510571e+00
  6.767151e+00    3.540010e+00
  6.783026e+00    3.522482e+00
  6.798902e+00    3.536986e+00
  6.814777e+00    3.548978e+00
  6.830653e+00    3.520570e+00
  6.846529e+00    3.532081e+00
  6.862404e+00    3.543543e+00
  6.878280e+00    3.626110e+00
  6.894155e+00    3.534586e+00
  6.910031e+00    3.473739e+00
  6.925907e+00    3.503425e+00
  6.941782e+00    3.545361e+00
  6.957658e+00    3.540020e+00
  6.973533e+00    3.475426e+00
  6.989409e+00    3.542342e+00
  7.005284e+00    3.489239e+00
  7.021160e+00    3.509891e+00
  7.037036e+00    3.496521e+00
  7.052911e+00    3.452083e+00
  7.068787e+00    3.489312e+00
  7.084662e+00    3.468879e+00
  7.100538e+00    3.551877e+00
  7.116413e+00    3.595002e+00
  7.132289e+00    3.575474e+00
  7.148165e+00    3.561052e+00
  7.164040e+00    3.471886e+00
  7.179916e+00    3.479188e+00
  7.195791e+00    3.511457e+00
  7.211667e+00    3.449633e+00
  7.227542e+00    3.422594e+00
  7.243418e+00    3.452590e+00
  7.259294e+00    3.549431e+00
  7.275169e+00    3.568216e+00
  7.291045e+00    3.519086e+00
  7.306920e+00    3.485702e+00
  7.322796e+00    3.519907e+00
  7.338671e+00    3.516531e+00
  7.354547e+00    3.502799e+00
  7.370423e+00    3.491799e+00
  7.386298e+00    3.502465e+00
  7.402174e+00    3.510793e+00
  7.418049e+00    3.555005e+00
  7.433925e+00    3.493797e+00
  7.449800e+00    3.491978e+00
  7.465676e+00    3.459099e+00
  7.481552e+00    3.459521e+00
  7.497427e+00    3.506527e+00
  7.513303e+00    3.555766e+00
  7.529178e+00    3.498199e+00
  7.545054e+00    3.457581e+00
  7.560929e+00    3.482834e+00
  7.576805e+00    3.522591e+00
  7.592681e+00    3.468475e+00
  7.608556e+00    3.437745e+00
  7.624432e+00    3.460949e+00
  7.640307e+00    3.505015e+00
  7.656183e+00    3.442872e+00
  7.672058e+00    3.484866e+00
  7.687934e+00    3.441247e+00
  7.703810e+00    3.428783e+00
  7.719685e+00    3.452754e+00
  7.735561e+00    3.435368e+00
  7.751436e+00    3.393186e+00
  7.767312e+00    3.390026e+00
  7.783187e+00    3.446513e+00
  7.799063e+00    3.448425e+00
  7.814939e+00    3.431865e+00
  7.830814e+00    3.432676e+00
  7.846690e+00    3.437535e+00
  7.862565e+00    3.421728e+00
  7.878441e+00    3.469249e+00
  7.894317e+00    3.406462e+00
  7.910192e+00    3.380731e+00
  7.926068e+00    3.427173e+00
  7.941943e+00    3.456961e+00
  7.957819e+00    3.432553e+00
  7.973694e+00    3.443691e+00
  7.989570e+00    3.436155e+00
  8.005446e+00    3.474665e+00
  8.021321e+00    3.465728e+00
  8.037197e+00    3.450418e+00
  8.053072e+00    3.364817e+00
  8.068948e+00    3.364295e+00
  8.084823e+00    3.381865e+00
  8.100699e+00    3.390743e+00
  8.116575e+00    3.378098e+00
  8.132450e+00    3.440859e+00
  8.148326e+00    3.463199e+00
  8.164201e+00    3.408291e+00
  8.180077e+00    3.405220e+00
  8.195952e+00    3.457583e+00
  8.211828e+00    3.516611e+00
  8.227704e+00    3.523718e+00
  8.243579e+00    3.461262e+00
  8.259455e+00    3.465433e+00
  8.275330e+00    3.428279e+00
  8.291206e+00    3.434523e+00
  8.307081e+00    3.444934e+00
  8.322957e+00    3.419702e+00
  8.338833e+00    3.393657e+00
  8.354708e+00    3.409694e+00
  8.370584e+00    3.367409e+00
  8.386459e+00    3.403778e+00
  8.402335e+00    3.438896e+00
  8.418210e+00    3.418715e+00
  8.434086e+00    3.399440e+00
  8.449962e+00    3.377511e+00
  8.465837e+00    3.370924e+00
  8.481713e+00    3.380838e+00
  8.497588e+00    3.428473e+00
  8.513464e+00    3.387564e+00
  8.529339e+00    3.363370e+00
  8.545215e+00    3.349319e+00
  8.561091e+00    3.409292e+00
  8.576966e+00    3.345161e+00
  8.592842e+00    3.338092e+00
  8.608717e+00    3.324729e+00
  8.624593e+00    3.348170e+00
  8.640468e+00    3.376181e+00
  8.656344e+00    3.355360e+00
  8.672220e+00    3.330500e+00
  8.688095e+00    3.350431e+00
  8.703971e+00    3.376775e+00
  8.719846e+00    3.357674e+00
  8.735722e+00    3.321281e+00
  8.751598e+00    3.311585e+00
  8.767473e+00    3.314413e+00
  8.783349e+00    3.295780e+00
  8.799224e+00    3.347220e+00
  8.815100e+00    3.379465e+00
  8.830975e+00    3.319847e+00
  8.846851e+00    3.309979e+00
  8.862727e+00    3.360396e+00
  8.878602e+00    3.302239e+00
  8.894478e+00    3.296122e+00
  8.910353e+00    3.345745e+00
  8.926229e+00    3.354199e+00
  8.942104e+00    3.369140e+00
  8.957980e+00    3.290974e+00
  8.973856e+00    3.281134e+00
  8.989731e+00    3.260622e+00
  9.005607e+00    3.248577e+00
  9.021482e+00    3.309890e+00
  9.037358e+00    3.264385e+00
  9.053233e+00    3.304034e+00
  9.069109e+00    3.219949e+00
  9.084985e+00    3.244292e+00
  9.100860e+00    3.247682e+00
  9.116736e+00    3.254726e+00
  9.132611e+00    3.199181e+00
  9.148487e+00    3.224405e+00
  9.164362e+00    3.235935e+00
  9.180238e+00    3.295609e+00
  9.196114e+00    3.285990e+00
  9.211989e+00    3.279757e+00
  9.227865e+00    3.290177e+00
  9.243740e+00    3.317011e+00
  9.259616e+00    3.226490e+00
  9.275491e+00    3.245302e+00
  9.291367e+00    3.226533e+00
  9.307243e+00    3.154398e+00
  9.323118e+00    3.182464e+00
  9.338994e+00    3.197232e+00
  9.354869e+00    3.199059e+00
  9.370745e+00    3.178246e+00
  9.386620e+00    3.205652e+00
  9.402496e+00    3.192588e+00
  9.418372e+00    3.205034e+00
  9.434247e+00    3.187413e+00
  9.450123e+00    3.233279e+00
  9.465998e+00    3.174494e+00
  9.481874e+00    3.171584e+00
  9.497749e+00    3.234666e+00
  9.513625e+00    3.296927e+00
  9.529501e+00    3.211976e+00
  9.545376e+00    3.169969e+00
  9.561252e+00    3.222024e+00
  9.577127e+00    3.260755e+00
  9.593003e+00    3.243632e+00
  9.608878e+00    3.220877e+00
  9.624754e+00    3.167898e+00
  9.640630e+00    3.227071e+00
  9.656505e+00    3.242358e+00
  9.672381e+00    3.181631e+00
  9.688256e+00    3.185442e+00
  9.704132e+00    3.162864e+00
  9.720008e+00    3.224866e+00
  9.735883e+00    3.189804e+00
  9.751759e+00    3.182418e+00
  9.767634e+00    3.167445e+00
  9.783510e+00    3.194131e+00
  9.799385e+00    3.156116e+00
  9.815261e+00    3.121248e+00
  9.831137e+00    3.125500e+00
  9.847012e+00    3.172338e+00
  9.862888e+00    3.162868e+00
  9.878763e+00    3.125778e+00
  9.894639e+00    3.105095e+00
  9.910514e+00    3.103127e+00
  9.926390e+00    3.110821e+00
  9.942266e+00    3.156388e+00
  9.958141e+00    3.176067e+00
  9.974017e+00    3.160841e+00
  9.989892e+00    3.114983e+00
  1.000577e+01    3.084750e+00
  1.002164e+01    3.094015e+00
  1.003752e+01    3.086464e+00
  1.005339e+01    3.060103e+00
  1.006927e+01    3.090006e+00
  1.008515e+01    3.102634e+00
  1.010102e+01    3.072699e+00
  1.011690e+01    3.055824e+00
  1.013277e+01    3.105665e+00
  1.014865e+01    3.132163e+00
  1.016452e+01    3.087486e+00
  1.018040e+01    3.052519e+00
  1.019627e+01    3.070914e+00
  1.021215e+01    3.077028e+00
  1.022803e+01    3.084254e+00
  1.024390e+01    3.010247e+00
  1.025978e+01    3.048003e+00
  1.027565e+01    3.083014e+00
  1.029153e+01    3.030257e+00
  1.030740e+01    3.055725e+00
  1.032328e+01    3.049479e+00
  1.033915e+01    3.104799e+00
  1.035503e+01    3.020412e+00
  1.037091e+01    3.083220e+00
  1.038678e+01    3.069290e+00
  1.040266e+01    3.097324e+00
  1.041853e+01    3.071195e+00
  1.043441e+01    3.021860e+00
  1.045028e+01    3.057799e+00
  1.046616e+01    3.055146e+00
  1.048204e+01    3.008148e+00
  1.049791e+01    3.007870e+00
  1.051379e+01    3.002247e+00
  1.052966e+01    3.015313e+00
  1.054554e+01    3.020183e+00
  1.056141e+01    3.061506e+00
  1.057729e+01    3.014796e+00
  1.059316e+01    2.982845e+00
  1.060904e+01    2.991874e+00
  1.062492e+01    2.961012e+00
  1.064079e+01    2.976526e+00
  1.065667e+01    2.995087e+00
  1.067254e+01    2.979995e+00
  1.068842e+01    2.999204e+00
  1.070429e+01    2.983993e+00
  1.072017e+01    3.005492e+00
  1.073604e+01    2.950730e+00
  1.075192e+01    2.968372e+00
  1.076780e+01    3.033550e+00
  1.078367e+01    2.980592e+00
  1.079955e+01    2.914845e+00
  1.081542e+01    2.900558e+00
  1.083130e+01    2.908069e+00
  1.084717e+01    2.945575e+00
  1.086305e+01    2.938637e+00
  1.087892e+01    2.939784e+00
  1.089480e+01    2.937119e+00
  1.091068e+01    2.941722e+00
  1.092655e+01    2.923131e+00
  1.094243e+01    2.949753e+00
  1.095830e+01    2.927374e+00
  1.097418e+01    2.906322e+00
  1.099005e+01    2.908378e+00
  1.100593e+01    2.910053e+00
  1.102180e+01    2.946001e+00
  1.103768e+01    2.880813e+00
  1.105356e+01    2.874411e+00
  1.106943e+01    2.848074e+00
  1.108531e+01    2.840300e+00
  1.110118e+01    2.888518e+00
  1.111706e+01    2.887166e+00
  1.113293e+01    2.814608e+00
  1.114881e+01    2.902945e+00
  1.116468e+01    2.889396e+00
  1.118056e+01    2.852538e+00
  1.119644e+01    2.864149e+00
  1.121231e+01    2.855358e+00
  1.122819e+01    2.900974e+00
  1.124406e+01    2.854447e+00
  1.125994e+01    2.838528e+00
  1.127581e+01    2.844297e+00
  1.129169e+01    2.825804e+00
  1.130756e+01    2.823816e+00
  1.132344e+01    2.825088e+00
  1.133932e+01    2.800656e+00
  1.135519e+01    2.840331e+00
  1.137107e+01    2.822827e+00
  1.138694e+01    2.803753e+00
  1.140282e+01    2.805927e+00
  1.141869e+01    2.806096e+00
  1.143457e+01    2.779577e+00
  1.145045e+01    2.789226e+00
  1.146632e+01    2.790532e+00
  1.148220e+01    2.799672e+00
  1.149807e+01    2.764856e+00
  1.151395e+01    2.805629e+00
  1.152982e+01    2.799841e+00
  1.154570e+01    2.796044e+00
  1.156157e+01    2.801487e+00
  1.157745e+01    2.780895e+00
  1.159333e+01    2.758949e+00
  1.160920e+01    2.813422e+00
  1.162508e+01    2.790278e+00
  1.164095e+01    2.794828e+00
  1.165683e+01    2.813497e+00
  1.167270e+01    2.752662e+00
  1.168858e+01    2.752724e+00
  1.170445e+01    2.761271e+00
  1.172033e+01    2.788200e+00
  1.173621e+01    2.765933e+00
  1.175208e+01    2.744496e+00
  1.176796e+01    2.694138e+00
  1.178383e+01    2.712815e+00
  1.179971e+01    2.765661e+00
  1.181558e+01    2.749137e+00
  1.183146e+01    2.706934e+00
  1.184733e+01    2.752607e+00
  1.186321e+01    2.759457e+00
  1.187909e+01    2.687058e+00
  1.189496e+01    2.746304e+00
  1.191084e+01    2.725333e+00
  1.192671e+01    2.708284e+00
  1.194259e+01    2.780005e+00
  1.195846e+01    2.764153e+00
  1.197434e+01    2.753428e+00
  1.199021e+01    2.756652e+00
  1.200609e+01    2.734859e+00
  1.202197e+01    2.711399e+00
  1.203784e+01    2.661515e+00
  1.205372e+01    2.672134e+00
  1.206959e+01    2.676233e+00
  1.208547e+01    2.727993e+00
  1.210134e+01    2.731734e+00
  1.211722e+01    2.703940e+00
  1.213309e+01    2.668425e+00
  1.214897e+01    2.690804e+00
  1.216485e+01    2.724371e+00
  1.218072e+01    2.691648e+00
  1.219660e+01    2.669119e+00
  1.221247e+01    2.664704e+00
  1.222835e+01    2.663620e+00
  1.224422e+01    2.683278e+00
  1.226010e+01    2.695838e+00
  1.227597e+01    2.697543e+00
  1.229185e+01    2.696945e+00
  1.230773e+01    2.687248e+00
  1.232360e+01    2.664708e+00
  1.233948e+01    2.684171e+00
  1.235535e+01    2.633930e+00
  1.237123e+01    2.699870e+00
  1.238710e+01    2.762048e+00
  1.240298e+01    2.764191e+00
  1.241886e+01    2.757366e+00
  1.243473e+01    2.736279e+00
  1.245061e+01    2.717976e+00
  1.246648e+01    2.733773e+00
  1.248236e+01    2.738847e+00
  1.249823e+01    2.718361e+00
  1.251411e+01    2.714486e+00
  1.252998e+01    2.707061e+00
  1.254586e+01    2.699850e+00
  1.256174e+01    2.730513e+00
  1.257761e+01    2.731876e+00
  1.259349e+01    2.719061e+00
  1.260936e+01    2.730464e+00
  1.262524e+01    2.699062e+00
  1.264111e+01    2.754139e+00
  1.265699e+01    2.824775e+00
  1.267286e+01    2.840652e+00
  1.268874e+01    2.840596e+00
  1.270462e+01    2.819907e+00
  1.272049e+01    2.858988e+00
  1.273637e+01    2.854365e+00
  1.275224e+01    2.953515e+00
  1.276812e+01    2.922781e+00
  1.278399e+01    2.957263e+00
  1.279987e+01    2.987313e+00
  1.281574e+01    3.021467e+00
  1.283162e+01    3.039873e+00
  1.284750e+01    3.169752e+00
  1.286337e+01    3.307670e+00
  1.287925e+01    3.390307e+00
  1.289512e+01    3.511705e+00
  1.291100e+01    3.649497e+00
  1.292687e+01    3.839391e+00
  1.294275e+01    4.122262e+00
  1.295862e+01    4.434525e+00
  1.297450e+01    4.804368e+00
  1.299038e+01    5.259268e+00
  1.300625e+01    5.929975e+00
  1.302213e+01    6.671929e+00
  1.303800e+01    7.663908e+00
  1.305388e+01    8.895701e+00
  1.306975e+01    1.016903e+01
  1.308563e+01    1.149492e+01
  1.310150e+01    1.262663e+01
  1.311738e+01    1.375274e+01
  1.313326e+01    1.487297e+01
  1.314913e+01    1.568091e+01
  1.316501e+01    1.627180e+01
  1.318088e+01    1.640314e+01
  1.319676e+01    1.575173e+01
  1.321263e+01    1.435831e+01
  1.322851e+01    1.247185e+01
  1.324438e+01    1.075721e+01
  1.326026e+01    9.126419e+00
  1.327614e+01    7.763594e+00
  1.329201e+01    6.826154e+00
  1.330789e+01    5.971434e+00
  1.332376e+01    5.338766e+00
  1.333964e+01    4.800982e+00
  1.335551e+01    4.424179e+00
  1.337139e+01    4.128471e+00
  1.338727e+01    3.911879e+00
  1.340314e+01    3.709083e+00
  1.341902e+01    3.511953e+00
  1.343489e+01    3.385189e+00
  1.345077e+01    3.225638e+00
  1.346664e+01    3.123003e+00
  1.348252e+01    3.112116e+00
  1.349839e+01    3.025192e+00
  1.351427e+01    2.913965e+00
  1.353015e+01    2.887499e+00
  1.354602e+01    2.871652e+00
  1.356190e+01    2.820395e+00
  1.357777e+01    2.737894e+00
  1.359365e+01    2.724267e+00
  1.360952e+01    2.661724e+00
  1.362540e+01    2.598711e+00
  1.364127e+01    2.604253e+00
  1.365715e+01    2.577932e+00
  1.367303e+01    2.594215e+00
  1.368890e+01    2.621751e+00
  1.370478e+01    2.521921e+00
  1.372065e+01    2.512123e+00
  1.373653e+01    2.518635e+00
  1.375240e+01    2.492671e+00
  1.376828e+01    2.491802e+00
  1.378415e+01    2.482011e+00
  1.380003e+01    2.458005e+00
  1.381591e+01    2.450083e+00
  1.383178e+01    2.464900e+00
  1.384766e+01    2.455820e+00
  1.386353e+01    2.471187e+00
  1.387941e+01    2.434949e+00
  1.389528e+01    2.454762e+00
  1.391116e+01    2.405342e+00
  1.392703e+01    2.381120e+00
  1.394291e+01    2.373034e+00
  1.395879e+01    2.360087e+00
  1.397466e+01    2.352017e+00
  1.399054e+01    2.370458e+00
  1.400641e+01    2.362623e+00
  1.402229e+01    2.378581e+00
  1.403816e+01    2.388173e+00
  1.405404e+01    2.396520e+00
  1.406991e+01    2.346424e+00
  1.408579e+01    2.346149e+00
  1.410167e+01    2.347075e+00
  1.411754e+01    2.329484e+00
  1.413342e+01    2.335454e+00
  1.414929e+01    2.309735e+00
  1.416517e+01    2.279525e+00
  1.418104e+01    2.250771e+00
  1.419692e+01    2.295755e+00
  1.421279e+01    2.311979e+00
  1.422867e+01    2.307954e+00
  1.424455e+01    2.344230e+00
  1.426042e+01    2.304754e+00
  1.427630e+01    2.298635e+00
  1.429217e+01    2.295958e+00
  1.430805e+01    2.245141e+00
  1.432392e+01    2.260012e+00
  1.433980e+01    2.270954e+00
  1.435568e+01    2.295212e+00
  1.437155e+01    2.290472e+00
  1.438743e+01    2.272967e+00
  1.440330e+01    2.264063e+00
  1.441918e+01    2.262473e+00
  1.443505e+01    2.214438e+00
  1.445093e+01    2.178235e+00
  1.446680e+01    2.197351e+00
  1.448268e+01    2.210911e+00
  1.449856e+01    2.209258e+00
  1.451443e+01    2.218114e+00
  1.453031e+01    2.221494e+00
  1.454618e+01    2.228323e+00
  1.456206e+01    2.235834e+00
  1.457793e+01    2.213067e+00
  1.459381e+01    2.233736e+00
  1.460968e+01    2.271330e+00
  1.462556e+01    2.241279e+00
  1.464144e+01    2.234885e+00
  1.465731e+01    2.183871e+00
  1.467319e+01    2.195366e+00
  1.468906e+01    2.210675e+00
  1.470494e+01    2.210555e+00
  1.472081e+01    2.185103e+00
  1.473669e+01    2.202378e+00
  1.475256e+01    2.217209e+00
  1.476844e+01    2.198525e+00
  1.478432e+01    2.199053e+00
  1.480019e+01    2.216429e+00
  1.481607e+01    2.194185e+00
  1.483194e+01    2.198442e+00
  1.484782e+01    2.223055e+00
  1.486369e+01    2.252717e+00
  1.487957e+01    2.268308e+00
  1.489544e+01    2.262857e+00
  1.491132e+01    2.228031e+00
  1.492720e+01    2.254773e+00
  1.494307e+01    2.268525e+00
  1.495895e+01    2.258443e+00
  1.497482e+01    2.292120e+00
  1.499070e+01    2.389292e+00
  1.500657e+01    2.436560e+00
  1.502245e+01    2.493222e+00
  1.503832e+01    2.561751e+00
  1.505420e+01    2.678717e+00
  1.507008e+01    2.751122e+00
  1.508595e+01    2.966743e+00
  1.510183e+01    3.160168e+00
  1.511770e+01    3.436120e+00
  1.513358e+01    3.745819e+00
  1.514945e+01    4.146112e+00
  1.516533e+01    4.542501e+00
  1.518120e+01    4.868895e+00
  1.519708e+01    5.160890e+00
  1.521296e+01    5.398648e+00
  1.522883e+01    5.579682e+00
  1.524471e+01    5.650397e+00
  1.526058e+01    5.749715e+00
  1.527646e+01    5.731192e+00
  1.529233e+01    5.503708e+00
  1.530821e+01    5.088977e+00
  1.532409e+01    4.621590e+00
  1.533996e+01    4.184523e+00
  1.535584e+01    3.747020e+00
  1.537171e+01    3.421000e+00
  1.538759e+01    3.189038e+00
  1.540346e+01    2.938082e+00
  1.541934e+01    2.787136e+00
  1.543521e+01    2.641229e+00
  1.545109e+01    2.493011e+00
  1.546697e+01    2.416426e+00
  1.548284e+01    2.347833e+00
  1.549872e+01    2.268698e+00
  1.551459e+01    2.248401e+00
  1.553047e+01    2.198307e+00
  1.554634e+01    2.177485e+00
  1.556222e+01    2.158653e+00
  1.557809e+01    2.108045e+00
  1.559397e+01    2.090667e+00
  1.560985e+01    2.050539e+00
  1.562572e+01    2.077700e+00
  1.564160e+01    2.081497e+00
  1.565747e+01    2.058610e+00
  1.567335e+01    2.021083e+00
  1.568922e+01    1.987304e+00
  1.570510e+01    1.960825e+00
  1.572097e+01    1.965528e+00
  1.573685e+01    1.972675e+00
  1.575273e+01    1.954443e+00
  1.576860e+01    1.958381e+00
  1.578448e+01    1.975977e+00
  1.580035e+01    1.937131e+00
  1.581623e+01    1.878698e+00
  1.583210e+01    1.919397e+00
  1.584798e+01    1.895496e+00
  1.586385e+01    1.894323e+00
  1.587973e+01    1.888283e+00
  1.589561e+01    1.869759e+00
  1.591148e+01    1.882923e+00
  1.592736e+01    1.891425e+00
  1.594323e+01    1.897779e+00
  1.595911e+01    1.928184e+00
  1.597498e+01    1.919090e+00
  1.599086e+01    1.889802e+00
  1.600673e+01    1.871072e+00
  1.602261e+01    1.869694e+00
  1.603849e+01    1.841130e+00
  1.605436e+01    1.839901e+00
  1.607024e+01    1.884451e+00
  1.608611e+01    1.850147e+00
  1.610199e+01    1.829071e+00
  1.611786e+01    1.828724e+00
  1.613374e+01    1.829969e+00
  1.614961e+01    1.830831e+00
  1.616549e+01    1.844134e+00
  1.618137e+01    1.872399e+00
  1.619724e+01    1.823893e+00
  1.621312e+01    1.790423e+00
  1.622899e+01    1.805268e+00
  1.624487e+01    1.829458e+00
  1.626074e+01    1.816089e+00
  1.627662e+01    1.807068e+00
  1.629250e+01    1.793810e+00
  1.630837e+01    1.785863e+00
  1.632425e+01    1.763812e+00
  1.634012e+01    1.740359e+00
  1.635600e+01    1.761500e+00
  1.637187e+01    1.766774e+00
  1.638775e+01    1.749592e+00
  1.640362e+01    1.767481e+00
  1.641950e+01    1.768702e+00
  1.643538e+01    1.762161e+00
  1.645125e+01    1.778058e+00
  1.646713e+01    1.769621e+00
  1.648300e+01    1.765167e+00
  1.649888e+01    1.741291e+00
  1.651475e+01    1.754026e+00
  1.653063e+01    1.754294e+00
  1.654650e+01    1.733476e+00
  1.656238e+01    1.731713e+00
  1.657826e+01    1.748134e+00
  1.659413e+01    1.715490e+00
  1.661001e+01    1.713795e+00
  1.662588e+01    1.725165e+00
  1.664176e+01    1.723607e+00
  1.665763e+01    1.723099e+00
  1.667351e+01    1.698446e+00
  1.668938e+01    1.722402e+00
  1.670526e+01    1.716747e+00
  1.672114e+01    1.715327e+00
  1.673701e+01    1.728397e+00
  1.675289e+01    1.723256e+00
  1.676876e+01    1.707722e+00
  1.678464e+01    1.723571e+00
  1.680051e+01    1.724851e+00
  1.681639e+01    1.713232e+00
  1.683226e+01    1.693497e+00
  1.684814e+01    1.680514e+00
  1.686402e+01    1.684236e+00
  1.687989e+01    1.708833e+00
  1.689577e+01    1.681550e+00
  1.691164e+01    1.712096e+00
  1.692752e+01    1.680853e+00
  1.694339e+01    1.686190e+00
  1.695927e+01    1.656691e+00
  1.697514e+01    1.663177e+00
  1.699102e+01    1.700931e+00
  1.700690e+01    1.700360e+00
  1.702277e+01    1.661140e+00
  1.703865e+01    1.644028e+00
  1.705452e+01    1.656293e+00
  1.707040e+01    1.663337e+00
  1.708627e+01    1.659833e+00
  1.710215e+01    1.671902e+00
  1.711802e+01    1.630797e+00
  1.713390e+01    1.644619e+00
  1.714978e+01    1.654332e+00
  1.716565e+01    1.662352e+00
  1.718153e+01    1.641953e+00
  1.719740e+01    1.625446e+00
  1.721328e+01    1.632009e+00
  1.722915e+01    1.646508e+00
  1.724503e+01    1.631195e+00
  1.726091e+01    1.596176e+00
  1.727678e+01    1.628741e+00
  1.729266e+01    1.622866e+00
  1.730853e+01    1.604257e+00
  1.732441e+01    1.603292e+00
  1.734028e+01    1.600330e+00
  1.735616e+01    1.606518e+00
  1.737203e+01    1.639048e+00
  1.738791e+01    1.618135e+00
  1.740379e+01    1.603070e+00
  1.741966e+01    1.595480e+00
  1.743554e+01    1.597309e+00
  1.745141e+01    1.632618e+00
  1.746729e+01    1.596234e+00
  1.748316e+01    1.580625e+00
  1.749904e+01    1.583718e+00
  1.751491e+01    1.606053e+00
  1.753079e+01    1.587784e+00
  1.754667e+01    1.569124e+00
  1.756254e+01    1.562210e+00
  1.757842e+01    1.593758e+00
  1.759429e+01    1.596747e+00
  1.761017e+01    1.582122e+00
  1.762604e+01    1.540858e+00
  1.764192e+01    1.547104e+00
  1.765779e+01    1.595526e+00
  1.767367e+01    1.573763e+00
  1.768955e+01    1.548093e+00
  1.770542e+01    1.548559e+00
  1.772130e+01    1.539497e+00
  1.773717e+01    1.539707e+00
  1.775305e+01    1.534754e+00
  1.776892e+01    1.555576e+00
  1.778480e+01    1.539997e+00
  1.780067e+01    1.527564e+00
  1.781655e+01    1.541118e+00
  1.783243e+01    1.548981e+00
  1.784830e+01    1.558817e+00
  1.786418e+01    1.544414e+00
  1.788005e+01    1.510617e+00
  1.789593e+01    1.497839e+00
  1.791180e+01    1.496697e+00
  1.792768e+01    1.513606e+00
  1.794355e+01    1.521291e+00
  1.795943e+01    1.502150e+00
  1.797531e+01    1.467042e+00
  1.799118e+01    1.520447e+00
  1.800706e+01    1.532315e+00
  1.802293e+01    1.539809e+00
  1.803881e+01    1.491121e+00
  1.805468e+01    1.476413e+00
  1.807056e+01    1.484419e+00
  1.808643e+01    1.517131e+00
  1.810231e+01    1.512253e+00
  1.811819e+01    1.507716e+00
  1.813406e+01    1.497522e+00
  1.814994e+01    1.499557e+00
  1.816581e+01    1.484715e+00
  1.818169e+01    1.455684e+00
  1.819756e+01    1.481439e+00
  1.821344e+01    1.482694e+00
  1.822932e+01    1.463509e+00
  1.824519e+01    1.483473e+00
  1.826107e+01    1.461303e+00
  1.827694e+01    1.468547e+00
  1.829282e+01    1.500649e+00
  1.830869e+01    1.448975e+00
  1.832457e+01    1.445834e+00
  1.834044e+01    1.479138e+00
  1.835632e+01    1.463174e+00
  1.837220e+01    1.484668e+00
  1.838807e+01    1.469814e+00
  1.840395e+01    1.460709e+00
  1.841982e+01    1.450204e+00
  1.843570e+01    1.458300e+00
  1.845157e+01    1.471665e+00
  1.846745e+01    1.433548e+00
  1.848332e+01    1.444288e+00
  1.849920e+01    1.447102e+00
  1.851508e+01    1.458139e+00
  1.853095e+01    1.427323e+00
  1.854683e+01    1.427959e+00
  1.856270e+01    1.451252e+00
  1.857858e+01    1.434141e+00
  1.859445e+01    1.428086e+00
  1.861033e+01    1.445938e+00
  1.862620e+01    1.457336e+00
  1.864208e+01    1.443887e+00
  1.865796e+01    1.417997e+00
  1.867383e+01    1.422014e+00
  1.868971e+01    1.416608e+00
  1.870558e+01    1.403588e+00
  1.872146e+01    1.404929e+00
  1.873733e+01    1.415048e+00
  1.875321e+01    1.399961e+00
  1.876908e+01    1.416425e+00
  1.878496e+01    1.451446e+00
  1.880084e+01    1.435858e+00
  1.881671e+01    1.400405e+00
  1.883259e+01    1.420672e+00
  1.884846e+01    1.437445e+00
  1.886434e+01    1.381714e+00
  1.888021e+01    1.396141e+00
  1.889609e+01    1.405888e+00
  1.891196e+01    1.408081e+00
  1.892784e+01    1.405613e+00
  1.894372e+01    1.390636e+00
  1.895959e+01    1.393928e+00
  1.897547e+01    1.408095e+00
  1.899134e+01    1.384597e+00
  1.900722e+01    1.395836e+00
  1.902309e+01    1.373491e+00
  1.903897e+01    1.378767e+00
  1.905484e+01    1.372472e+00
  1.907072e+01    1.360806e+00
  1.908660e+01    1.369140e+00
  1.910247e+01    1.395950e+00
  1.911835e+01    1.351289e+00
  1.913422e+01    1.341073e+00
  1.915010e+01    1.346976e+00
  1.916597e+01    1.371546e+00
  1.918185e+01    1.406819e+00
  1.919773e+01    1.375267e+00
  1.921360e+01    1.371236e+00
  1.922948e+01    1.347834e+00
  1.924535e+01    1.319415e+00
  1.926123e+01    1.345035e+00
  1.927710e+01    1.364193e+00
  1.929298e+01    1.341414e+00
  1.930885e+01    1.367540e+00
  1.932473e+01    1.385831e+00
  1.934061e+01    1.318600e+00
  1.935648e+01    1.318479e+00
  1.937236e+01    1.341294e+00
  1.938823e+01    1.362926e+00
  1.940411e+01    1.370601e+00
  1.941998e+01    1.374243e+00
  1.943586e+01    1.360825e+00
  1.945173e+01    1.325078e+00
  1.946761e+01    1.324724e+00
  1.948349e+01    1.345783e+00
  1.949936e+01    1.342277e+00
  1.951524e+01    1.340552e+00
  1.953111e+01    1.336657e+00
  1.954699e+01    1.340048e+00
  1.956286e+01    1.341514e+00
  1.957874e+01    1.334471e+00
  1.959461e+01    1.329044e+00
  1.961049e+01    1.342986e+00
  1.962637e+01    1.314486e+00
  1.964224e+01    1.310994e+00
  1.965812e+01    1.305644e+00
  1.967399e+01    1.290307e+00
  1.968987e+01    1.321777e+00
  1.970574e+01    1.287945e+00
  1.972162e+01    1.291998e+00
  1.973749e+01    1.307146e+00
  1.975337e+01    1.308874e+00
  1.976925e+01    1.305711e+00
  1.978512e+01    1.300622e+00
  1.980100e+01    1.300213e+00
  1.981687e+01    1.288194e+00
  1.983275e+01    1.288888e+00
  1.984862e+01    1.302029e+00
  1.986450e+01    1.317166e+00
  1.988037e+01    1.293615e+00
  1.989625e+01    1.266031e+00
  1.991213e+01    1.265465e+00
  1.992800e+01    1.308935e+00
  1.994388e+01    1.288255e+00
  1.995975e+01    1.299802e+00
  1.997563e+01    1.275484e+00
  1.999150e+01    1.285502e+00
  2.000738e+01    1.285118e+00
  2.002325e+01    1.282159e+00
  2.003913e+01    1.306884e+00
  2.005501e+01    1.285525e+00
  2.007088e+01    1.246652e+00
  2.008676e+01    1.281633e+00
  2.010263e+01    1.268178e+00
  2.011851e+01    1.275809e+00
  2.013438e+01    1.248012e+00
  2.015026e+01    1.245699e+00
  2.016614e+01    1.246568e+00
  2.018201e+01    1.269548e+00
  2.019789e+01    1.241850e+00
  2.021376e+01    1.244774e+00
  2.022964e+01    1.245197e+00
  2.024551e+01    1.257688e+00
  2.026139e+01    1.256936e+00
  2.027726e+01    1.247346e+00
  2.029314e+01    1.258628e+00
  2.030902e+01    1.258015e+00
  2.032489e+01    1.245006e+00
  2.034077e+01    1.253278e+00
  2.035664e+01    1.257304e+00
  2.037252e+01    1.236163e+00
  2.038839e+01    1.238497e+00
  2.040427e+01    1.242965e+00
  2.042014e+01    1.242908e+00
  2.043602e+01    1.242554e+00
  2.045190e+01    1.237350e+00
  2.046777e+01    1.237879e+00
  2.048365e+01    1.236174e+00
  2.049952e+01    1.257369e+00
  2.051540e+01    1.238960e+00
  2.053127e+01    1.255789e+00
  2.054715e+01    1.245416e+00
  2.056302e+01    1.244567e+00
  2.057890e+01    1.245604e+00
  2.059478e+01    1.252130e+00
  2.061065e+01    1.251107e+00
  2.062653e+01    1.239050e+00
  2.064240e+01    1.258362e+00
  2.065828e+01    1.231565e+00
  2.067415e+01    1.222836e+00
  2.069003e+01    1.229758e+00
  2.070590e+01    1.223989e+00
  2.072178e+01    1.217422e+00
  2.073766e+01    1.230504e+00
  2.075353e+01    1.220347e+00
  2.076941e+01    1.227496e+00
  2.078528e+01    1.218890e+00
  2.080116e+01    1.219292e+00
  2.081703e+01    1.228566e+00
  2.083291e+01    1.231712e+00
  2.084878e+01    1.228259e+00
  2.086466e+01    1.239911e+00
  2.088054e+01    1.276025e+00
  2.089641e+01    1.255750e+00
  2.091229e+01    1.218469e+00
  2.092816e+01    1.200282e+00
  2.094404e+01    1.213482e+00
  2.095991e+01    1.230739e+00
  2.097579e+01    1.249775e+00
  2.099166e+01    1.251067e+00
  2.100754e+01    1.208263e+00
  2.102342e+01    1.213048e+00
  2.103929e+01    1.207288e+00
  2.105517e+01    1.204539e+00
  2.107104e+01    1.228015e+00
  2.108692e+01    1.228730e+00
  2.110279e+01    1.219552e+00
  2.111867e+01    1.226012e+00
  2.113455e+01    1.240868e+00
  2.115042e+01    1.243345e+00
  2.116630e+01    1.238302e+00
  2.118217e+01    1.245640e+00
  2.119805e+01    1.212852e+00
  2.121392e+01    1.239428e+00
  2.122980e+01    1.252057e+00
  2.124567e+01    1.243960e+00
  2.126155e+01    1.238618e+00
  2.127743e+01    1.259286e+00
  2.129330e+01    1.245936e+00
  2.130918e+01    1.259702e+00
  2.132505e+01    1.290212e+00
  2.134093e+01    1.295518e+00
  2.135680e+01    1.286080e+00
  2.137268e+01    1.289979e+00
  2.138855e+01    1.321231e+00
  2.140443e+01    1.306392e+00
  2.142031e+01    1.306686e+00
  2.143618e+01    1.339814e+00
  2.145206e+01    1.363885e+00
  2.146793e+01    1.365993e+00
  2.148381e+01    1.402035e+00
  2.149968e+01    1.421867e+00
  2.151556e+01    1.427549e+00
  2.153143e+01    1.457106e+00
  2.154731e+01    1.491170e+00
  2.156319e+01    1.558659e+00
  2.157906e+01    1.638516e+00
  2.159494e+01    1.689390e+00
  2.161081e+01    1.760896e+00
  2.162669e+01    1.862969e+00
  2.164256e+01    1.963440e+00
  2.165844e+01    2.113580e+00
  2.167431e+01    2.301070e+00
  2.169019e+01    2.547548e+00
  2.170607e+01    2.777298e+00
  2.172194e+01    3.101609e+00
  2.173782e+01    3.518370e+00
  2.175369e+01    3.969855e+00
  2.176957e+01    4.521098e+00
  2.178544e+01    5.195843e+00
  2.180132e+01    5.852143e+00
  2.181719e+01    6.480778e+00
  2.183307e+01    7.131094e+00
  2.184895e+01    7.706773e+00
  2.186482e+01    8.290967e+00
  2.188070e+01    8.685664e+00
  2.189657e+01    8.912533e+00
  2.191245e+01    8.704977e+00
  2.192832e+01    8.242478e+00
  2.194420e+01    7.495510e+00
  2.196007e+01    6.621106e+00
  2.197595e+01    5.740639e+00
  2.199183e+01    4.899150e+00
  2.200770e+01    4.212243e+00
  2.202358e+01    3.650496e+00
  2.203945e+01    3.242792e+00
  2.205533e+01    2.854826e+00
  2.207120e+01    2.564982e+00
  2.208708e+01    2.323895e+00
  2.210296e+01    2.133198e+00
  2.211883e+01    2.025744e+00
  2.213471e+01    1.907078e+00
  2.215058e+01    1.766526e+00
  2.216646e+01    1.665448e+00
  2.218233e+01    1.591802e+00
  2.219821e+01    1.541716e+00
  2.221408e+01    1.477894e+00
  2.222996e+01    1.440923e+00
  2.224584e+01    1.413267e+00
  2.226171e+01    1.381755e+00
  2.227759e+01    1.332006e+00
  2.229346e+01    1.327120e+00
  2.230934e+01    1.282635e+00
  2.232521e+01    1.252059e+00
  2.234109e+01    1.246300e+00
  2.235696e+01    1.268450e+00
  2.237284e+01    1.246819e+00
  2.238872e+01    1.231779e+00
  2.240459e+01    1.212593e+00
  2.242047e+01    1.213312e+00
  2.243634e+01    1.189426e+00
  2.245222e+01    1.189649e+00
  2.246809e+01    1.173851e+00
  2.248397e+01    1.157148e+00
  2.249984e+01    1.151837e+00
  2.251572e+01    1.141497e+00
  2.253160e+01    1.112395e+00
  2.254747e+01    1.129283e+00
  2.256335e+01    1.151235e+00
  2.257922e+01    1.141391e+00
  2.259510e+01    1.111317e+00
  2.261097e+01    1.101565e+00
  2.262685e+01    1.124529e+00
  2.264272e+01    1.084929e+00
  2.265860e+01    1.101889e+00
  2.267448e+01    1.059490e+00
  2.269035e+01    1.086745e+00
  2.270623e+01    1.089566e+00
  2.272210e+01    1.091924e+00
  2.273798e+01    1.073008e+00
  2.275385e+01    1.066471e+00
  2.276973e+01    1.070719e+00
  2.278560e+01    1.100233e+00
  2.280148e+01    1.075868e+00
  2.281736e+01    1.076245e+00
  2.283323e+01    1.068522e+00
  2.284911e+01    1.048532e+00
  2.286498e+01    1.029796e+00
  2.288086e+01    1.033243e+00
  2.289673e+01    1.040599e+00
  2.291261e+01    1.054439e+00
  2.292848e+01    1.033640e+00
  2.294436e+01    1.054309e+00
  2.296024e+01    1.035834e+00
  2.297611e+01    1.018188e+00
  2.299199e+01    1.018555e+00
  2.300786e+01    1.016707e+00
  2.302374e+01    1.029400e+00
  2.303961e+01    1.019064e+00
  2.305549e+01    1.011175e+00
  2.307137e+01    1.007801e+00
  2.308724e+01    9.960012e-01
  2.310312e+01    9.788626e-01
  2.311899e+01    9.944395e-01
  2.313487e+01    1.014304e+00
  2.315074e+01    1.016367e+00
  2.316662e+01    9.883693e-01
  2.318249e+01    9.754017e-01
  2.319837e+01    9.794651e-01
  2.321425e+01    1.007216e+00
  2.323012e+01    9.979276e-01
  2.324600e+01    9.981718e-01
  2.326187e+01    9.897673e-01
  2.327775e+01    9.908746e-01
  2.329362e+01    9.774816e-01
  2.330950e+01    9.875417e-01
  2.332537e+01    9.963220e-01
  2.334125e+01    9.801851e-01
  2.335713e+01    9.592948e-01
  2.337300e+01    9.805692e-01
  2.338888e+01    9.663700e-01
  2.340475e+01    9.736651e-01
  2.342063e+01    9.817767e-01
  2.343650e+01    9.510096e-01
  2.345238e+01    9.576368e-01
  2.346825e+01    9.596816e-01
  2.348413e+01    9.475040e-01
  2.350001e+01    9.501469e-01
  2.351588e+01    9.468216e-01
  2.353176e+01    9.621858e-01
  2.354763e+01    9.721043e-01
  2.356351e+01    9.572740e-01
  2.357938e+01    9.764010e-01
  2.359526e+01    9.650928e-01
  2.361113e+01    9.692830e-01
  2.362701e+01    9.693604e-01
  2.364289e+01    9.388274e-01
  2.365876e+01    9.414483e-01
  2.367464e+01    9.697900e-01
  2.369051e+01    9.773833e-01
  2.370639e+01    9.574608e-01
  2.372226e+01    9.307158e-01
  2.373814e+01    9.291953e-01
  2.375401e+01    9.201407e-01
  2.376989e+01    9.102932e-01
  2.378577e+01    9.230521e-01
  2.380164e+01    9.140607e-01
  2.381752e+01    9.223657e-01
  2.383339e+01    9.314701e-01
  2.384927e+01    8.997965e-01
  2.386514e+01    9.020141e-01
  2.388102e+01    9.169009e-01
  2.389689e+01    9.298675e-01
  2.391277e+01    9.169380e-01
  2.392865e+01    9.046995e-01
  2.394452e+01    9.097903e-01
  2.396040e+01    9.049564e-01
  2.397627e+01    8.868124e-01
  2.399215e+01    8.892976e-01
  2.400802e+01    8.917235e-01
  2.402390e+01    9.102643e-01
  2.403978e+01    8.746839e-01
  2.405565e+01    8.819433e-01
  2.407153e+01    8.990390e-01
  2.408740e+01    9.187313e-01
  2.410328e+01    9.065280e-01
  2.411915e+01    8.806870e-01
  2.413503e+01    8.846030e-01
  2.415090e+01    8.741975e-01
  2.416678e+01    8.870069e-01
  2.418266e+01    8.898079e-01
  2.419853e+01    8.676916e-01
  2.421441e+01    8.725098e-01
  2.423028e+01    8.866400e-01
  2.424616e+01    9.030331e-01
  2.426203e+01    8.802754e-01
  2.427791e+01    8.857347e-01
  2.429378e+01    8.974590e-01
  2.430966e+01    8.871184e-01
  2.432554e+01    8.895566e-01
  2.434141e+01    8.901727e-01
  2.435729e+01    9.001612e-01
  2.437316e+01    8.817665e-01
  2.438904e+01    8.707406e-01
  2.440491e+01    8.975803e-01
  2.442079e+01    8.796886e-01
  2.443666e+01    8.973111e-01
  2.445254e+01    8.917453e-01
  2.446842e+01    8.844830e-01
  2.448429e+01    8.993480e-01
  2.450017e+01    8.989670e-01
  2.451604e+01    9.093989e-01
  2.453192e+01    9.243196e-01
  2.454779e+01    9.047546e-01
  2.456367e+01    8.794307e-01
  2.457954e+01    8.803406e-01
  2.459542e+01    8.803923e-01
  2.461130e+01    8.915368e-01
  2.462717e+01    8.783445e-01
  2.464305e+01    8.919728e-01
  2.465892e+01    8.829240e-01
  2.467480e+01    8.899314e-01
  2.469067e+01    8.837981e-01
  2.470655e+01    8.807546e-01
  2.472242e+01    8.845756e-01
  2.473830e+01    8.829805e-01
  2.475418e+01    8.873049e-01
  2.477005e+01    9.075847e-01
  2.478593e+01    8.943721e-01
  2.480180e+01    8.880301e-01
  2.481768e+01    8.911917e-01
  2.483355e+01    8.964378e-01
  2.484943e+01    8.851567e-01
  2.486530e+01    9.167191e-01
  2.488118e+01    8.923011e-01
  2.489706e+01    8.928688e-01
  2.491293e+01    9.019364e-01
  2.492881e+01    9.144258e-01
  2.494468e+01    8.905997e-01
  2.496056e+01    8.846316e-01
  2.497643e+01    9.205827e-01
  2.499231e+01    8.919264e-01
  2.500819e+01    8.927274e-01
  2.502406e+01    8.968270e-01
  2.503994e+01    9.166368e-01
  2.505581e+01    9.199442e-01
  2.507169e+01    9.061679e-01
  2.508756e+01    8.938745e-01
  2.510344e+01    8.928685e-01
  2.511931e+01    9.097167e-01
  2.513519e+01    9.129709e-01
  2.515107e+01    9.113088e-01
  2.516694e+01    9.178558e-01
  2.518282e+01    9.229310e-01
  2.519869e+01    9.031887e-01
  2.521457e+01    8.985605e-01
  2.523044e+01    9.229945e-01
  2.524632e+01    9.306958e-01
  2.526219e+01    9.219924e-01
  2.527807e+01    9.414954e-01
  2.529395e+01    9.736561e-01
  2.530982e+01    9.537090e-01
  2.532570e+01    9.552406e-01
  2.534157e+01    9.610095e-01
  2.535745e+01    9.671218e-01
  2.537332e+01    9.649665e-01
  2.538920e+01    9.808751e-01
  2.540507e+01    9.640846e-01
  2.542095e+01    9.788771e-01
  2.543683e+01    9.778044e-01
  2.545270e+01    1.000458e+00
  2.546858e+01    1.007643e+00
  2.548445e+01    1.041025e+00
  2.550033e+01    1.040329e+00
  2.551620e+01    1.069627e+00
  2.553208e+01    1.068559e+00
  2.554795e+01    1.102866e+00
  2.556383e+01    1.126686e+00
  2.557971e+01    1.137632e+00
  2.559558e+01    1.153307e+00
  2.561146e+01    1.204969e+00
  2.562733e+01    1.271256e+00
  2.564321e+01    1.322816e+00
  2.565908e+01    1.373886e+00
  2.567496e+01    1.404850e+00
  2.569083e+01    1.498008e+00
  2.570671e+01    1.587891e+00
  2.572259e+01    1.708965e+00
  2.573846e+01    1.827476e+00
  2.575434e+01    2.006522e+00
  2.577021e+01    2.204122e+00
  2.578609e+01    2.471473e+00
  2.580196e+01    2.822407e+00
  2.581784e+01    3.169523e+00
  2.583371e+01    3.608185e+00
  2.584959e+01    4.078655e+00
  2.586547e+01    4.654669e+00
  2.588134e+01    5.288626e+00
  2.589722e+01    5.822298e+00
  2.591309e+01    6.372350e+00
  2.592897e+01    6.777840e+00
  2.594484e+01    7.069928e+00
  2.596072e+01    7.165366e+00
  2.597660e+01    7.069343e+00
  2.599247e+01    6.617129e+00
  2.600835e+01    5.917187e+00
  2.602422e+01    5.316334e+00
  2.604010e+01    4.645478e+00
  2.605597e+01    4.001782e+00
  2.607185e+01    3.469830e+00
  2.608772e+01    3.046273e+00
  2.610360e+01    2.677553e+00
  2.611948e+01    2.384650e+00
  2.613535e+01    2.152931e+00
  2.615123e+01    1.996590e+00
  2.616710e+01    1.829108e+00
  2.618298e+01    1.687945e+00
  2.619885e+01    1.582557e+00
  2.621473e+01    1.484356e+00
  2.623060e+01    1.407143e+00
  2.624648e+01    1.343365e+00
  2.626236e+01    1.306053e+00
  2.627823e+01    1.254029e+00
  2.629411e+01    1.222558e+00
  2.630998e+01    1.194815e+00
  2.632586e+01    1.172106e+00
  2.634173e+01    1.133608e+00
  2.635761e+01    1.114391e+00
  2.637348e+01    1.070617e+00
  2.638936e+01    1.064165e+00
  2.640524e+01    1.046199e+00
  2.642111e+01    1.039719e+00
  2.643699e+01    1.017248e+00
  2.645286e+01    1.030599e+00
  2.646874e+01    1.016312e+00
  2.648461e+01    1.014336e+00
  2.650049e+01    9.925461e-01
  2.651636e+01    1.004546e+00
  2.653224e+01    1.010194e+00
  2.654812e+01    9.877850e-01
  2.656399e+01    9.644527e-01
  2.657987e+01    9.865821e-01
  2.659574e+01    9.935692e-01
  2.661162e+01    9.956718e-01
  2.662749e+01    9.860037e-01
  2.664337e+01    9.755917e-01
  2.665924e+01    9.830399e-01
  2.667512e+01    9.699284e-01
  2.669100e+01    9.548429e-01
  2.670687e+01    9.661386e-01
  2.672275e+01    9.747450e-01
  2.673862e+01    9.526651e-01
  2.675450e+01    9.633935e-01
  2.677037e+01    9.865611e-01
  2.678625e+01    9.806934e-01
  2.680212e+01    9.662673e-01
  2.681800e+01    9.606590e-01
  2.683388e+01    9.792643e-01
  2.684975e+01    9.748194e-01
  2.686563e+01    9.977325e-01
  2.688150e+01    1.022397e+00
  2.689738e+01    9.978603e-01
  2.691325e+01    9.853684e-01
  2.692913e+01    1.004827e+00
  2.694501e+01    1.009900e+00
  2.696088e+01    1.050231e+00
  2.697676e+01    1.088836e+00
  2.699263e+01    1.093379e+00
  2.700851e+01    1.108363e+00
  2.702438e+01    1.137211e+00
  2.704026e+01    1.186686e+00
  2.705613e+01    1.268467e+00
  2.707201e+01    1.342796e+00
  2.708789e+01    1.405741e+00
  2.710376e+01    1.496914e+00
  2.711964e+01    1.606329e+00
  2.713551e+01    1.714721e+00
  2.715139e+01    1.814862e+00
  2.716726e+01    1.944388e+00
  2.718314e+01    2.049626e+00
  2.719901e+01    2.136543e+00
  2.721489e+01    2.171671e+00
  2.723077e+01    2.150203e+00
  2.724664e+01    2.080871e+00
  2.726252e+01    1.959600e+00
  2.727839e+01    1.835608e+00
  2.729427e+01    1.738436e+00
  2.731014e+01    1.609751e+00
  2.732602e+01    1.466471e+00
  2.734189e+01    1.348390e+00
  2.735777e+01    1.271936e+00
  2.737365e+01    1.202805e+00
  2.738952e+01    1.159659e+00
  2.740540e+01    1.130342e+00
  2.742127e+01    1.103549e+00
  2.743715e+01    1.075054e+00
  2.745302e+01    1.070596e+00
  2.746890e+01    1.032732e+00
  2.748477e+01    1.002583e+00
  2.750065e+01    9.877680e-01
  2.751653e+01    1.000087e+00
  2.753240e+01    9.956785e-01
  2.754828e+01    9.584038e-01
  2.756415e+01    9.329912e-01
  2.758003e+01    9.254319e-01
  2.759590e+01    9.442042e-01
  2.761178e+01    9.341800e-01
  2.762765e+01    9.093691e-01
  2.764353e+01    9.166991e-01
  2.765941e+01    9.236503e-01
  2.767528e+01    9.308880e-01
  2.769116e+01    8.983653e-01
  2.770703e+01    9.093310e-01
  2.772291e+01    9.357210e-01
  2.773878e+01    9.080111e-01
  2.775466e+01    8.928492e-01
  2.777054e+01    8.703653e-01
  2.778641e+01    8.765094e-01
  2.780229e+01    8.926939e-01
  2.781816e+01    8.724834e-01
  2.783404e+01    9.115601e-01
  2.784991e+01    8.927730e-01
  2.786579e+01    8.920588e-01
  2.788166e+01    9.028285e-01
  2.789754e+01    8.897844e-01
  2.791342e+01    8.735011e-01
  2.792929e+01    8.836368e-01
  2.794517e+01    8.691004e-01
  2.796104e+01    8.725739e-01
  2.797692e+01    8.580712e-01
  2.799279e+01    8.737583e-01
  2.800867e+01    8.877771e-01
  2.802454e+01    8.859895e-01
  2.804042e+01    8.766637e-01
  2.805630e+01    8.831342e-01
  2.807217e+01    8.791474e-01
  2.808805e+01    8.640268e-01
  2.810392e+01    8.701615e-01
  2.811980e+01    8.588389e-01
  2.813567e+01    8.768274e-01
  2.815155e+01    8.730018e-01
  2.816742e+01    8.572848e-01
  2.818330e+01    8.617052e-01
  2.819918e+01    8.707665e-01
  2.821505e+01    8.460585e-01
  2.823093e+01    8.582544e-01
  2.824680e+01    8.371938e-01
  2.826268e+01    8.306912e-01
  2.827855e+01    8.460898e-01
  2.829443e+01    8.645782e-01
  2.831030e+01    8.426169e-01
  2.832618e+01    8.335541e-01
  2.834206e+01    8.415241e-01
  2.835793e+01    8.409305e-01
  2.837381e+01    8.685098e-01
  2.838968e+01    8.263881e-01
  2.840556e+01    8.327729e-01
  2.842143e+01    8.505163e-01
  2.843731e+01    8.327609e-01
  2.845318e+01    8.375778e-01
  2.846906e+01    8.171608e-01
  2.848494e+01    8.246201e-01
  2.850081e+01    8.137321e-01
  2.851669e+01    8.315621e-01
  2.853256e+01    8.424098e-01
  2.854844e+01    8.628256e-01
  2.856431e+01    8.599853e-01
  2.858019e+01    8.520315e-01
  2.859606e+01    8.501210e-01
  2.861194e+01    8.381743e-01
  2.862782e+01    8.497039e-01
  2.864369e+01    8.388897e-01
  2.865957e+01    8.448268e-01
  2.867544e+01    8.504971e-01
  2.869132e+01    8.415095e-01
  2.870719e+01    8.319904e-01
  2.872307e+01    8.141170e-01
  2.873895e+01    8.104216e-01
  2.875482e+01    8.177420e-01
  2.877070e+01    8.235427e-01
  2.878657e+01    8.155430e-01
  2.880245e+01    8.197076e-01
  2.881832e+01    8.327396e-01
  2.883420e+01    8.177524e-01
  2.885007e+01    8.006324e-01
  2.886595e+01    7.891001e-01
  2.888183e+01    8.106149e-01
  2.889770e+01    8.134046e-01
  2.891358e+01    8.049278e-01
  2.892945e+01    8.164446e-01
  2.894533e+01    8.041113e-01
  2.896120e+01    7.938856e-01
  2.897708e+01    8.199103e-01
  2.899295e+01    8.208402e-01
  2.900883e+01    8.193503e-01
  2.902471e+01    8.143608e-01
  2.904058e+01    8.125117e-01
  2.905646e+01    8.361591e-01
  2.907233e+01    8.501823e-01
  2.908821e+01    8.349627e-01
  2.910408e+01    7.819718e-01
  2.911996e+01    8.012466e-01
  2.913583e+01    8.106734e-01
  2.915171e+01    7.977806e-01
  2.916759e+01    8.129324e-01
  2.918346e+01    8.006899e-01
  2.919934e+01    7.972654e-01
  2.921521e+01    8.052905e-01
  2.923109e+01    8.338904e-01
  2.924696e+01    8.346229e-01
  2.926284e+01    8.120085e-01
  2.927871e+01    8.219961e-01
  2.929459e+01    8.297781e-01
  2.931047e+01    8.120068e-01
  2.932634e+01    8.038079e-01
  2.934222e+01    8.038214e-01
  2.935809e+01    8.222892e-01
  2.937397e+01    8.330346e-01
  2.938984e+01    8.166916e-01
  2.940572e+01    7.847890e-01
  2.942159e+01    7.919920e-01
  2.943747e+01    7.992721e-01
  2.945335e+01    7.913527e-01
  2.946922e+01    7.878674e-01
  2.948510e+01    8.288925e-01
  2.950097e+01    8.398960e-01
  2.951685e+01    7.969701e-01
  2.953272e+01    8.010237e-01
  2.954860e+01    8.122512e-01
  2.956447e+01    7.985775e-01
  2.958035e+01    8.105873e-01
  2.959623e+01    8.154809e-01
  2.961210e+01    8.081101e-01
  2.962798e+01    7.938842e-01
  2.964385e+01    7.965480e-01
  2.965973e+01    7.944420e-01
  2.967560e+01    7.890375e-01
  2.969148e+01    7.980433e-01
  2.970736e+01    7.816018e-01
  2.972323e+01    8.017743e-01
  2.973911e+01    8.065944e-01
  2.975498e+01    8.279602e-01
  2.977086e+01    8.192936e-01
  2.978673e+01    8.039790e-01
  2.980261e+01    8.010443e-01
  2.981848e+01    7.970791e-01
  2.983436e+01    7.868648e-01
  2.985024e+01    7.922349e-01
  2.986611e+01    8.003159e-01
  2.988199e+01    8.231215e-01
  2.989786e+01    8.026993e-01
  2.991374e+01    8.035497e-01
  2.992961e+01    7.979320e-01
  2.994549e+01    8.003132e-01
  2.996136e+01    8.231106e-01
  2.997724e+01    8.025973e-01
  2.999312e+01    7.948048e-01
  3.000899e+01    7.926530e-01
  3.002487e+01    8.018682e-01
  3.004074e+01    7.943523e-01
  3.005662e+01    8.022745e-01
  3.007249e+01    8.296444e-01
  3.008837e+01    7.972242e-01
  3.010424e+01    7.838945e-01
  3.012012e+01    7.876984e-01
  3.013600e+01    7.921060e-01
  3.015187e+01    7.754870e-01
  3.016775e+01    7.715181e-01
  3.018362e+01    7.746303e-01
  3.019950e+01    7.830148e-01
  3.021537e+01    7.806758e-01
  3.023125e+01    7.784399e-01
  3.024712e+01    7.670464e-01
  3.026300e+01    7.785295e-01
  3.027888e+01    7.802423e-01
  3.029475e+01    7.710304e-01
  3.031063e+01    7.918169e-01
  3.032650e+01    7.538333e-01
  3.034238e+01    7.546065e-01
  3.035825e+01    7.805359e-01
  3.037413e+01    7.807481e-01
  3.039000e+01    7.986577e-01
  3.040588e+01    8.086716e-01
  3.042176e+01    7.973794e-01
  3.043763e+01    7.840021e-01
  3.045351e+01    7.710648e-01
  3.046938e+01    7.725652e-01
  3.048526e+01    7.724336e-01
  3.050113e+01    7.781557e-01
  3.051701e+01    7.849043e-01
  3.053288e+01    7.786525e-01
  3.054876e+01    7.744527e-01
  3.056464e+01    7.854924e-01
  3.058051e+01    7.886409e-01
  3.059639e+01    7.735648e-01
  3.061226e+01    8.000186e-01
  3.062814e+01    7.843123e-01
  3.064401e+01    7.626840e-01
  3.065989e+01    7.861425e-01
  3.067577e+01    7.783726e-01
  3.069164e+01    7.736870e-01
  3.070752e+01    7.780243e-01
  3.072339e+01    7.858936e-01
  3.073927e+01    7.850217e-01
  3.075514e+01    7.964727e-01
  3.077102e+01    7.699305e-01
  3.078689e+01    7.808709e-01
  3.080277e+01    7.767479e-01
  3.081865e+01    7.897037e-01
  3.083452e+01    7.854005e-01
  3.085040e+01    7.869066e-01
  3.086627e+01    7.944937e-01
  3.088215e+01    7.872611e-01
  3.089802e+01    7.888060e-01
  3.091390e+01    7.983846e-01
  3.092977e+01    8.056722e-01
  3.094565e+01    7.934068e-01
  3.096153e+01    7.822569e-01
  3.097740e+01    7.916923e-01
  3.099328e+01    7.873523e-01
  3.100915e+01    8.017229e-01
  3.102503e+01    7.938480e-01
  3.104090e+01    7.994372e-01
  3.105678e+01    7.847909e-01
  3.107265e+01    8.118950e-01
  3.108853e+01    8.022609e-01
  3.110441e+01    7.709328e-01
  3.112028e+01    7.868288e-01
  3.113616e+01    8.001589e-01
  3.115203e+01    8.096613e-01
  3.116791e+01    7.848151e-01
  3.118378e+01    7.875637e-01
  3.119966e+01    8.072485e-01
  3.121553e+01    7.938158e-01
  3.123141e+01    7.870206e-01
  3.124729e+01    8.071319e-01
  3.126316e+01    8.036561e-01
  3.127904e+01    8.044222e-01
  3.129491e+01    7.970665e-01
  3.131079e+01    7.966096e-01
  3.132666e+01    7.907535e-01
  3.134254e+01    8.325197e-01
  3.135841e+01    8.221254e-01
  3.137429e+01    8.047155e-01
  3.139017e+01    8.010224e-01
  3.140604e+01    8.039469e-01
  3.142192e+01    8.164936e-01
  3.143779e+01    8.039353e-01
  3.145367e+01    8.017066e-01
  3.146954e+01    8.198609e-01
  3.148542e+01    8.444881e-01
  3.150129e+01    8.371155e-01
  3.151717e+01    8.253350e-01
  3.153305e+01    8.216925e-01
  3.154892e+01    8.360618e-01
  3.156480e+01    8.447407e-01
  3.158067e+01    8.625598e-01
  3.159655e+01    8.605537e-01
  3.161242e+01    8.718914e-01
  3.162830e+01    9.151630e-01
  3.164418e+01    9.583932e-01
  3.166005e+01    9.376842e-01
  3.167593e+01    9.708837e-01
  3.169180e+01    9.975272e-01
  3.170768e+01    1.037329e+00
  3.172355e+01    1.079186e+00
  3.173943e+01    1.134054e+00
  3.175530e+01    1.174767e+00
  3.177118e+01    1.233005e+00
  3.178706e+01    1.321137e+00
  3.180293e+01    1.406367e+00
  3.181881e+01    1.570092e+00
  3.183468e+01    1.684457e+00
  3.185056e+01    1.797404e+00
  3.186643e+01    1.985761e+00
  3.188231e+01    2.022797e+00
  3.189818e+01    2.085362e+00
  3.191406e+01    2.094614e+00
  3.192994e+01    2.053639e+00
  3.194581e+01    1.948691e+00
  3.196169e+01    1.848579e+00
  3.197756e+01    1.702001e+00
  3.199344e+01    1.594675e+00
  3.200931e+01    1.438569e+00
  3.202519e+01    1.309449e+00
  3.204106e+01    1.228485e+00
  3.205694e+01    1.175645e+00
  3.207282e+01    1.114395e+00
  3.208869e+01    1.053079e+00
  3.210457e+01    1.030971e+00
  3.212044e+01    9.789910e-01
  3.213632e+01    9.311702e-01
  3.215219e+01    9.289434e-01
  3.216807e+01    8.929236e-01
  3.218394e+01    8.643122e-01
  3.219982e+01    8.602558e-01
  3.221570e+01    8.747582e-01
  3.223157e+01    8.115787e-01
  3.224745e+01    8.239503e-01
  3.226332e+01    8.377451e-01
  3.227920e+01    8.293947e-01
  3.229507e+01    8.457677e-01
  3.231095e+01    8.605382e-01
  3.232682e+01    8.022736e-01
  3.234270e+01    7.879933e-01
  3.235858e+01    7.927849e-01
  3.237445e+01    7.844118e-01
  3.239033e+01    7.831105e-01
  3.240620e+01    7.819939e-01
  3.242208e+01    7.956867e-01
  3.243795e+01    7.860990e-01
  3.245383e+01    7.649681e-01
  3.246970e+01    7.834274e-01
  3.248558e+01    7.763508e-01
  3.250146e+01    7.704026e-01
  3.251733e+01    7.724205e-01
  3.253321e+01    7.683513e-01
  3.254908e+01    7.590823e-01
