# == pyFAI calibration ==
# Distance Sample to Detector: 0.3999999939076516 m
# PONI: 9.750e-02, 1.135e-01 m
# Rotations: -0.000175 0.000000 -0.000000 rad
# 
# == Fit2d calibration ==
# Distance Sample-beamCenter: 400.000 mm
# Center: x=1514.000, y=1300.000 pix
# Tilt: 0.010 deg  TiltPlanRot: 0.010 deg
# 
# Detector Detector	 Spline= None	 PixelSize= 7.500e-05, 7.500e-05 m
#    Detector has a mask: False 
#    Detector has a dark current: False 
#    detector has a flat field: False 
# 
# Wavelength: 6.888e-11 m
# Mask applied: user provided
# Dark current applied: False
# Flat field applied: False
# Polarization factor: 0.99
# Normalization factor: 1.0
# --> /home/myspot/data/2024_07_Rosario/Ru-CGO-ex/2024-07-27_003_Ru-CGO-ex_Reaction_dwell_000023_data_000139.dat
#       q_nm^-1             I 
  2.003187e-02    0.000000e+00
  3.590745e-02    1.774620e-01
  5.178302e-02    2.688149e-01
  6.765859e-02    2.553148e-01
  8.353417e-02    7.633653e-02
  9.940974e-02    4.690693e-02
  1.152853e-01    6.924261e-02
  1.311609e-01    4.974347e-02
  1.470365e-01    3.148258e-02
  1.629120e-01    5.147671e-02
  1.787876e-01    1.797055e-03
  1.946632e-01    1.098463e-02
  2.105388e-01    5.099068e-02
  2.264143e-01    6.302182e-02
  2.422899e-01    2.317875e-02
  2.581655e-01    4.867436e-02
  2.740411e-01    7.327625e-02
  2.899166e-01    4.248201e-02
  3.057922e-01    1.909944e-02
  3.216678e-01    2.378242e-02
  3.375433e-01    2.391718e-02
  3.534189e-01    5.558160e-02
  3.692945e-01    6.248690e-02
  3.851701e-01    4.138447e-02
  4.010456e-01    4.692557e-02
  4.169212e-01    5.712236e-02
  4.327968e-01    3.548745e-02
  4.486724e-01    4.809030e-02
  4.645479e-01    2.674897e-02
  4.804235e-01    3.515230e-02
  4.962991e-01    3.706459e-02
  5.121747e-01    5.530013e-02
  5.280502e-01    7.175282e-02
  5.439258e-01    5.029670e-02
  5.598014e-01    3.109759e-02
  5.756770e-01    4.946463e-02
  5.915525e-01    2.979179e-02
  6.074281e-01    1.351807e-02
  6.233037e-01    2.536364e-02
  6.391793e-01    2.914044e-02
  6.550548e-01    2.850199e-02
  6.709304e-01    1.801649e-02
  6.868060e-01    4.278355e-02
  7.026815e-01    4.743640e-02
  7.185571e-01    4.938075e-02
  7.344327e-01    6.604894e-02
  7.503083e-01    4.176063e-02
  7.661838e-01    8.350622e-02
  7.820594e-01    1.056281e-01
  7.979350e-01    1.332275e-01
  8.138106e-01    1.808555e-01
  8.296861e-01    2.702035e-01
  8.455617e-01    4.037926e-01
  8.614373e-01    4.655451e-01
  8.773129e-01    4.762344e-01
  8.931884e-01    5.531641e-01
  9.090640e-01    6.920713e-01
  9.249396e-01    7.105707e-01
  9.408152e-01    7.462873e-01
  9.566907e-01    9.010025e-01
  9.725663e-01    9.734808e-01
  9.884419e-01    1.079159e+00
  1.004317e+00    1.259679e+00
  1.020193e+00    1.353515e+00
  1.036069e+00    1.451036e+00
  1.051944e+00    1.360603e+00
  1.067820e+00    1.315881e+00
  1.083695e+00    1.494814e+00
  1.099571e+00    1.580573e+00
  1.115446e+00    1.703834e+00
  1.131322e+00    1.686834e+00
  1.147198e+00    1.627997e+00
  1.163073e+00    1.550805e+00
  1.178949e+00    1.696058e+00
  1.194824e+00    1.743474e+00
  1.210700e+00    2.048620e+00
  1.226575e+00    2.312094e+00
  1.242451e+00    2.373740e+00
  1.258327e+00    2.541900e+00
  1.274202e+00    2.676742e+00
  1.290078e+00    2.713673e+00
  1.305953e+00    2.769805e+00
  1.321829e+00    2.783265e+00
  1.337705e+00    2.609333e+00
  1.353580e+00    2.680903e+00
  1.369456e+00    2.911740e+00
  1.385331e+00    2.944302e+00
  1.401207e+00    2.827696e+00
  1.417082e+00    2.827517e+00
  1.432958e+00    3.009579e+00
  1.448834e+00    2.917585e+00
  1.464709e+00    2.953377e+00
  1.480585e+00    3.148251e+00
  1.496460e+00    3.220840e+00
  1.512336e+00    3.088518e+00
  1.528211e+00    3.181627e+00
  1.544087e+00    3.237004e+00
  1.559963e+00    3.240966e+00
  1.575838e+00    3.092942e+00
  1.591714e+00    3.188740e+00
  1.607589e+00    3.294938e+00
  1.623465e+00    3.209386e+00
  1.639340e+00    3.266092e+00
  1.655216e+00    3.157238e+00
  1.671092e+00    3.239206e+00
  1.686967e+00    3.014318e+00
  1.702843e+00    3.053309e+00
  1.718718e+00    3.097538e+00
  1.734594e+00    3.137375e+00
  1.750469e+00    3.045920e+00
  1.766345e+00    3.065124e+00
  1.782221e+00    3.040115e+00
  1.798096e+00    2.961946e+00
  1.813972e+00    2.868542e+00
  1.829847e+00    2.923581e+00
  1.845723e+00    3.039371e+00
  1.861598e+00    3.038704e+00
  1.877474e+00    3.117587e+00
  1.893350e+00    3.064934e+00
  1.909225e+00    3.103310e+00
  1.925101e+00    3.082047e+00
  1.940976e+00    3.136766e+00
  1.956852e+00    3.156592e+00
  1.972727e+00    3.044709e+00
  1.988603e+00    3.103224e+00
  2.004479e+00    3.254571e+00
  2.020354e+00    3.172982e+00
  2.036230e+00    3.018413e+00
  2.052105e+00    3.007468e+00
  2.067981e+00    3.115936e+00
  2.083856e+00    3.111012e+00
  2.099732e+00    3.018137e+00
  2.115608e+00    3.120463e+00
  2.131483e+00    3.111641e+00
  2.147359e+00    3.127877e+00
  2.163234e+00    2.988692e+00
  2.179110e+00    3.068531e+00
  2.194985e+00    3.084215e+00
  2.210861e+00    3.020049e+00
  2.226737e+00    3.138429e+00
  2.242612e+00    3.195068e+00
  2.258488e+00    3.146864e+00
  2.274363e+00    3.169501e+00
  2.290239e+00    3.160362e+00
  2.306115e+00    3.043940e+00
  2.321990e+00    3.078199e+00
  2.337866e+00    3.158384e+00
  2.353741e+00    3.204266e+00
  2.369617e+00    3.216239e+00
  2.385492e+00    3.089519e+00
  2.401368e+00    3.060928e+00
  2.417244e+00    3.084038e+00
  2.433119e+00    3.125169e+00
  2.448995e+00    3.190807e+00
  2.464870e+00    3.191104e+00
  2.480746e+00    3.111215e+00
  2.496621e+00    3.152638e+00
  2.512497e+00    3.178106e+00
  2.528373e+00    3.213472e+00
  2.544248e+00    3.222957e+00
  2.560124e+00    3.318784e+00
  2.575999e+00    3.300983e+00
  2.591875e+00    3.226285e+00
  2.607750e+00    3.192932e+00
  2.623626e+00    3.265883e+00
  2.639502e+00    3.258078e+00
  2.655377e+00    3.291445e+00
  2.671253e+00    3.326628e+00
  2.687128e+00    3.286819e+00
  2.703004e+00    3.123822e+00
  2.718879e+00    3.129177e+00
  2.734755e+00    3.246962e+00
  2.750631e+00    3.179729e+00
  2.766506e+00    3.255992e+00
  2.782382e+00    3.335387e+00
  2.798257e+00    3.308265e+00
  2.814133e+00    3.302815e+00
  2.830008e+00    3.237843e+00
  2.845884e+00    3.322716e+00
  2.861760e+00    3.413504e+00
  2.877635e+00    3.320282e+00
  2.893511e+00    3.392115e+00
  2.909386e+00    3.392430e+00
  2.925262e+00    3.301792e+00
  2.941137e+00    3.342141e+00
  2.957013e+00    3.435900e+00
  2.972889e+00    3.333605e+00
  2.988764e+00    3.236396e+00
  3.004640e+00    3.269602e+00
  3.020515e+00    3.272835e+00
  3.036391e+00    3.299832e+00
  3.052266e+00    3.426624e+00
  3.068142e+00    3.299366e+00
  3.084018e+00    3.261332e+00
  3.099893e+00    3.360853e+00
  3.115769e+00    3.421870e+00
  3.131644e+00    3.285348e+00
  3.147520e+00    3.345356e+00
  3.163395e+00    3.282370e+00
  3.179271e+00    3.347699e+00
  3.195147e+00    3.336709e+00
  3.211022e+00    3.308491e+00
  3.226898e+00    3.354314e+00
  3.242773e+00    3.422457e+00
  3.258649e+00    3.425057e+00
  3.274525e+00    3.453551e+00
  3.290400e+00    3.432822e+00
  3.306276e+00    3.452840e+00
  3.322151e+00    3.406815e+00
  3.338027e+00    3.468276e+00
  3.353902e+00    3.374453e+00
  3.369778e+00    3.403206e+00
  3.385654e+00    3.426536e+00
  3.401529e+00    3.336610e+00
  3.417405e+00    3.397730e+00
  3.433280e+00    3.366676e+00
  3.449156e+00    3.445942e+00
  3.465031e+00    3.342752e+00
  3.480907e+00    3.391760e+00
  3.496783e+00    3.491142e+00
  3.512658e+00    3.516042e+00
  3.528534e+00    3.540130e+00
  3.544409e+00    3.447535e+00
  3.560285e+00    3.416529e+00
  3.576160e+00    3.398253e+00
  3.592036e+00    3.468095e+00
  3.607912e+00    3.489485e+00
  3.623787e+00    3.491448e+00
  3.639663e+00    3.467003e+00
  3.655538e+00    3.534584e+00
  3.671414e+00    3.452074e+00
  3.687289e+00    3.476569e+00
  3.703165e+00    3.515116e+00
  3.719041e+00    3.507660e+00
  3.734916e+00    3.470406e+00
  3.750792e+00    3.428204e+00
  3.766667e+00    3.365765e+00
  3.782543e+00    3.430789e+00
  3.798418e+00    3.447131e+00
  3.814294e+00    3.517098e+00
  3.830170e+00    3.582960e+00
  3.846045e+00    3.551237e+00
  3.861921e+00    3.530607e+00
  3.877796e+00    3.516085e+00
  3.893672e+00    3.441821e+00
  3.909547e+00    3.431873e+00
  3.925423e+00    3.566777e+00
  3.941299e+00    3.500721e+00
  3.957174e+00    3.520994e+00
  3.973050e+00    3.547556e+00
  3.988925e+00    3.593966e+00
  4.004801e+00    3.465868e+00
  4.020676e+00    3.524176e+00
  4.036552e+00    3.595343e+00
  4.052428e+00    3.511828e+00
  4.068303e+00    3.479635e+00
  4.084179e+00    3.494590e+00
  4.100054e+00    3.563195e+00
  4.115930e+00    3.559827e+00
  4.131806e+00    3.615906e+00
  4.147681e+00    3.608395e+00
  4.163557e+00    3.517543e+00
  4.179432e+00    3.515205e+00
  4.195308e+00    3.545612e+00
  4.211183e+00    3.470854e+00
  4.227059e+00    3.572566e+00
  4.242935e+00    3.604037e+00
  4.258810e+00    3.546225e+00
  4.274686e+00    3.558678e+00
  4.290561e+00    3.669689e+00
  4.306437e+00    3.648556e+00
  4.322312e+00    3.582410e+00
  4.338188e+00    3.626688e+00
  4.354064e+00    3.684663e+00
  4.369939e+00    3.543194e+00
  4.385815e+00    3.505118e+00
  4.401690e+00    3.573237e+00
  4.417566e+00    3.535394e+00
  4.433441e+00    3.485426e+00
  4.449317e+00    3.473265e+00
  4.465193e+00    3.618654e+00
  4.481068e+00    3.671892e+00
  4.496944e+00    3.624270e+00
  4.512819e+00    3.517983e+00
  4.528695e+00    3.601794e+00
  4.544570e+00    3.496015e+00
  4.560446e+00    3.566966e+00
  4.576322e+00    3.595723e+00
  4.592197e+00    3.687911e+00
  4.608073e+00    3.651533e+00
  4.623948e+00    3.613521e+00
  4.639824e+00    3.714785e+00
  4.655699e+00    3.690487e+00
  4.671575e+00    3.614596e+00
  4.687451e+00    3.616663e+00
  4.703326e+00    3.588251e+00
  4.719202e+00    3.565568e+00
  4.735077e+00    3.690494e+00
  4.750953e+00    3.668236e+00
  4.766828e+00    3.655009e+00
  4.782704e+00    3.649085e+00
  4.798580e+00    3.611038e+00
  4.814455e+00    3.622205e+00
  4.830331e+00    3.620198e+00
  4.846206e+00    3.649230e+00
  4.862082e+00    3.664272e+00
  4.877957e+00    3.652413e+00
  4.893833e+00    3.648011e+00
  4.909709e+00    3.587510e+00
  4.925584e+00    3.621843e+00
  4.941460e+00    3.627139e+00
  4.957335e+00    3.593740e+00
  4.973211e+00    3.626184e+00
  4.989086e+00    3.615593e+00
  5.004962e+00    3.573679e+00
  5.020838e+00    3.623864e+00
  5.036713e+00    3.602931e+00
  5.052589e+00    3.656300e+00
  5.068464e+00    3.676722e+00
  5.084340e+00    3.686478e+00
  5.100216e+00    3.680727e+00
  5.116091e+00    3.699665e+00
  5.131967e+00    3.615610e+00
  5.147842e+00    3.643888e+00
  5.163718e+00    3.627891e+00
  5.179593e+00    3.563728e+00
  5.195469e+00    3.588624e+00
  5.211345e+00    3.639446e+00
  5.227220e+00    3.666556e+00
  5.243096e+00    3.709537e+00
  5.258971e+00    3.771963e+00
  5.274847e+00    3.727970e+00
  5.290722e+00    3.655792e+00
  5.306598e+00    3.650814e+00
  5.322474e+00    3.656084e+00
  5.338349e+00    3.669619e+00
  5.354225e+00    3.664742e+00
  5.370100e+00    3.621453e+00
  5.385976e+00    3.664743e+00
  5.401851e+00    3.704088e+00
  5.417727e+00    3.585310e+00
  5.433603e+00    3.571719e+00
  5.449478e+00    3.609308e+00
  5.465354e+00    3.565200e+00
  5.481229e+00    3.565616e+00
  5.497105e+00    3.609034e+00
  5.512980e+00    3.641408e+00
  5.528856e+00    3.607100e+00
  5.544732e+00    3.596429e+00
  5.560607e+00    3.549298e+00
  5.576483e+00    3.460268e+00
  5.592358e+00    3.499871e+00
  5.608234e+00    3.653361e+00
  5.624109e+00    3.705256e+00
  5.639985e+00    3.731219e+00
  5.655861e+00    3.567269e+00
  5.671736e+00    3.585313e+00
  5.687612e+00    3.658644e+00
  5.703487e+00    3.569047e+00
  5.719363e+00    3.544412e+00
  5.735238e+00    3.604735e+00
  5.751114e+00    3.583328e+00
  5.766990e+00    3.611392e+00
  5.782865e+00    3.624648e+00
  5.798741e+00    3.601899e+00
  5.814616e+00    3.511508e+00
  5.830492e+00    3.580000e+00
  5.846367e+00    3.651373e+00
  5.862243e+00    3.490356e+00
  5.878119e+00    3.477035e+00
  5.893994e+00    3.541325e+00
  5.909870e+00    3.581426e+00
  5.925745e+00    3.548274e+00
  5.941621e+00    3.551760e+00
  5.957497e+00    3.567249e+00
  5.973372e+00    3.501717e+00
  5.989248e+00    3.461110e+00
  6.005123e+00    3.444590e+00
  6.020999e+00    3.408973e+00
  6.036874e+00    3.498849e+00
  6.052750e+00    3.585446e+00
  6.068626e+00    3.613535e+00
  6.084501e+00    3.552846e+00
  6.100377e+00    3.568420e+00
  6.116252e+00    3.608695e+00
  6.132128e+00    3.599984e+00
  6.148003e+00    3.619428e+00
  6.163879e+00    3.580888e+00
  6.179755e+00    3.548600e+00
  6.195630e+00    3.520132e+00
  6.211506e+00    3.544426e+00
  6.227381e+00    3.541615e+00
  6.243257e+00    3.483368e+00
  6.259132e+00    3.537937e+00
  6.275008e+00    3.500979e+00
  6.290884e+00    3.594758e+00
  6.306759e+00    3.641310e+00
  6.322635e+00    3.580583e+00
  6.338510e+00    3.581611e+00
  6.354386e+00    3.537199e+00
  6.370261e+00    3.549793e+00
  6.386137e+00    3.553916e+00
  6.402013e+00    3.480414e+00
  6.417888e+00    3.528811e+00
  6.433764e+00    3.513192e+00
  6.449639e+00    3.610378e+00
  6.465515e+00    3.683307e+00
  6.481390e+00    3.613658e+00
  6.497266e+00    3.513639e+00
  6.513142e+00    3.476437e+00
  6.529017e+00    3.612000e+00
  6.544893e+00    3.567833e+00
  6.560768e+00    3.520948e+00
  6.576644e+00    3.526431e+00
  6.592519e+00    3.533484e+00
  6.608395e+00    3.622844e+00
  6.624271e+00    3.620800e+00
  6.640146e+00    3.631712e+00
  6.656022e+00    3.616917e+00
  6.671897e+00    3.582755e+00
  6.687773e+00    3.539333e+00
  6.703648e+00    3.542438e+00
  6.719524e+00    3.533592e+00
  6.735400e+00    3.539183e+00
  6.751275e+00    3.491176e+00
  6.767151e+00    3.501154e+00
  6.783026e+00    3.449869e+00
  6.798902e+00    3.495596e+00
  6.814777e+00    3.582387e+00
  6.830653e+00    3.460701e+00
  6.846529e+00    3.489698e+00
  6.862404e+00    3.549127e+00
  6.878280e+00    3.535555e+00
  6.894155e+00    3.528375e+00
  6.910031e+00    3.512452e+00
  6.925907e+00    3.589984e+00
  6.941782e+00    3.593189e+00
  6.957658e+00    3.529218e+00
  6.973533e+00    3.546043e+00
  6.989409e+00    3.581797e+00
  7.005284e+00    3.557653e+00
  7.021160e+00    3.436869e+00
  7.037036e+00    3.411270e+00
  7.052911e+00    3.458110e+00
  7.068787e+00    3.520823e+00
  7.084662e+00    3.541186e+00
  7.100538e+00    3.458804e+00
  7.116413e+00    3.456362e+00
  7.132289e+00    3.517961e+00
  7.148165e+00    3.554084e+00
  7.164040e+00    3.557088e+00
  7.179916e+00    3.476834e+00
  7.195791e+00    3.420193e+00
  7.211667e+00    3.539711e+00
  7.227542e+00    3.561701e+00
  7.243418e+00    3.577189e+00
  7.259294e+00    3.547650e+00
  7.275169e+00    3.480071e+00
  7.291045e+00    3.498297e+00
  7.306920e+00    3.454795e+00
  7.322796e+00    3.494077e+00
  7.338671e+00    3.575012e+00
  7.354547e+00    3.496571e+00
  7.370423e+00    3.501565e+00
  7.386298e+00    3.440749e+00
  7.402174e+00    3.507613e+00
  7.418049e+00    3.584040e+00
  7.433925e+00    3.480670e+00
  7.449800e+00    3.416321e+00
  7.465676e+00    3.467945e+00
  7.481552e+00    3.521339e+00
  7.497427e+00    3.568283e+00
  7.513303e+00    3.556536e+00
  7.529178e+00    3.534600e+00
  7.545054e+00    3.484279e+00
  7.560929e+00    3.462766e+00
  7.576805e+00    3.433285e+00
  7.592681e+00    3.505439e+00
  7.608556e+00    3.445396e+00
  7.624432e+00    3.411259e+00
  7.640307e+00    3.411831e+00
  7.656183e+00    3.439883e+00
  7.672058e+00    3.434827e+00
  7.687934e+00    3.407955e+00
  7.703810e+00    3.410181e+00
  7.719685e+00    3.456170e+00
  7.735561e+00    3.466271e+00
  7.751436e+00    3.517299e+00
  7.767312e+00    3.445095e+00
  7.783187e+00    3.503287e+00
  7.799063e+00    3.501464e+00
  7.814939e+00    3.443544e+00
  7.830814e+00    3.506868e+00
  7.846690e+00    3.454654e+00
  7.862565e+00    3.434912e+00
  7.878441e+00    3.422258e+00
  7.894317e+00    3.410090e+00
  7.910192e+00    3.435043e+00
  7.926068e+00    3.503546e+00
  7.941943e+00    3.432341e+00
  7.957819e+00    3.417451e+00
  7.973694e+00    3.394470e+00
  7.989570e+00    3.416198e+00
  8.005446e+00    3.420383e+00
  8.021321e+00    3.439887e+00
  8.037197e+00    3.414709e+00
  8.053072e+00    3.390128e+00
  8.068948e+00    3.424068e+00
  8.084823e+00    3.396321e+00
  8.100699e+00    3.465278e+00
  8.116575e+00    3.400876e+00
  8.132450e+00    3.514254e+00
  8.148326e+00    3.451321e+00
  8.164201e+00    3.447232e+00
  8.180077e+00    3.492335e+00
  8.195952e+00    3.441015e+00
  8.211828e+00    3.465034e+00
  8.227704e+00    3.527851e+00
  8.243579e+00    3.510500e+00
  8.259455e+00    3.431382e+00
  8.275330e+00    3.440014e+00
  8.291206e+00    3.438459e+00
  8.307081e+00    3.415554e+00
  8.322957e+00    3.410461e+00
  8.338833e+00    3.401906e+00
  8.354708e+00    3.373257e+00
  8.370584e+00    3.308597e+00
  8.386459e+00    3.325091e+00
  8.402335e+00    3.389339e+00
  8.418210e+00    3.361108e+00
  8.434086e+00    3.343274e+00
  8.449962e+00    3.383347e+00
  8.465837e+00    3.350501e+00
  8.481713e+00    3.370944e+00
  8.497588e+00    3.448065e+00
  8.513464e+00    3.395263e+00
  8.529339e+00    3.398332e+00
  8.545215e+00    3.417291e+00
  8.561091e+00    3.314401e+00
  8.576966e+00    3.310909e+00
  8.592842e+00    3.335116e+00
  8.608717e+00    3.421787e+00
  8.624593e+00    3.439884e+00
  8.640468e+00    3.352815e+00
  8.656344e+00    3.289527e+00
  8.672220e+00    3.311126e+00
  8.688095e+00    3.298048e+00
  8.703971e+00    3.342837e+00
  8.719846e+00    3.288858e+00
  8.735722e+00    3.331099e+00
  8.751598e+00    3.325830e+00
  8.767473e+00    3.291557e+00
  8.783349e+00    3.323773e+00
  8.799224e+00    3.313698e+00
  8.815100e+00    3.306624e+00
  8.830975e+00    3.282388e+00
  8.846851e+00    3.355698e+00
  8.862727e+00    3.324324e+00
  8.878602e+00    3.294732e+00
  8.894478e+00    3.317184e+00
  8.910353e+00    3.330301e+00
  8.926229e+00    3.333078e+00
  8.942104e+00    3.293554e+00
  8.957980e+00    3.323385e+00
  8.973856e+00    3.284014e+00
  8.989731e+00    3.330044e+00
  9.005607e+00    3.291768e+00
  9.021482e+00    3.309037e+00
  9.037358e+00    3.247957e+00
  9.053233e+00    3.258958e+00
  9.069109e+00    3.290386e+00
  9.084985e+00    3.252057e+00
  9.100860e+00    3.242568e+00
  9.116736e+00    3.241817e+00
  9.132611e+00    3.232956e+00
  9.148487e+00    3.290062e+00
  9.164362e+00    3.282067e+00
  9.180238e+00    3.196416e+00
  9.196114e+00    3.196870e+00
  9.211989e+00    3.192964e+00
  9.227865e+00    3.212776e+00
  9.243740e+00    3.227525e+00
  9.259616e+00    3.217712e+00
  9.275491e+00    3.227851e+00
  9.291367e+00    3.304263e+00
  9.307243e+00    3.256025e+00
  9.323118e+00    3.223178e+00
  9.338994e+00    3.237475e+00
  9.354869e+00    3.240354e+00
  9.370745e+00    3.153170e+00
  9.386620e+00    3.200117e+00
  9.402496e+00    3.223661e+00
  9.418372e+00    3.215398e+00
  9.434247e+00    3.196914e+00
  9.450123e+00    3.212679e+00
  9.465998e+00    3.200694e+00
  9.481874e+00    3.206105e+00
  9.497749e+00    3.219388e+00
  9.513625e+00    3.215930e+00
  9.529501e+00    3.257486e+00
  9.545376e+00    3.223990e+00
  9.561252e+00    3.200313e+00
  9.577127e+00    3.190327e+00
  9.593003e+00    3.239404e+00
  9.608878e+00    3.213342e+00
  9.624754e+00    3.228610e+00
  9.640630e+00    3.222289e+00
  9.656505e+00    3.233287e+00
  9.672381e+00    3.179298e+00
  9.688256e+00    3.131941e+00
  9.704132e+00    3.126651e+00
  9.720008e+00    3.161198e+00
  9.735883e+00    3.199742e+00
  9.751759e+00    3.200848e+00
  9.767634e+00    3.166344e+00
  9.783510e+00    3.128891e+00
  9.799385e+00    3.197397e+00
  9.815261e+00    3.202816e+00
  9.831137e+00    3.122664e+00
  9.847012e+00    3.108021e+00
  9.862888e+00    3.174058e+00
  9.878763e+00    3.170832e+00
  9.894639e+00    3.098750e+00
  9.910514e+00    3.077578e+00
  9.926390e+00    3.135282e+00
  9.942266e+00    3.131587e+00
  9.958141e+00    3.097984e+00
  9.974017e+00    3.142086e+00
  9.989892e+00    3.121126e+00
  1.000577e+01    3.114124e+00
  1.002164e+01    3.136728e+00
  1.003752e+01    3.060520e+00
  1.005339e+01    3.080922e+00
  1.006927e+01    3.120825e+00
  1.008515e+01    3.126665e+00
  1.010102e+01    3.098225e+00
  1.011690e+01    3.040182e+00
  1.013277e+01    3.056962e+00
  1.014865e+01    3.039235e+00
  1.016452e+01    3.072227e+00
  1.018040e+01    3.021966e+00
  1.019627e+01    3.016903e+00
  1.021215e+01    3.058604e+00
  1.022803e+01    3.075008e+00
  1.024390e+01    3.095979e+00
  1.025978e+01    3.120962e+00
  1.027565e+01    3.096788e+00
  1.029153e+01    3.073616e+00
  1.030740e+01    3.066178e+00
  1.032328e+01    3.035416e+00
  1.033915e+01    3.026513e+00
  1.035503e+01    3.087363e+00
  1.037091e+01    3.127313e+00
  1.038678e+01    3.083286e+00
  1.040266e+01    3.040956e+00
  1.041853e+01    3.036130e+00
  1.043441e+01    3.048502e+00
  1.045028e+01    3.085180e+00
  1.046616e+01    3.059742e+00
  1.048204e+01    3.034267e+00
  1.049791e+01    3.017341e+00
  1.051379e+01    3.001481e+00
  1.052966e+01    2.987412e+00
  1.054554e+01    2.924604e+00
  1.056141e+01    2.994987e+00
  1.057729e+01    3.051614e+00
  1.059316e+01    3.014730e+00
  1.060904e+01    2.920501e+00
  1.062492e+01    2.934139e+00
  1.064079e+01    3.014550e+00
  1.065667e+01    3.009531e+00
  1.067254e+01    2.943231e+00
  1.068842e+01    2.958404e+00
  1.070429e+01    2.943204e+00
  1.072017e+01    2.936970e+00
  1.073604e+01    2.960417e+00
  1.075192e+01    2.971830e+00
  1.076780e+01    2.960499e+00
  1.078367e+01    2.952996e+00
  1.079955e+01    2.985730e+00
  1.081542e+01    2.948187e+00
  1.083130e+01    2.922043e+00
  1.084717e+01    2.951071e+00
  1.086305e+01    3.021163e+00
  1.087892e+01    2.951091e+00
  1.089480e+01    2.909814e+00
  1.091068e+01    2.895717e+00
  1.092655e+01    2.931847e+00
  1.094243e+01    2.923880e+00
  1.095830e+01    2.937838e+00
  1.097418e+01    2.930840e+00
  1.099005e+01    2.880394e+00
  1.100593e+01    2.893847e+00
  1.102180e+01    2.916616e+00
  1.103768e+01    2.942413e+00
  1.105356e+01    2.915390e+00
  1.106943e+01    2.870043e+00
  1.108531e+01    2.930206e+00
  1.110118e+01    2.915989e+00
  1.111706e+01    2.866132e+00
  1.113293e+01    2.833722e+00
  1.114881e+01    2.880090e+00
  1.116468e+01    2.864807e+00
  1.118056e+01    2.874357e+00
  1.119644e+01    2.852936e+00
  1.121231e+01    2.816314e+00
  1.122819e+01    2.844777e+00
  1.124406e+01    2.900505e+00
  1.125994e+01    2.847295e+00
  1.127581e+01    2.853606e+00
  1.129169e+01    2.820929e+00
  1.130756e+01    2.794721e+00
  1.132344e+01    2.838895e+00
  1.133932e+01    2.850292e+00
  1.135519e+01    2.754285e+00
  1.137107e+01    2.791346e+00
  1.138694e+01    2.792680e+00
  1.140282e+01    2.804837e+00
  1.141869e+01    2.787378e+00
  1.143457e+01    2.799551e+00
  1.145045e+01    2.818045e+00
  1.146632e+01    2.768469e+00
  1.148220e+01    2.765986e+00
  1.149807e+01    2.787540e+00
  1.151395e+01    2.779978e+00
  1.152982e+01    2.771398e+00
  1.154570e+01    2.815779e+00
  1.156157e+01    2.763608e+00
  1.157745e+01    2.789822e+00
  1.159333e+01    2.780513e+00
  1.160920e+01    2.765748e+00
  1.162508e+01    2.842154e+00
  1.164095e+01    2.801787e+00
  1.165683e+01    2.763671e+00
  1.167270e+01    2.795950e+00
  1.168858e+01    2.772771e+00
  1.170445e+01    2.747659e+00
  1.172033e+01    2.766335e+00
  1.173621e+01    2.783381e+00
  1.175208e+01    2.734873e+00
  1.176796e+01    2.777461e+00
  1.178383e+01    2.794459e+00
  1.179971e+01    2.744373e+00
  1.181558e+01    2.758323e+00
  1.183146e+01    2.733004e+00
  1.184733e+01    2.712403e+00
  1.186321e+01    2.757948e+00
  1.187909e+01    2.777937e+00
  1.189496e+01    2.729779e+00
  1.191084e+01    2.736573e+00
  1.192671e+01    2.767817e+00
  1.194259e+01    2.743688e+00
  1.195846e+01    2.700767e+00
  1.197434e+01    2.702259e+00
  1.199021e+01    2.713221e+00
  1.200609e+01    2.701308e+00
  1.202197e+01    2.671721e+00
  1.203784e+01    2.723994e+00
  1.205372e+01    2.762611e+00
  1.206959e+01    2.740449e+00
  1.208547e+01    2.716853e+00
  1.210134e+01    2.669667e+00
  1.211722e+01    2.665411e+00
  1.213309e+01    2.689234e+00
  1.214897e+01    2.755332e+00
  1.216485e+01    2.712587e+00
  1.218072e+01    2.681001e+00
  1.219660e+01    2.696334e+00
  1.221247e+01    2.703386e+00
  1.222835e+01    2.714922e+00
  1.224422e+01    2.725565e+00
  1.226010e+01    2.692614e+00
  1.227597e+01    2.701437e+00
  1.229185e+01    2.674291e+00
  1.230773e+01    2.697407e+00
  1.232360e+01    2.691540e+00
  1.233948e+01    2.657967e+00
  1.235535e+01    2.626537e+00
  1.237123e+01    2.629261e+00
  1.238710e+01    2.679911e+00
  1.240298e+01    2.732928e+00
  1.241886e+01    2.690414e+00
  1.243473e+01    2.675889e+00
  1.245061e+01    2.693838e+00
  1.246648e+01    2.747888e+00
  1.248236e+01    2.719626e+00
  1.249823e+01    2.716743e+00
  1.251411e+01    2.699332e+00
  1.252998e+01    2.728875e+00
  1.254586e+01    2.748601e+00
  1.256174e+01    2.787048e+00
  1.257761e+01    2.779497e+00
  1.259349e+01    2.750059e+00
  1.260936e+01    2.720126e+00
  1.262524e+01    2.766254e+00
  1.264111e+01    2.766594e+00
  1.265699e+01    2.769648e+00
  1.267286e+01    2.832429e+00
  1.268874e+01    2.800206e+00
  1.270462e+01    2.850374e+00
  1.272049e+01    2.830399e+00
  1.273637e+01    2.875937e+00
  1.275224e+01    2.878556e+00
  1.276812e+01    2.911022e+00
  1.278399e+01    2.923079e+00
  1.279987e+01    2.980512e+00
  1.281574e+01    3.027015e+00
  1.283162e+01    3.130055e+00
  1.284750e+01    3.247123e+00
  1.286337e+01    3.277049e+00
  1.287925e+01    3.434351e+00
  1.289512e+01    3.569789e+00
  1.291100e+01    3.682518e+00
  1.292687e+01    3.851896e+00
  1.294275e+01    4.101706e+00
  1.295862e+01    4.418792e+00
  1.297450e+01    4.749399e+00
  1.299038e+01    5.339829e+00
  1.300625e+01    5.996288e+00
  1.302213e+01    6.719518e+00
  1.303800e+01    7.690816e+00
  1.305388e+01    8.840578e+00
  1.306975e+01    1.022500e+01
  1.308563e+01    1.143945e+01
  1.310150e+01    1.258622e+01
  1.311738e+01    1.376247e+01
  1.313326e+01    1.479801e+01
  1.314913e+01    1.571066e+01
  1.316501e+01    1.633200e+01
  1.318088e+01    1.635318e+01
  1.319676e+01    1.562538e+01
  1.321263e+01    1.430836e+01
  1.322851e+01    1.253113e+01
  1.324438e+01    1.065456e+01
  1.326026e+01    9.086737e+00
  1.327614e+01    7.817992e+00
  1.329201e+01    6.711176e+00
  1.330789e+01    5.905866e+00
  1.332376e+01    5.326782e+00
  1.333964e+01    4.786753e+00
  1.335551e+01    4.430964e+00
  1.337139e+01    4.129071e+00
  1.338727e+01    3.873188e+00
  1.340314e+01    3.651108e+00
  1.341902e+01    3.474416e+00
  1.343489e+01    3.359518e+00
  1.345077e+01    3.230664e+00
  1.346664e+01    3.125472e+00
  1.348252e+01    3.052086e+00
  1.349839e+01    2.974653e+00
  1.351427e+01    2.957592e+00
  1.353015e+01    2.885503e+00
  1.354602e+01    2.808872e+00
  1.356190e+01    2.760931e+00
  1.357777e+01    2.750841e+00
  1.359365e+01    2.724312e+00
  1.360952e+01    2.706925e+00
  1.362540e+01    2.702369e+00
  1.364127e+01    2.633233e+00
  1.365715e+01    2.624278e+00
  1.367303e+01    2.603666e+00
  1.368890e+01    2.620762e+00
  1.370478e+01    2.570474e+00
  1.372065e+01    2.529443e+00
  1.373653e+01    2.525548e+00
  1.375240e+01    2.492815e+00
  1.376828e+01    2.469728e+00
  1.378415e+01    2.492348e+00
  1.380003e+01    2.505268e+00
  1.381591e+01    2.480614e+00
  1.383178e+01    2.495097e+00
  1.384766e+01    2.432794e+00
  1.386353e+01    2.412874e+00
  1.387941e+01    2.416957e+00
  1.389528e+01    2.418008e+00
  1.391116e+01    2.414083e+00
  1.392703e+01    2.390396e+00
  1.394291e+01    2.364141e+00
  1.395879e+01    2.367011e+00
  1.397466e+01    2.391214e+00
  1.399054e+01    2.404130e+00
  1.400641e+01    2.378945e+00
  1.402229e+01    2.346165e+00
  1.403816e+01    2.332389e+00
  1.405404e+01    2.324154e+00
  1.406991e+01    2.320995e+00
  1.408579e+01    2.336229e+00
  1.410167e+01    2.325824e+00
  1.411754e+01    2.331339e+00
  1.413342e+01    2.312119e+00
  1.414929e+01    2.329599e+00
  1.416517e+01    2.314738e+00
  1.418104e+01    2.318196e+00
  1.419692e+01    2.280552e+00
  1.421279e+01    2.285997e+00
  1.422867e+01    2.299519e+00
  1.424455e+01    2.276458e+00
  1.426042e+01    2.268551e+00
  1.427630e+01    2.240132e+00
  1.429217e+01    2.277013e+00
  1.430805e+01    2.266902e+00
  1.432392e+01    2.250891e+00
  1.433980e+01    2.284291e+00
  1.435568e+01    2.268520e+00
  1.437155e+01    2.256563e+00
  1.438743e+01    2.267504e+00
  1.440330e+01    2.249177e+00
  1.441918e+01    2.204386e+00
  1.443505e+01    2.194124e+00
  1.445093e+01    2.198505e+00
  1.446680e+01    2.222499e+00
  1.448268e+01    2.208775e+00
  1.449856e+01    2.213727e+00
  1.451443e+01    2.207149e+00
  1.453031e+01    2.224101e+00
  1.454618e+01    2.216466e+00
  1.456206e+01    2.214428e+00
  1.457793e+01    2.192657e+00
  1.459381e+01    2.204242e+00
  1.460968e+01    2.185880e+00
  1.462556e+01    2.191217e+00
  1.464144e+01    2.214855e+00
  1.465731e+01    2.220459e+00
  1.467319e+01    2.220544e+00
  1.468906e+01    2.223146e+00
  1.470494e+01    2.235265e+00
  1.472081e+01    2.227784e+00
  1.473669e+01    2.218771e+00
  1.475256e+01    2.189260e+00
  1.476844e+01    2.187431e+00
  1.478432e+01    2.192255e+00
  1.480019e+01    2.213125e+00
  1.481607e+01    2.218858e+00
  1.483194e+01    2.206689e+00
  1.484782e+01    2.176444e+00
  1.486369e+01    2.221407e+00
  1.487957e+01    2.257250e+00
  1.489544e+01    2.227734e+00
  1.491132e+01    2.243585e+00
  1.492720e+01    2.270460e+00
  1.494307e+01    2.313776e+00
  1.495895e+01    2.387761e+00
  1.497482e+01    2.339432e+00
  1.499070e+01    2.363933e+00
  1.500657e+01    2.465468e+00
  1.502245e+01    2.501910e+00
  1.503832e+01    2.600227e+00
  1.505420e+01    2.719557e+00
  1.507008e+01    2.780274e+00
  1.508595e+01    2.955148e+00
  1.510183e+01    3.226965e+00
  1.511770e+01    3.498211e+00
  1.513358e+01    3.792547e+00
  1.514945e+01    4.191963e+00
  1.516533e+01    4.595550e+00
  1.518120e+01    4.910993e+00
  1.519708e+01    5.193238e+00
  1.521296e+01    5.457433e+00
  1.522883e+01    5.628725e+00
  1.524471e+01    5.770351e+00
  1.526058e+01    5.852668e+00
  1.527646e+01    5.714064e+00
  1.529233e+01    5.514540e+00
  1.530821e+01    5.218081e+00
  1.532409e+01    4.670934e+00
  1.533996e+01    4.221496e+00
  1.535584e+01    3.786217e+00
  1.537171e+01    3.459757e+00
  1.538759e+01    3.175906e+00
  1.540346e+01    2.929448e+00
  1.541934e+01    2.792856e+00
  1.543521e+01    2.648278e+00
  1.545109e+01    2.548105e+00
  1.546697e+01    2.471514e+00
  1.548284e+01    2.353670e+00
  1.549872e+01    2.295963e+00
  1.551459e+01    2.278110e+00
  1.553047e+01    2.179775e+00
  1.554634e+01    2.181325e+00
  1.556222e+01    2.147958e+00
  1.557809e+01    2.128664e+00
  1.559397e+01    2.085222e+00
  1.560985e+01    2.085114e+00
  1.562572e+01    2.044411e+00
  1.564160e+01    2.019570e+00
  1.565747e+01    2.007798e+00
  1.567335e+01    2.023784e+00
  1.568922e+01    2.018994e+00
  1.570510e+01    1.970548e+00
  1.572097e+01    1.987742e+00
  1.573685e+01    1.978824e+00
  1.575273e+01    1.972248e+00
  1.576860e+01    1.980531e+00
  1.578448e+01    1.958834e+00
  1.580035e+01    1.923430e+00
  1.581623e+01    1.942204e+00
  1.583210e+01    1.957324e+00
  1.584798e+01    1.955040e+00
  1.586385e+01    1.921069e+00
  1.587973e+01    1.910469e+00
  1.589561e+01    1.926216e+00
  1.591148e+01    1.926710e+00
  1.592736e+01    1.911404e+00
  1.594323e+01    1.897054e+00
  1.595911e+01    1.865997e+00
  1.597498e+01    1.891821e+00
  1.599086e+01    1.900263e+00
  1.600673e+01    1.853023e+00
  1.602261e+01    1.837486e+00
  1.603849e+01    1.867078e+00
  1.605436e+01    1.876203e+00
  1.607024e+01    1.870596e+00
  1.608611e+01    1.877234e+00
  1.610199e+01    1.862521e+00
  1.611786e+01    1.888183e+00
  1.613374e+01    1.853034e+00
  1.614961e+01    1.831107e+00
  1.616549e+01    1.843835e+00
  1.618137e+01    1.845506e+00
  1.619724e+01    1.861951e+00
  1.621312e+01    1.858364e+00
  1.622899e+01    1.823604e+00
  1.624487e+01    1.796086e+00
  1.626074e+01    1.785219e+00
  1.627662e+01    1.832459e+00
  1.629250e+01    1.843083e+00
  1.630837e+01    1.806844e+00
  1.632425e+01    1.796599e+00
  1.634012e+01    1.790766e+00
  1.635600e+01    1.829692e+00
  1.637187e+01    1.802562e+00
  1.638775e+01    1.823025e+00
  1.640362e+01    1.771015e+00
  1.641950e+01    1.734578e+00
  1.643538e+01    1.745026e+00
  1.645125e+01    1.772548e+00
  1.646713e+01    1.808745e+00
  1.648300e+01    1.794242e+00
  1.649888e+01    1.765877e+00
  1.651475e+01    1.763832e+00
  1.653063e+01    1.782890e+00
  1.654650e+01    1.769101e+00
  1.656238e+01    1.749224e+00
  1.657826e+01    1.753882e+00
  1.659413e+01    1.737637e+00
  1.661001e+01    1.756996e+00
  1.662588e+01    1.752223e+00
  1.664176e+01    1.739010e+00
  1.665763e+01    1.744657e+00
  1.667351e+01    1.746388e+00
  1.668938e+01    1.724432e+00
  1.670526e+01    1.729812e+00
  1.672114e+01    1.738294e+00
  1.673701e+01    1.744159e+00
  1.675289e+01    1.732257e+00
  1.676876e+01    1.714559e+00
  1.678464e+01    1.691092e+00
  1.680051e+01    1.671740e+00
  1.681639e+01    1.664867e+00
  1.683226e+01    1.678205e+00
  1.684814e+01    1.697827e+00
  1.686402e+01    1.690932e+00
  1.687989e+01    1.709021e+00
  1.689577e+01    1.700098e+00
  1.691164e+01    1.698490e+00
  1.692752e+01    1.673357e+00
  1.694339e+01    1.663565e+00
  1.695927e+01    1.684154e+00
  1.697514e+01    1.672671e+00
  1.699102e+01    1.662606e+00
  1.700690e+01    1.684563e+00
  1.702277e+01    1.702695e+00
  1.703865e+01    1.706987e+00
  1.705452e+01    1.674233e+00
  1.707040e+01    1.641712e+00
  1.708627e+01    1.640357e+00
  1.710215e+01    1.671467e+00
  1.711802e+01    1.650521e+00
  1.713390e+01    1.653768e+00
  1.714978e+01    1.636273e+00
  1.716565e+01    1.624417e+00
  1.718153e+01    1.639933e+00
  1.719740e+01    1.628981e+00
  1.721328e+01    1.625435e+00
  1.722915e+01    1.615523e+00
  1.724503e+01    1.601045e+00
  1.726091e+01    1.627142e+00
  1.727678e+01    1.629347e+00
  1.729266e+01    1.642630e+00
  1.730853e+01    1.627548e+00
  1.732441e+01    1.615084e+00
  1.734028e+01    1.625514e+00
  1.735616e+01    1.613210e+00
  1.737203e+01    1.598738e+00
  1.738791e+01    1.610031e+00
  1.740379e+01    1.612897e+00
  1.741966e+01    1.602065e+00
  1.743554e+01    1.583085e+00
  1.745141e+01    1.577743e+00
  1.746729e+01    1.575040e+00
  1.748316e+01    1.577662e+00
  1.749904e+01    1.607479e+00
  1.751491e+01    1.592974e+00
  1.753079e+01    1.601455e+00
  1.754667e+01    1.584768e+00
  1.756254e+01    1.592053e+00
  1.757842e+01    1.587536e+00
  1.759429e+01    1.583511e+00
  1.761017e+01    1.580178e+00
  1.762604e+01    1.554908e+00
  1.764192e+01    1.560430e+00
  1.765779e+01    1.566650e+00
  1.767367e+01    1.558682e+00
  1.768955e+01    1.574665e+00
  1.770542e+01    1.576827e+00
  1.772130e+01    1.551338e+00
  1.773717e+01    1.542676e+00
  1.775305e+01    1.546432e+00
  1.776892e+01    1.576766e+00
  1.778480e+01    1.545576e+00
  1.780067e+01    1.503645e+00
  1.781655e+01    1.511831e+00
  1.783243e+01    1.487624e+00
  1.784830e+01    1.499421e+00
  1.786418e+01    1.507322e+00
  1.788005e+01    1.526877e+00
  1.789593e+01    1.535753e+00
  1.791180e+01    1.527212e+00
  1.792768e+01    1.527374e+00
  1.794355e+01    1.544962e+00
  1.795943e+01    1.532645e+00
  1.797531e+01    1.494434e+00
  1.799118e+01    1.474196e+00
  1.800706e+01    1.503427e+00
  1.802293e+01    1.521848e+00
  1.803881e+01    1.547760e+00
  1.805468e+01    1.511263e+00
  1.807056e+01    1.522783e+00
  1.808643e+01    1.497671e+00
  1.810231e+01    1.491159e+00
  1.811819e+01    1.524926e+00
  1.813406e+01    1.499053e+00
  1.814994e+01    1.496033e+00
  1.816581e+01    1.497731e+00
  1.818169e+01    1.510341e+00
  1.819756e+01    1.507973e+00
  1.821344e+01    1.477135e+00
  1.822932e+01    1.462815e+00
  1.824519e+01    1.480285e+00
  1.826107e+01    1.472504e+00
  1.827694e+01    1.470237e+00
  1.829282e+01    1.476636e+00
  1.830869e+01    1.459702e+00
  1.832457e+01    1.455873e+00
  1.834044e+01    1.486379e+00
  1.835632e+01    1.446830e+00
  1.837220e+01    1.437797e+00
  1.838807e+01    1.435244e+00
  1.840395e+01    1.469954e+00
  1.841982e+01    1.478229e+00
  1.843570e+01    1.454877e+00
  1.845157e+01    1.454705e+00
  1.846745e+01    1.460139e+00
  1.848332e+01    1.437508e+00
  1.849920e+01    1.434872e+00
  1.851508e+01    1.462590e+00
  1.853095e+01    1.442909e+00
  1.854683e+01    1.437978e+00
  1.856270e+01    1.427880e+00
  1.857858e+01    1.423535e+00
  1.859445e+01    1.428244e+00
  1.861033e+01    1.432889e+00
  1.862620e+01    1.416547e+00
  1.864208e+01    1.398398e+00
  1.865796e+01    1.431780e+00
  1.867383e+01    1.444806e+00
  1.868971e+01    1.439973e+00
  1.870558e+01    1.451929e+00
  1.872146e+01    1.453021e+00
  1.873733e+01    1.418034e+00
  1.875321e+01    1.413387e+00
  1.876908e+01    1.393141e+00
  1.878496e+01    1.395371e+00
  1.880084e+01    1.393371e+00
  1.881671e+01    1.395049e+00
  1.883259e+01    1.401476e+00
  1.884846e+01    1.379765e+00
  1.886434e+01    1.392849e+00
  1.888021e+01    1.377457e+00
  1.889609e+01    1.380488e+00
  1.891196e+01    1.391846e+00
  1.892784e+01    1.397019e+00
  1.894372e+01    1.380197e+00
  1.895959e+01    1.376702e+00
  1.897547e+01    1.378739e+00
  1.899134e+01    1.396418e+00
  1.900722e+01    1.387350e+00
  1.902309e+01    1.397324e+00
  1.903897e+01    1.402180e+00
  1.905484e+01    1.395919e+00
  1.907072e+01    1.417121e+00
  1.908660e+01    1.401411e+00
  1.910247e+01    1.396784e+00
  1.911835e+01    1.372785e+00
  1.913422e+01    1.391540e+00
  1.915010e+01    1.394923e+00
  1.916597e+01    1.347133e+00
  1.918185e+01    1.375907e+00
  1.919773e+01    1.396454e+00
  1.921360e+01    1.386228e+00
  1.922948e+01    1.364164e+00
  1.924535e+01    1.360651e+00
  1.926123e+01    1.334902e+00
  1.927710e+01    1.345706e+00
  1.929298e+01    1.357096e+00
  1.930885e+01    1.353144e+00
  1.932473e+01    1.316064e+00
  1.934061e+01    1.347958e+00
  1.935648e+01    1.366383e+00
  1.937236e+01    1.375384e+00
  1.938823e+01    1.349673e+00
  1.940411e+01    1.339271e+00
  1.941998e+01    1.324402e+00
  1.943586e+01    1.324538e+00
  1.945173e+01    1.325880e+00
  1.946761e+01    1.355708e+00
  1.948349e+01    1.354581e+00
  1.949936e+01    1.344983e+00
  1.951524e+01    1.330708e+00
  1.953111e+01    1.355333e+00
  1.954699e+01    1.343210e+00
  1.956286e+01    1.344985e+00
  1.957874e+01    1.343155e+00
  1.959461e+01    1.330655e+00
  1.961049e+01    1.305539e+00
  1.962637e+01    1.320346e+00
  1.964224e+01    1.341480e+00
  1.965812e+01    1.341830e+00
  1.967399e+01    1.337005e+00
  1.968987e+01    1.316058e+00
  1.970574e+01    1.326024e+00
  1.972162e+01    1.331619e+00
  1.973749e+01    1.325142e+00
  1.975337e+01    1.308741e+00
  1.976925e+01    1.293631e+00
  1.978512e+01    1.305594e+00
  1.980100e+01    1.312213e+00
  1.981687e+01    1.314898e+00
  1.983275e+01    1.323263e+00
  1.984862e+01    1.311854e+00
  1.986450e+01    1.305968e+00
  1.988037e+01    1.314348e+00
  1.989625e+01    1.293024e+00
  1.991213e+01    1.292921e+00
  1.992800e+01    1.282968e+00
  1.994388e+01    1.288391e+00
  1.995975e+01    1.288634e+00
  1.997563e+01    1.276860e+00
  1.999150e+01    1.290364e+00
  2.000738e+01    1.282103e+00
  2.002325e+01    1.312969e+00
  2.003913e+01    1.320413e+00
  2.005501e+01    1.275572e+00
  2.007088e+01    1.270640e+00
  2.008676e+01    1.267088e+00
  2.010263e+01    1.280936e+00
  2.011851e+01    1.287469e+00
  2.013438e+01    1.250071e+00
  2.015026e+01    1.258725e+00
  2.016614e+01    1.274008e+00
  2.018201e+01    1.279034e+00
  2.019789e+01    1.275686e+00
  2.021376e+01    1.246128e+00
  2.022964e+01    1.277156e+00
  2.024551e+01    1.270749e+00
  2.026139e+01    1.258256e+00
  2.027726e+01    1.266308e+00
  2.029314e+01    1.274206e+00
  2.030902e+01    1.250800e+00
  2.032489e+01    1.238148e+00
  2.034077e+01    1.249735e+00
  2.035664e+01    1.267124e+00
  2.037252e+01    1.255901e+00
  2.038839e+01    1.256466e+00
  2.040427e+01    1.273647e+00
  2.042014e+01    1.258418e+00
  2.043602e+01    1.249158e+00
  2.045190e+01    1.243188e+00
  2.046777e+01    1.229108e+00
  2.048365e+01    1.219100e+00
  2.049952e+01    1.242048e+00
  2.051540e+01    1.239308e+00
  2.053127e+01    1.223047e+00
  2.054715e+01    1.238243e+00
  2.056302e+01    1.246427e+00
  2.057890e+01    1.252485e+00
  2.059478e+01    1.253737e+00
  2.061065e+01    1.245455e+00
  2.062653e+01    1.233846e+00
  2.064240e+01    1.250600e+00
  2.065828e+01    1.228301e+00
  2.067415e+01    1.202822e+00
  2.069003e+01    1.213643e+00
  2.070590e+01    1.205243e+00
  2.072178e+01    1.228486e+00
  2.073766e+01    1.265096e+00
  2.075353e+01    1.233530e+00
  2.076941e+01    1.225402e+00
  2.078528e+01    1.254643e+00
  2.080116e+01    1.258612e+00
  2.081703e+01    1.212940e+00
  2.083291e+01    1.215104e+00
  2.084878e+01    1.228400e+00
  2.086466e+01    1.209962e+00
  2.088054e+01    1.205366e+00
  2.089641e+01    1.248245e+00
  2.091229e+01    1.226482e+00
  2.092816e+01    1.211513e+00
  2.094404e+01    1.197040e+00
  2.095991e+01    1.221581e+00
  2.097579e+01    1.251014e+00
  2.099166e+01    1.233586e+00
  2.100754e+01    1.193445e+00
  2.102342e+01    1.201331e+00
  2.103929e+01    1.201485e+00
  2.105517e+01    1.219861e+00
  2.107104e+01    1.211855e+00
  2.108692e+01    1.228143e+00
  2.110279e+01    1.227054e+00
  2.111867e+01    1.252702e+00
  2.113455e+01    1.248645e+00
  2.115042e+01    1.242961e+00
  2.116630e+01    1.231223e+00
  2.118217e+01    1.220066e+00
  2.119805e+01    1.216915e+00
  2.121392e+01    1.236775e+00
  2.122980e+01    1.248124e+00
  2.124567e+01    1.246477e+00
  2.126155e+01    1.277224e+00
  2.127743e+01    1.255339e+00
  2.129330e+01    1.265525e+00
  2.130918e+01    1.281508e+00
  2.132505e+01    1.279789e+00
  2.134093e+01    1.277565e+00
  2.135680e+01    1.277138e+00
  2.137268e+01    1.288044e+00
  2.138855e+01    1.313847e+00
  2.140443e+01    1.313076e+00
  2.142031e+01    1.325751e+00
  2.143618e+01    1.348236e+00
  2.145206e+01    1.356205e+00
  2.146793e+01    1.377709e+00
  2.148381e+01    1.385739e+00
  2.149968e+01    1.417973e+00
  2.151556e+01    1.465220e+00
  2.153143e+01    1.475538e+00
  2.154731e+01    1.535510e+00
  2.156319e+01    1.550795e+00
  2.157906e+01    1.596490e+00
  2.159494e+01    1.700544e+00
  2.161081e+01    1.766587e+00
  2.162669e+01    1.842543e+00
  2.164256e+01    1.970618e+00
  2.165844e+01    2.087073e+00
  2.167431e+01    2.306419e+00
  2.169019e+01    2.513672e+00
  2.170607e+01    2.750687e+00
  2.172194e+01    3.132020e+00
  2.173782e+01    3.567463e+00
  2.175369e+01    4.079606e+00
  2.176957e+01    4.618582e+00
  2.178544e+01    5.160310e+00
  2.180132e+01    5.835534e+00
  2.181719e+01    6.463792e+00
  2.183307e+01    7.135080e+00
  2.184895e+01    7.793463e+00
  2.186482e+01    8.369044e+00
  2.188070e+01    8.804326e+00
  2.189657e+01    8.919539e+00
  2.191245e+01    8.743258e+00
  2.192832e+01    8.280474e+00
  2.194420e+01    7.533943e+00
  2.196007e+01    6.580729e+00
  2.197595e+01    5.668106e+00
  2.199183e+01    4.835381e+00
  2.200770e+01    4.177386e+00
  2.202358e+01    3.622175e+00
  2.203945e+01    3.161962e+00
  2.205533e+01    2.846994e+00
  2.207120e+01    2.580140e+00
  2.208708e+01    2.343439e+00
  2.210296e+01    2.130383e+00
  2.211883e+01    2.019901e+00
  2.213471e+01    1.865481e+00
  2.215058e+01    1.769132e+00
  2.216646e+01    1.715860e+00
  2.218233e+01    1.622296e+00
  2.219821e+01    1.532351e+00
  2.221408e+01    1.484467e+00
  2.222996e+01    1.481954e+00
  2.224584e+01    1.441478e+00
  2.226171e+01    1.406314e+00
  2.227759e+01    1.367278e+00
  2.229346e+01    1.328022e+00
  2.230934e+01    1.295810e+00
  2.232521e+01    1.262834e+00
  2.234109e+01    1.270357e+00
  2.235696e+01    1.245511e+00
  2.237284e+01    1.217027e+00
  2.238872e+01    1.213618e+00
  2.240459e+01    1.209497e+00
  2.242047e+01    1.193630e+00
  2.243634e+01    1.196870e+00
  2.245222e+01    1.184586e+00
  2.246809e+01    1.150248e+00
  2.248397e+01    1.137730e+00
  2.249984e+01    1.161309e+00
  2.251572e+01    1.162868e+00
  2.253160e+01    1.161226e+00
  2.254747e+01    1.131204e+00
  2.256335e+01    1.131600e+00
  2.257922e+01    1.133170e+00
  2.259510e+01    1.122100e+00
  2.261097e+01    1.122139e+00
  2.262685e+01    1.109089e+00
  2.264272e+01    1.090009e+00
  2.265860e+01    1.080886e+00
  2.267448e+01    1.096643e+00
  2.269035e+01    1.082537e+00
  2.270623e+01    1.089562e+00
  2.272210e+01    1.084689e+00
  2.273798e+01    1.079866e+00
  2.275385e+01    1.050041e+00
  2.276973e+01    1.040328e+00
  2.278560e+01    1.066257e+00
  2.280148e+01    1.059743e+00
  2.281736e+01    1.052311e+00
  2.283323e+01    1.054162e+00
  2.284911e+01    1.059790e+00
  2.286498e+01    1.029619e+00
  2.288086e+01    1.051465e+00
  2.289673e+01    1.043374e+00
  2.291261e+01    1.022408e+00
  2.292848e+01    1.036365e+00
  2.294436e+01    1.021550e+00
  2.296024e+01    1.009806e+00
  2.297611e+01    1.028349e+00
  2.299199e+01    1.038262e+00
  2.300786e+01    1.043601e+00
  2.302374e+01    1.040130e+00
  2.303961e+01    1.017892e+00
  2.305549e+01    9.935739e-01
  2.307137e+01    1.002484e+00
  2.308724e+01    1.007379e+00
  2.310312e+01    1.038169e+00
  2.311899e+01    1.015891e+00
  2.313487e+01    1.001331e+00
  2.315074e+01    1.014368e+00
  2.316662e+01    1.012568e+00
  2.318249e+01    1.002724e+00
  2.319837e+01    1.000481e+00
  2.321425e+01    9.801235e-01
  2.323012e+01    9.950777e-01
  2.324600e+01    1.014589e+00
  2.326187e+01    1.010584e+00
  2.327775e+01    9.992570e-01
  2.329362e+01    9.914517e-01
  2.330950e+01    9.780498e-01
  2.332537e+01    9.599629e-01
  2.334125e+01    9.743439e-01
  2.335713e+01    9.921749e-01
  2.337300e+01    9.732416e-01
  2.338888e+01    9.725003e-01
  2.340475e+01    9.756114e-01
  2.342063e+01    9.602300e-01
  2.343650e+01    9.544189e-01
  2.345238e+01    9.510663e-01
  2.346825e+01    9.729105e-01
  2.348413e+01    9.597529e-01
  2.350001e+01    9.414039e-01
  2.351588e+01    9.495874e-01
  2.353176e+01    9.434391e-01
  2.354763e+01    9.551402e-01
  2.356351e+01    9.572983e-01
  2.357938e+01    9.658033e-01
  2.359526e+01    9.610355e-01
  2.361113e+01    9.554731e-01
  2.362701e+01    9.461961e-01
  2.364289e+01    9.360092e-01
  2.365876e+01    9.435881e-01
  2.367464e+01    9.376210e-01
  2.369051e+01    9.383448e-01
  2.370639e+01    9.608678e-01
  2.372226e+01    9.487710e-01
  2.373814e+01    9.296503e-01
  2.375401e+01    9.266309e-01
  2.376989e+01    9.375807e-01
  2.378577e+01    9.197851e-01
  2.380164e+01    9.283658e-01
  2.381752e+01    9.306609e-01
  2.383339e+01    9.416223e-01
  2.384927e+01    9.306242e-01
  2.386514e+01    9.129372e-01
  2.388102e+01    9.129205e-01
  2.389689e+01    9.161012e-01
  2.391277e+01    9.239432e-01
  2.392865e+01    9.269328e-01
  2.394452e+01    8.865561e-01
  2.396040e+01    8.890885e-01
  2.397627e+01    9.219645e-01
  2.399215e+01    9.090606e-01
  2.400802e+01    9.089057e-01
  2.402390e+01    9.046140e-01
  2.403978e+01    8.940986e-01
  2.405565e+01    8.789647e-01
  2.407153e+01    8.868301e-01
  2.408740e+01    8.660243e-01
  2.410328e+01    8.702238e-01
  2.411915e+01    8.853164e-01
  2.413503e+01    8.769491e-01
  2.415090e+01    8.873822e-01
  2.416678e+01    8.859107e-01
  2.418266e+01    8.788505e-01
  2.419853e+01    8.760358e-01
  2.421441e+01    9.061289e-01
  2.423028e+01    8.994172e-01
  2.424616e+01    8.808318e-01
  2.426203e+01    8.867990e-01
  2.427791e+01    8.848388e-01
  2.429378e+01    8.848448e-01
  2.430966e+01    8.990666e-01
  2.432554e+01    8.988490e-01
  2.434141e+01    8.955788e-01
  2.435729e+01    8.951859e-01
  2.437316e+01    8.830943e-01
  2.438904e+01    8.883148e-01
  2.440491e+01    8.869330e-01
  2.442079e+01    8.757111e-01
  2.443666e+01    8.982882e-01
  2.445254e+01    8.676104e-01
  2.446842e+01    8.682652e-01
  2.448429e+01    8.947416e-01
  2.450017e+01    9.162526e-01
  2.451604e+01    9.164912e-01
  2.453192e+01    9.142838e-01
  2.454779e+01    9.053987e-01
  2.456367e+01    9.121381e-01
  2.457954e+01    9.116257e-01
  2.459542e+01    9.007255e-01
  2.461130e+01    8.999492e-01
  2.462717e+01    8.861844e-01
  2.464305e+01    8.807709e-01
  2.465892e+01    8.819006e-01
  2.467480e+01    8.743991e-01
  2.469067e+01    8.992430e-01
  2.470655e+01    8.941635e-01
  2.472242e+01    8.873014e-01
  2.473830e+01    8.818763e-01
  2.475418e+01    8.923263e-01
  2.477005e+01    9.006459e-01
  2.478593e+01    9.014443e-01
  2.480180e+01    9.000288e-01
  2.481768e+01    9.021961e-01
  2.483355e+01    9.002897e-01
  2.484943e+01    8.758149e-01
  2.486530e+01    8.720416e-01
  2.488118e+01    8.764221e-01
  2.489706e+01    9.026573e-01
  2.491293e+01    9.024690e-01
  2.492881e+01    8.927786e-01
  2.494468e+01    8.815575e-01
  2.496056e+01    8.942547e-01
  2.497643e+01    9.139363e-01
  2.499231e+01    9.024661e-01
  2.500819e+01    8.883692e-01
  2.502406e+01    8.899987e-01
  2.503994e+01    8.833997e-01
  2.505581e+01    9.011261e-01
  2.507169e+01    9.032498e-01
  2.508756e+01    9.211427e-01
  2.510344e+01    9.191946e-01
  2.511931e+01    9.124265e-01
  2.513519e+01    9.173027e-01
  2.515107e+01    9.279495e-01
  2.516694e+01    9.394074e-01
  2.518282e+01    9.415278e-01
  2.519869e+01    9.166273e-01
  2.521457e+01    9.319860e-01
  2.523044e+01    9.344065e-01
  2.524632e+01    9.311415e-01
  2.526219e+01    9.364265e-01
  2.527807e+01    9.525232e-01
  2.529395e+01    9.542593e-01
  2.530982e+01    9.850000e-01
  2.532570e+01    9.572673e-01
  2.534157e+01    9.652618e-01
  2.535745e+01    9.876035e-01
  2.537332e+01    9.784410e-01
  2.538920e+01    1.002932e+00
  2.540507e+01    1.011107e+00
  2.542095e+01    1.005370e+00
  2.543683e+01    1.020388e+00
  2.545270e+01    1.023485e+00
  2.546858e+01    1.021022e+00
  2.548445e+01    1.027901e+00
  2.550033e+01    1.061518e+00
  2.551620e+01    1.078488e+00
  2.553208e+01    1.100718e+00
  2.554795e+01    1.116499e+00
  2.556383e+01    1.138919e+00
  2.557971e+01    1.182417e+00
  2.559558e+01    1.218564e+00
  2.561146e+01    1.224816e+00
  2.562733e+01    1.255172e+00
  2.564321e+01    1.312183e+00
  2.565908e+01    1.363379e+00
  2.567496e+01    1.418230e+00
  2.569083e+01    1.495166e+00
  2.570671e+01    1.587968e+00
  2.572259e+01    1.710469e+00
  2.573846e+01    1.851775e+00
  2.575434e+01    2.009261e+00
  2.577021e+01    2.209572e+00
  2.578609e+01    2.474287e+00
  2.580196e+01    2.804032e+00
  2.581784e+01    3.193272e+00
  2.583371e+01    3.668702e+00
  2.584959e+01    4.192185e+00
  2.586547e+01    4.700287e+00
  2.588134e+01    5.246772e+00
  2.589722e+01    5.835144e+00
  2.591309e+01    6.309729e+00
  2.592897e+01    6.800788e+00
  2.594484e+01    7.033794e+00
  2.596072e+01    7.123211e+00
  2.597660e+01    6.957977e+00
  2.599247e+01    6.528252e+00
  2.600835e+01    5.974194e+00
  2.602422e+01    5.314366e+00
  2.604010e+01    4.641369e+00
  2.605597e+01    4.016322e+00
  2.607185e+01    3.471652e+00
  2.608772e+01    3.001318e+00
  2.610360e+01    2.642431e+00
  2.611948e+01    2.362653e+00
  2.613535e+01    2.136941e+00
  2.615123e+01    1.940805e+00
  2.616710e+01    1.787966e+00
  2.618298e+01    1.668984e+00
  2.619885e+01    1.568493e+00
  2.621473e+01    1.483525e+00
  2.623060e+01    1.390311e+00
  2.624648e+01    1.355205e+00
  2.626236e+01    1.307559e+00
  2.627823e+01    1.250039e+00
  2.629411e+01    1.232381e+00
  2.630998e+01    1.216793e+00
  2.632586e+01    1.168471e+00
  2.634173e+01    1.159979e+00
  2.635761e+01    1.110511e+00
  2.637348e+01    1.093695e+00
  2.638936e+01    1.070185e+00
  2.640524e+01    1.070858e+00
  2.642111e+01    1.057857e+00
  2.643699e+01    1.028611e+00
  2.645286e+01    1.020962e+00
  2.646874e+01    1.027200e+00
  2.648461e+01    1.030695e+00
  2.650049e+01    9.977230e-01
  2.651636e+01    9.925854e-01
  2.653224e+01    1.008025e+00
  2.654812e+01    1.019868e+00
  2.656399e+01    9.921249e-01
  2.657987e+01    1.000719e+00
  2.659574e+01    9.964970e-01
  2.661162e+01    9.981132e-01
  2.662749e+01    9.916211e-01
  2.664337e+01    9.934258e-01
  2.665924e+01    9.550284e-01
  2.667512e+01    9.827464e-01
  2.669100e+01    9.578799e-01
  2.670687e+01    9.701802e-01
  2.672275e+01    9.674073e-01
  2.673862e+01    9.584286e-01
  2.675450e+01    9.763812e-01
  2.677037e+01    9.878213e-01
  2.678625e+01    9.902550e-01
  2.680212e+01    9.894257e-01
  2.681800e+01    9.861548e-01
  2.683388e+01    9.808046e-01
  2.684975e+01    9.744063e-01
  2.686563e+01    9.930699e-01
  2.688150e+01    9.844775e-01
  2.689738e+01    9.950324e-01
  2.691325e+01    1.011186e+00
  2.692913e+01    1.008100e+00
  2.694501e+01    1.049037e+00
  2.696088e+01    1.076506e+00
  2.697676e+01    1.090273e+00
  2.699263e+01    1.110318e+00
  2.700851e+01    1.120272e+00
  2.702438e+01    1.158464e+00
  2.704026e+01    1.223798e+00
  2.705613e+01    1.257062e+00
  2.707201e+01    1.315363e+00
  2.708789e+01    1.394580e+00
  2.710376e+01    1.472240e+00
  2.711964e+01    1.577300e+00
  2.713551e+01    1.699294e+00
  2.715139e+01    1.811215e+00
  2.716726e+01    1.979476e+00
  2.718314e+01    2.098554e+00
  2.719901e+01    2.148676e+00
  2.721489e+01    2.160268e+00
  2.723077e+01    2.173476e+00
  2.724664e+01    2.103062e+00
  2.726252e+01    1.976677e+00
  2.727839e+01    1.827445e+00
  2.729427e+01    1.671510e+00
  2.731014e+01    1.581282e+00
  2.732602e+01    1.488789e+00
  2.734189e+01    1.371399e+00
  2.735777e+01    1.302121e+00
  2.737365e+01    1.237829e+00
  2.738952e+01    1.178595e+00
  2.740540e+01    1.130274e+00
  2.742127e+01    1.118313e+00
  2.743715e+01    1.089976e+00
  2.745302e+01    1.041144e+00
  2.746890e+01    1.014604e+00
  2.748477e+01    1.006088e+00
  2.750065e+01    1.011557e+00
  2.751653e+01    9.608535e-01
  2.753240e+01    9.470860e-01
  2.754828e+01    9.779369e-01
  2.756415e+01    9.715174e-01
  2.758003e+01    9.522243e-01
  2.759590e+01    9.371979e-01
  2.761178e+01    9.349254e-01
  2.762765e+01    8.982795e-01
  2.764353e+01    8.929729e-01
  2.765941e+01    9.226710e-01
  2.767528e+01    9.082235e-01
  2.769116e+01    9.007038e-01
  2.770703e+01    8.963427e-01
  2.772291e+01    9.128718e-01
  2.773878e+01    9.164182e-01
  2.775466e+01    9.096438e-01
  2.777054e+01    8.974428e-01
  2.778641e+01    9.069434e-01
  2.780229e+01    9.106358e-01
  2.781816e+01    8.965139e-01
  2.783404e+01    9.154987e-01
  2.784991e+01    8.996270e-01
  2.786579e+01    8.856105e-01
  2.788166e+01    8.886628e-01
  2.789754e+01    8.683974e-01
  2.791342e+01    8.624664e-01
  2.792929e+01    8.492089e-01
  2.794517e+01    8.626806e-01
  2.796104e+01    8.659618e-01
  2.797692e+01    8.644947e-01
  2.799279e+01    8.757719e-01
  2.800867e+01    8.690280e-01
  2.802454e+01    8.837247e-01
  2.804042e+01    8.805452e-01
  2.805630e+01    8.684381e-01
  2.807217e+01    8.456635e-01
  2.808805e+01    8.434607e-01
  2.810392e+01    8.525400e-01
  2.811980e+01    8.831353e-01
  2.813567e+01    8.842188e-01
  2.815155e+01    8.618531e-01
  2.816742e+01    8.539211e-01
  2.818330e+01    8.575461e-01
  2.819918e+01    8.756893e-01
  2.821505e+01    8.610871e-01
  2.823093e+01    8.414052e-01
  2.824680e+01    8.559092e-01
  2.826268e+01    8.427387e-01
  2.827855e+01    8.568744e-01
  2.829443e+01    8.425616e-01
  2.831030e+01    8.418024e-01
  2.832618e+01    8.657476e-01
  2.834206e+01    8.598894e-01
  2.835793e+01    8.542617e-01
  2.837381e+01    8.372958e-01
  2.838968e+01    8.379647e-01
  2.840556e+01    8.373220e-01
  2.842143e+01    8.431624e-01
  2.843731e+01    8.411560e-01
  2.845318e+01    8.329353e-01
  2.846906e+01    8.381729e-01
  2.848494e+01    8.222400e-01
  2.850081e+01    8.362444e-01
  2.851669e+01    8.246967e-01
  2.853256e+01    8.309783e-01
  2.854844e+01    8.294727e-01
  2.856431e+01    8.260112e-01
  2.858019e+01    8.449022e-01
  2.859606e+01    8.360523e-01
  2.861194e+01    8.524514e-01
  2.862782e+01    8.352005e-01
  2.864369e+01    8.409082e-01
  2.865957e+01    8.537751e-01
  2.867544e+01    8.319740e-01
  2.869132e+01    8.274989e-01
  2.870719e+01    8.441616e-01
  2.872307e+01    8.272393e-01
  2.873895e+01    8.343967e-01
  2.875482e+01    8.277106e-01
  2.877070e+01    8.175282e-01
  2.878657e+01    8.360318e-01
  2.880245e+01    8.466727e-01
  2.881832e+01    8.147686e-01
  2.883420e+01    8.021184e-01
  2.885007e+01    8.153492e-01
  2.886595e+01    8.433583e-01
  2.888183e+01    8.186183e-01
  2.889770e+01    8.397753e-01
  2.891358e+01    8.456123e-01
  2.892945e+01    8.184816e-01
  2.894533e+01    8.254054e-01
  2.896120e+01    8.367847e-01
  2.897708e+01    8.063945e-01
  2.899295e+01    8.217070e-01
  2.900883e+01    8.264959e-01
  2.902471e+01    8.297564e-01
  2.904058e+01    8.200616e-01
  2.905646e+01    8.148684e-01
  2.907233e+01    8.226473e-01
  2.908821e+01    8.272107e-01
  2.910408e+01    7.967653e-01
  2.911996e+01    8.037565e-01
  2.913583e+01    8.149703e-01
  2.915171e+01    8.265826e-01
  2.916759e+01    8.336003e-01
  2.918346e+01    8.210411e-01
  2.919934e+01    8.405107e-01
  2.921521e+01    8.205134e-01
  2.923109e+01    8.211335e-01
  2.924696e+01    8.131025e-01
  2.926284e+01    8.063816e-01
  2.927871e+01    7.868125e-01
  2.929459e+01    7.871319e-01
  2.931047e+01    8.032312e-01
  2.932634e+01    8.202676e-01
  2.934222e+01    8.178628e-01
  2.935809e+01    8.150246e-01
  2.937397e+01    8.069037e-01
  2.938984e+01    8.040886e-01
  2.940572e+01    8.064334e-01
  2.942159e+01    7.994083e-01
  2.943747e+01    7.956048e-01
  2.945335e+01    7.913850e-01
  2.946922e+01    8.004243e-01
  2.948510e+01    8.134574e-01
  2.950097e+01    8.121819e-01
  2.951685e+01    8.060606e-01
  2.953272e+01    7.916204e-01
  2.954860e+01    7.997825e-01
  2.956447e+01    8.126527e-01
  2.958035e+01    7.917998e-01
  2.959623e+01    7.952381e-01
  2.961210e+01    7.900894e-01
  2.962798e+01    8.041259e-01
  2.964385e+01    8.000943e-01
  2.965973e+01    7.843117e-01
  2.967560e+01    7.960796e-01
  2.969148e+01    8.108146e-01
  2.970736e+01    7.810930e-01
  2.972323e+01    8.073763e-01
  2.973911e+01    8.103160e-01
  2.975498e+01    7.895998e-01
  2.977086e+01    8.082767e-01
  2.978673e+01    8.096868e-01
  2.980261e+01    8.097342e-01
  2.981848e+01    7.968690e-01
  2.983436e+01    7.799270e-01
  2.985024e+01    7.813695e-01
  2.986611e+01    8.105669e-01
  2.988199e+01    7.936835e-01
  2.989786e+01    7.901680e-01
  2.991374e+01    7.902021e-01
  2.992961e+01    7.965615e-01
  2.994549e+01    7.963706e-01
  2.996136e+01    8.062899e-01
  2.997724e+01    8.147886e-01
  2.999312e+01    8.045799e-01
  3.000899e+01    8.011826e-01
  3.002487e+01    8.155413e-01
  3.004074e+01    8.179349e-01
  3.005662e+01    8.330059e-01
  3.007249e+01    8.326671e-01
  3.008837e+01    8.326772e-01
  3.010424e+01    7.954131e-01
  3.012012e+01    8.020366e-01
  3.013600e+01    7.923078e-01
  3.015187e+01    7.868708e-01
  3.016775e+01    7.987840e-01
  3.018362e+01    8.192247e-01
  3.019950e+01    7.971668e-01
  3.021537e+01    7.972071e-01
  3.023125e+01    7.914011e-01
  3.024712e+01    8.105140e-01
  3.026300e+01    7.922455e-01
  3.027888e+01    7.703154e-01
  3.029475e+01    7.638972e-01
  3.031063e+01    7.752710e-01
  3.032650e+01    7.966096e-01
  3.034238e+01    7.826089e-01
  3.035825e+01    7.852332e-01
  3.037413e+01    7.929692e-01
  3.039000e+01    7.842941e-01
  3.040588e+01    7.675261e-01
  3.042176e+01    7.780461e-01
  3.043763e+01    7.942489e-01
  3.045351e+01    8.043872e-01
  3.046938e+01    7.867708e-01
  3.048526e+01    7.678243e-01
  3.050113e+01    7.688640e-01
  3.051701e+01    7.903064e-01
  3.053288e+01    7.784384e-01
  3.054876e+01    7.696400e-01
  3.056464e+01    7.912670e-01
  3.058051e+01    7.695135e-01
  3.059639e+01    7.757056e-01
  3.061226e+01    7.914451e-01
  3.062814e+01    7.955180e-01
  3.064401e+01    7.777618e-01
  3.065989e+01    7.708552e-01
  3.067577e+01    7.590492e-01
  3.069164e+01    7.801347e-01
  3.070752e+01    7.962901e-01
  3.072339e+01    7.885885e-01
  3.073927e+01    7.909581e-01
  3.075514e+01    7.672997e-01
  3.077102e+01    7.669988e-01
  3.078689e+01    7.793756e-01
  3.080277e+01    7.825177e-01
  3.081865e+01    7.905477e-01
  3.083452e+01    7.855490e-01
  3.085040e+01    7.764836e-01
  3.086627e+01    7.614605e-01
  3.088215e+01    7.825735e-01
  3.089802e+01    7.705707e-01
  3.091390e+01    7.838833e-01
  3.092977e+01    7.862200e-01
  3.094565e+01    7.858475e-01
  3.096153e+01    7.632895e-01
  3.097740e+01    7.691453e-01
  3.099328e+01    7.841367e-01
  3.100915e+01    7.831112e-01
  3.102503e+01    7.816209e-01
  3.104090e+01    7.988437e-01
  3.105678e+01    8.120992e-01
  3.107265e+01    8.076967e-01
  3.108853e+01    8.021693e-01
  3.110441e+01    7.941939e-01
  3.112028e+01    8.069412e-01
  3.113616e+01    7.888635e-01
  3.115203e+01    7.851321e-01
  3.116791e+01    7.891192e-01
  3.118378e+01    8.075768e-01
  3.119966e+01    8.008912e-01
  3.121553e+01    7.777304e-01
  3.123141e+01    7.766859e-01
  3.124729e+01    7.829870e-01
  3.126316e+01    8.027768e-01
  3.127904e+01    8.125286e-01
  3.129491e+01    7.861257e-01
  3.131079e+01    7.937639e-01
  3.132666e+01    8.021811e-01
  3.134254e+01    7.941960e-01
  3.135841e+01    7.931146e-01
  3.137429e+01    8.007273e-01
  3.139017e+01    8.270807e-01
  3.140604e+01    8.117161e-01
  3.142192e+01    8.213190e-01
  3.143779e+01    8.223987e-01
  3.145367e+01    8.242899e-01
  3.146954e+01    8.201974e-01
  3.148542e+01    8.297968e-01
  3.150129e+01    8.352988e-01
  3.151717e+01    8.490525e-01
  3.153305e+01    8.398577e-01
  3.154892e+01    8.541639e-01
  3.156480e+01    8.476001e-01
  3.158067e+01    8.494802e-01
  3.159655e+01    8.737719e-01
  3.161242e+01    8.756870e-01
  3.162830e+01    8.871038e-01
  3.164418e+01    9.121436e-01
  3.166005e+01    9.407771e-01
  3.167593e+01    9.701221e-01
  3.169180e+01    1.001472e+00
  3.170768e+01    1.028039e+00
  3.172355e+01    1.074350e+00
  3.173943e+01    1.112401e+00
  3.175530e+01    1.189481e+00
  3.177118e+01    1.251145e+00
  3.178706e+01    1.326066e+00
  3.180293e+01    1.483053e+00
  3.181881e+01    1.589424e+00
  3.183468e+01    1.729408e+00
  3.185056e+01    1.879005e+00
  3.186643e+01    1.979086e+00
  3.188231e+01    2.035574e+00
  3.189818e+01    2.081092e+00
  3.191406e+01    2.083266e+00
  3.192994e+01    2.054816e+00
  3.194581e+01    1.970745e+00
  3.196169e+01    1.844853e+00
  3.197756e+01    1.726379e+00
  3.199344e+01    1.580204e+00
  3.200931e+01    1.436150e+00
  3.202519e+01    1.286220e+00
  3.204106e+01    1.234460e+00
  3.205694e+01    1.181064e+00
  3.207282e+01    1.089998e+00
  3.208869e+01    9.889902e-01
  3.210457e+01    9.877186e-01
  3.212044e+01    1.011958e+00
  3.213632e+01    9.306361e-01
  3.215219e+01    9.125053e-01
  3.216807e+01    9.061203e-01
  3.218394e+01    9.076179e-01
  3.219982e+01    8.746021e-01
  3.221570e+01    8.419850e-01
  3.223157e+01    8.136950e-01
  3.224745e+01    8.286434e-01
  3.226332e+01    8.253077e-01
  3.227920e+01    8.343648e-01
  3.229507e+01    8.180774e-01
  3.231095e+01    8.110307e-01
  3.232682e+01    8.114886e-01
  3.234270e+01    7.985763e-01
  3.235858e+01    8.037306e-01
  3.237445e+01    8.061496e-01
  3.239033e+01    7.893339e-01
  3.240620e+01    7.956571e-01
  3.242208e+01    8.029545e-01
  3.243795e+01    7.659197e-01
  3.245383e+01    7.733331e-01
  3.246970e+01    7.708638e-01
  3.248558e+01    7.757381e-01
  3.250146e+01    7.581765e-01
  3.251733e+01    7.679337e-01
  3.253321e+01    7.849444e-01
  3.254908e+01    7.800941e-01
