# == pyFAI calibration ==
# Distance Sample to Detector: 0.3999999939076516 m
# PONI: 9.750e-02, 1.135e-01 m
# Rotations: -0.000175 0.000000 -0.000000 rad
# 
# == Fit2d calibration ==
# Distance Sample-beamCenter: 400.000 mm
# Center: x=1514.000, y=1300.000 pix
# Tilt: 0.010 deg  TiltPlanRot: 0.010 deg
# 
# Detector Detector	 Spline= None	 PixelSize= 7.500e-05, 7.500e-05 m
#    Detector has a mask: False 
#    Detector has a dark current: False 
#    detector has a flat field: False 
# 
# Wavelength: 6.888e-11 m
# Mask applied: user provided
# Dark current applied: False
# Flat field applied: False
# Polarization factor: 0.99
# Normalization factor: 1.0
# --> /home/myspot/data/2024_07_Rosario/Ru-CGO-ex/2024-07-27_003_Ru-CGO-ex_Reaction_dwell_000023_data_000100.dat
#       q_nm^-1             I 
  2.003187e-02    1.424646e-01
  3.590745e-02    0.000000e+00
  5.178302e-02    4.717292e-02
  6.765859e-02    1.692476e-01
  8.353417e-02    9.393413e-02
  9.940974e-02    3.787665e-02
  1.152853e-01    2.619766e-02
  1.311609e-01    3.384869e-02
  1.470365e-01    0.000000e+00
  1.629120e-01    0.000000e+00
  1.787876e-01    2.446232e-02
  1.946632e-01    3.988956e-02
  2.105388e-01    5.072166e-02
  2.264143e-01    6.398323e-02
  2.422899e-01    2.729110e-02
  2.581655e-01    2.489954e-02
  2.740411e-01    1.810437e-02
  2.899166e-01    3.624747e-02
  3.057922e-01    6.034537e-02
  3.216678e-01    2.917656e-02
  3.375433e-01    4.373065e-02
  3.534189e-01    4.184877e-02
  3.692945e-01    4.440354e-02
  3.851701e-01    2.472815e-02
  4.010456e-01    2.689026e-02
  4.169212e-01    6.910170e-02
  4.327968e-01    6.894236e-02
  4.486724e-01    3.050467e-02
  4.645479e-01    2.976546e-02
  4.804235e-01    6.591439e-02
  4.962991e-01    5.326064e-02
  5.121747e-01    3.205878e-02
  5.280502e-01    3.235356e-02
  5.439258e-01    5.201739e-02
  5.598014e-01    1.878923e-02
  5.756770e-01    3.300218e-02
  5.915525e-01    2.637530e-02
  6.074281e-01    1.444122e-02
  6.233037e-01    5.740063e-02
  6.391793e-01    5.354082e-02
  6.550548e-01    5.006362e-02
  6.709304e-01    3.542574e-02
  6.868060e-01    4.470563e-02
  7.026815e-01    4.197948e-02
  7.185571e-01    4.665536e-02
  7.344327e-01    4.714745e-02
  7.503083e-01    5.877931e-02
  7.661838e-01    7.562127e-02
  7.820594e-01    1.251950e-01
  7.979350e-01    1.631554e-01
  8.138106e-01    2.302363e-01
  8.296861e-01    2.848954e-01
  8.455617e-01    3.534150e-01
  8.614373e-01    4.535511e-01
  8.773129e-01    5.542009e-01
  8.931884e-01    5.623707e-01
  9.090640e-01    6.745467e-01
  9.249396e-01    7.740240e-01
  9.408152e-01    8.635993e-01
  9.566907e-01    9.054537e-01
  9.725663e-01    1.007086e+00
  9.884419e-01    1.103706e+00
  1.004317e+00    1.142564e+00
  1.020193e+00    1.301237e+00
  1.036069e+00    1.299420e+00
  1.051944e+00    1.440008e+00
  1.067820e+00    1.452976e+00
  1.083695e+00    1.566667e+00
  1.099571e+00    1.643818e+00
  1.115446e+00    1.549239e+00
  1.131322e+00    1.708797e+00
  1.147198e+00    1.695731e+00
  1.163073e+00    1.669674e+00
  1.178949e+00    1.692283e+00
  1.194824e+00    1.810481e+00
  1.210700e+00    1.972564e+00
  1.226575e+00    2.212689e+00
  1.242451e+00    2.295870e+00
  1.258327e+00    2.487596e+00
  1.274202e+00    2.599149e+00
  1.290078e+00    2.429617e+00
  1.305953e+00    2.542980e+00
  1.321829e+00    2.660522e+00
  1.337705e+00    2.763704e+00
  1.353580e+00    2.821573e+00
  1.369456e+00    2.913479e+00
  1.385331e+00    2.791474e+00
  1.401207e+00    2.851759e+00
  1.417082e+00    3.083188e+00
  1.432958e+00    2.960952e+00
  1.448834e+00    2.890036e+00
  1.464709e+00    2.964682e+00
  1.480585e+00    3.091655e+00
  1.496460e+00    3.127470e+00
  1.512336e+00    3.045545e+00
  1.528211e+00    3.066112e+00
  1.544087e+00    3.199151e+00
  1.559963e+00    3.143220e+00
  1.575838e+00    3.241880e+00
  1.591714e+00    3.197670e+00
  1.607589e+00    3.088787e+00
  1.623465e+00    3.196038e+00
  1.639340e+00    3.092801e+00
  1.655216e+00    3.156004e+00
  1.671092e+00    3.043862e+00
  1.686967e+00    3.029836e+00
  1.702843e+00    3.283163e+00
  1.718718e+00    3.240966e+00
  1.734594e+00    3.059062e+00
  1.750469e+00    3.067727e+00
  1.766345e+00    3.085711e+00
  1.782221e+00    3.026926e+00
  1.798096e+00    3.077278e+00
  1.813972e+00    3.057352e+00
  1.829847e+00    2.997030e+00
  1.845723e+00    3.031118e+00
  1.861598e+00    3.074851e+00
  1.877474e+00    3.147369e+00
  1.893350e+00    3.170615e+00
  1.909225e+00    3.134603e+00
  1.925101e+00    3.142839e+00
  1.940976e+00    3.104580e+00
  1.956852e+00    3.062218e+00
  1.972727e+00    3.055973e+00
  1.988603e+00    3.104595e+00
  2.004479e+00    3.080709e+00
  2.020354e+00    2.939318e+00
  2.036230e+00    3.036761e+00
  2.052105e+00    3.142989e+00
  2.067981e+00    3.145830e+00
  2.083856e+00    3.229200e+00
  2.099732e+00    3.140632e+00
  2.115608e+00    3.207549e+00
  2.131483e+00    3.171706e+00
  2.147359e+00    3.117837e+00
  2.163234e+00    3.066850e+00
  2.179110e+00    3.074638e+00
  2.194985e+00    3.040380e+00
  2.210861e+00    3.046077e+00
  2.226737e+00    3.120796e+00
  2.242612e+00    3.129439e+00
  2.258488e+00    3.119442e+00
  2.274363e+00    3.089071e+00
  2.290239e+00    2.980643e+00
  2.306115e+00    3.032777e+00
  2.321990e+00    3.073051e+00
  2.337866e+00    3.073392e+00
  2.353741e+00    3.133313e+00
  2.369617e+00    3.059132e+00
  2.385492e+00    3.107501e+00
  2.401368e+00    3.079675e+00
  2.417244e+00    3.138335e+00
  2.433119e+00    3.162150e+00
  2.448995e+00    3.217648e+00
  2.464870e+00    3.129897e+00
  2.480746e+00    3.130853e+00
  2.496621e+00    3.070462e+00
  2.512497e+00    3.124541e+00
  2.528373e+00    3.200033e+00
  2.544248e+00    3.217877e+00
  2.560124e+00    3.391569e+00
  2.575999e+00    3.308484e+00
  2.591875e+00    3.347713e+00
  2.607750e+00    3.205272e+00
  2.623626e+00    3.235245e+00
  2.639502e+00    3.225997e+00
  2.655377e+00    3.264682e+00
  2.671253e+00    3.256935e+00
  2.687128e+00    3.305783e+00
  2.703004e+00    3.388652e+00
  2.718879e+00    3.333971e+00
  2.734755e+00    3.280157e+00
  2.750631e+00    3.212282e+00
  2.766506e+00    3.269402e+00
  2.782382e+00    3.162839e+00
  2.798257e+00    3.267192e+00
  2.814133e+00    3.376136e+00
  2.830008e+00    3.308649e+00
  2.845884e+00    3.276994e+00
  2.861760e+00    3.267524e+00
  2.877635e+00    3.327782e+00
  2.893511e+00    3.289508e+00
  2.909386e+00    3.238421e+00
  2.925262e+00    3.245934e+00
  2.941137e+00    3.321561e+00
  2.957013e+00    3.374525e+00
  2.972889e+00    3.380451e+00
  2.988764e+00    3.347875e+00
  3.004640e+00    3.445239e+00
  3.020515e+00    3.494004e+00
  3.036391e+00    3.418460e+00
  3.052266e+00    3.387345e+00
  3.068142e+00    3.439533e+00
  3.084018e+00    3.440350e+00
  3.099893e+00    3.355926e+00
  3.115769e+00    3.424160e+00
  3.131644e+00    3.412347e+00
  3.147520e+00    3.327748e+00
  3.163395e+00    3.471998e+00
  3.179271e+00    3.486783e+00
  3.195147e+00    3.421138e+00
  3.211022e+00    3.375719e+00
  3.226898e+00    3.381965e+00
  3.242773e+00    3.460232e+00
  3.258649e+00    3.485516e+00
  3.274525e+00    3.517969e+00
  3.290400e+00    3.435624e+00
  3.306276e+00    3.374185e+00
  3.322151e+00    3.418788e+00
  3.338027e+00    3.475476e+00
  3.353902e+00    3.544764e+00
  3.369778e+00    3.534519e+00
  3.385654e+00    3.530095e+00
  3.401529e+00    3.390922e+00
  3.417405e+00    3.359276e+00
  3.433280e+00    3.530572e+00
  3.449156e+00    3.527569e+00
  3.465031e+00    3.485001e+00
  3.480907e+00    3.542173e+00
  3.496783e+00    3.480077e+00
  3.512658e+00    3.445463e+00
  3.528534e+00    3.343916e+00
  3.544409e+00    3.325709e+00
  3.560285e+00    3.396624e+00
  3.576160e+00    3.409287e+00
  3.592036e+00    3.431255e+00
  3.607912e+00    3.464067e+00
  3.623787e+00    3.364177e+00
  3.639663e+00    3.344639e+00
  3.655538e+00    3.351213e+00
  3.671414e+00    3.336309e+00
  3.687289e+00    3.324946e+00
  3.703165e+00    3.452837e+00
  3.719041e+00    3.486535e+00
  3.734916e+00    3.392475e+00
  3.750792e+00    3.361400e+00
  3.766667e+00    3.380831e+00
  3.782543e+00    3.373743e+00
  3.798418e+00    3.445789e+00
  3.814294e+00    3.454195e+00
  3.830170e+00    3.538069e+00
  3.846045e+00    3.529050e+00
  3.861921e+00    3.585781e+00
  3.877796e+00    3.541545e+00
  3.893672e+00    3.507097e+00
  3.909547e+00    3.486796e+00
  3.925423e+00    3.467293e+00
  3.941299e+00    3.476790e+00
  3.957174e+00    3.586878e+00
  3.973050e+00    3.580402e+00
  3.988925e+00    3.431574e+00
  4.004801e+00    3.418471e+00
  4.020676e+00    3.583843e+00
  4.036552e+00    3.601651e+00
  4.052428e+00    3.557184e+00
  4.068303e+00    3.524062e+00
  4.084179e+00    3.546800e+00
  4.100054e+00    3.596998e+00
  4.115930e+00    3.602603e+00
  4.131806e+00    3.589139e+00
  4.147681e+00    3.568753e+00
  4.163557e+00    3.574003e+00
  4.179432e+00    3.522020e+00
  4.195308e+00    3.568772e+00
  4.211183e+00    3.554111e+00
  4.227059e+00    3.599383e+00
  4.242935e+00    3.503278e+00
  4.258810e+00    3.507437e+00
  4.274686e+00    3.512244e+00
  4.290561e+00    3.612533e+00
  4.306437e+00    3.594940e+00
  4.322312e+00    3.594806e+00
  4.338188e+00    3.544564e+00
  4.354064e+00    3.594423e+00
  4.369939e+00    3.684000e+00
  4.385815e+00    3.551033e+00
  4.401690e+00    3.500187e+00
  4.417566e+00    3.440333e+00
  4.433441e+00    3.555503e+00
  4.449317e+00    3.629381e+00
  4.465193e+00    3.564392e+00
  4.481068e+00    3.636963e+00
  4.496944e+00    3.654913e+00
  4.512819e+00    3.628272e+00
  4.528695e+00    3.618378e+00
  4.544570e+00    3.658983e+00
  4.560446e+00    3.699054e+00
  4.576322e+00    3.673744e+00
  4.592197e+00    3.657731e+00
  4.608073e+00    3.639977e+00
  4.623948e+00    3.535932e+00
  4.639824e+00    3.595930e+00
  4.655699e+00    3.614119e+00
  4.671575e+00    3.564400e+00
  4.687451e+00    3.596435e+00
  4.703326e+00    3.573694e+00
  4.719202e+00    3.619081e+00
  4.735077e+00    3.703464e+00
  4.750953e+00    3.653847e+00
  4.766828e+00    3.625304e+00
  4.782704e+00    3.656367e+00
  4.798580e+00    3.600302e+00
  4.814455e+00    3.671538e+00
  4.830331e+00    3.687216e+00
  4.846206e+00    3.690528e+00
  4.862082e+00    3.687143e+00
  4.877957e+00    3.754000e+00
  4.893833e+00    3.681206e+00
  4.909709e+00    3.648806e+00
  4.925584e+00    3.600826e+00
  4.941460e+00    3.627105e+00
  4.957335e+00    3.681180e+00
  4.973211e+00    3.664720e+00
  4.989086e+00    3.724280e+00
  5.004962e+00    3.721317e+00
  5.020838e+00    3.705024e+00
  5.036713e+00    3.663186e+00
  5.052589e+00    3.591060e+00
  5.068464e+00    3.644009e+00
  5.084340e+00    3.642056e+00
  5.100216e+00    3.720707e+00
  5.116091e+00    3.712787e+00
  5.131967e+00    3.659792e+00
  5.147842e+00    3.608579e+00
  5.163718e+00    3.603323e+00
  5.179593e+00    3.607303e+00
  5.195469e+00    3.629890e+00
  5.211345e+00    3.712734e+00
  5.227220e+00    3.668300e+00
  5.243096e+00    3.613776e+00
  5.258971e+00    3.680206e+00
  5.274847e+00    3.641495e+00
  5.290722e+00    3.611167e+00
  5.306598e+00    3.631300e+00
  5.322474e+00    3.680913e+00
  5.338349e+00    3.732515e+00
  5.354225e+00    3.693489e+00
  5.370100e+00    3.729777e+00
  5.385976e+00    3.701344e+00
  5.401851e+00    3.619781e+00
  5.417727e+00    3.632185e+00
  5.433603e+00    3.663514e+00
  5.449478e+00    3.630076e+00
  5.465354e+00    3.629365e+00
  5.481229e+00    3.552359e+00
  5.497105e+00    3.548123e+00
  5.512980e+00    3.614494e+00
  5.528856e+00    3.607988e+00
  5.544732e+00    3.578137e+00
  5.560607e+00    3.562075e+00
  5.576483e+00    3.595765e+00
  5.592358e+00    3.583064e+00
  5.608234e+00    3.532160e+00
  5.624109e+00    3.529583e+00
  5.639985e+00    3.568554e+00
  5.655861e+00    3.589083e+00
  5.671736e+00    3.578629e+00
  5.687612e+00    3.604278e+00
  5.703487e+00    3.520461e+00
  5.719363e+00    3.524807e+00
  5.735238e+00    3.554555e+00
  5.751114e+00    3.582730e+00
  5.766990e+00    3.536704e+00
  5.782865e+00    3.581598e+00
  5.798741e+00    3.637803e+00
  5.814616e+00    3.515790e+00
  5.830492e+00    3.499454e+00
  5.846367e+00    3.627857e+00
  5.862243e+00    3.615078e+00
  5.878119e+00    3.550494e+00
  5.893994e+00    3.487609e+00
  5.909870e+00    3.541119e+00
  5.925745e+00    3.483648e+00
  5.941621e+00    3.435030e+00
  5.957497e+00    3.476048e+00
  5.973372e+00    3.572976e+00
  5.989248e+00    3.567662e+00
  6.005123e+00    3.457328e+00
  6.020999e+00    3.582093e+00
  6.036874e+00    3.578378e+00
  6.052750e+00    3.536483e+00
  6.068626e+00    3.618960e+00
  6.084501e+00    3.660019e+00
  6.100377e+00    3.626093e+00
  6.116252e+00    3.591540e+00
  6.132128e+00    3.630454e+00
  6.148003e+00    3.670760e+00
  6.163879e+00    3.659096e+00
  6.179755e+00    3.628622e+00
  6.195630e+00    3.530410e+00
  6.211506e+00    3.615371e+00
  6.227381e+00    3.627596e+00
  6.243257e+00    3.676769e+00
  6.259132e+00    3.601342e+00
  6.275008e+00    3.601011e+00
  6.290884e+00    3.623030e+00
  6.306759e+00    3.570696e+00
  6.322635e+00    3.605932e+00
  6.338510e+00    3.574857e+00
  6.354386e+00    3.540295e+00
  6.370261e+00    3.551195e+00
  6.386137e+00    3.540597e+00
  6.402013e+00    3.559772e+00
  6.417888e+00    3.596885e+00
  6.433764e+00    3.550601e+00
  6.449639e+00    3.524650e+00
  6.465515e+00    3.541548e+00
  6.481390e+00    3.567579e+00
  6.497266e+00    3.553869e+00
  6.513142e+00    3.561611e+00
  6.529017e+00    3.621720e+00
  6.544893e+00    3.574136e+00
  6.560768e+00    3.519355e+00
  6.576644e+00    3.535220e+00
  6.592519e+00    3.578729e+00
  6.608395e+00    3.601776e+00
  6.624271e+00    3.549568e+00
  6.640146e+00    3.591587e+00
  6.656022e+00    3.605639e+00
  6.671897e+00    3.504266e+00
  6.687773e+00    3.487641e+00
  6.703648e+00    3.557975e+00
  6.719524e+00    3.493336e+00
  6.735400e+00    3.538103e+00
  6.751275e+00    3.575577e+00
  6.767151e+00    3.617618e+00
  6.783026e+00    3.623479e+00
  6.798902e+00    3.555335e+00
  6.814777e+00    3.544055e+00
  6.830653e+00    3.565331e+00
  6.846529e+00    3.579634e+00
  6.862404e+00    3.616729e+00
  6.878280e+00    3.616593e+00
  6.894155e+00    3.534659e+00
  6.910031e+00    3.562467e+00
  6.925907e+00    3.535440e+00
  6.941782e+00    3.657250e+00
  6.957658e+00    3.649232e+00
  6.973533e+00    3.506790e+00
  6.989409e+00    3.503998e+00
  7.005284e+00    3.536855e+00
  7.021160e+00    3.456794e+00
  7.037036e+00    3.524505e+00
  7.052911e+00    3.529642e+00
  7.068787e+00    3.588262e+00
  7.084662e+00    3.508851e+00
  7.100538e+00    3.525045e+00
  7.116413e+00    3.556803e+00
  7.132289e+00    3.548583e+00
  7.148165e+00    3.614230e+00
  7.164040e+00    3.579873e+00
  7.179916e+00    3.541823e+00
  7.195791e+00    3.482133e+00
  7.211667e+00    3.517239e+00
  7.227542e+00    3.474747e+00
  7.243418e+00    3.434273e+00
  7.259294e+00    3.470358e+00
  7.275169e+00    3.528706e+00
  7.291045e+00    3.538938e+00
  7.306920e+00    3.538887e+00
  7.322796e+00    3.506979e+00
  7.338671e+00    3.494571e+00
  7.354547e+00    3.419317e+00
  7.370423e+00    3.454425e+00
  7.386298e+00    3.413964e+00
  7.402174e+00    3.450723e+00
  7.418049e+00    3.541075e+00
  7.433925e+00    3.543237e+00
  7.449800e+00    3.501389e+00
  7.465676e+00    3.458105e+00
  7.481552e+00    3.462210e+00
  7.497427e+00    3.475061e+00
  7.513303e+00    3.428216e+00
  7.529178e+00    3.493597e+00
  7.545054e+00    3.503415e+00
  7.560929e+00    3.447968e+00
  7.576805e+00    3.380657e+00
  7.592681e+00    3.502704e+00
  7.608556e+00    3.509986e+00
  7.624432e+00    3.482682e+00
  7.640307e+00    3.480425e+00
  7.656183e+00    3.449625e+00
  7.672058e+00    3.434355e+00
  7.687934e+00    3.401761e+00
  7.703810e+00    3.467700e+00
  7.719685e+00    3.473889e+00
  7.735561e+00    3.486517e+00
  7.751436e+00    3.497259e+00
  7.767312e+00    3.450649e+00
  7.783187e+00    3.406779e+00
  7.799063e+00    3.413123e+00
  7.814939e+00    3.404337e+00
  7.830814e+00    3.458211e+00
  7.846690e+00    3.443158e+00
  7.862565e+00    3.444265e+00
  7.878441e+00    3.426977e+00
  7.894317e+00    3.493363e+00
  7.910192e+00    3.453857e+00
  7.926068e+00    3.383684e+00
  7.941943e+00    3.346749e+00
  7.957819e+00    3.352407e+00
  7.973694e+00    3.375709e+00
  7.989570e+00    3.392766e+00
  8.005446e+00    3.449681e+00
  8.021321e+00    3.441668e+00
  8.037197e+00    3.441996e+00
  8.053072e+00    3.453756e+00
  8.068948e+00    3.423948e+00
  8.084823e+00    3.393012e+00
  8.100699e+00    3.470341e+00
  8.116575e+00    3.402953e+00
  8.132450e+00    3.400182e+00
  8.148326e+00    3.443672e+00
  8.164201e+00    3.421271e+00
  8.180077e+00    3.429584e+00
  8.195952e+00    3.467313e+00
  8.211828e+00    3.534445e+00
  8.227704e+00    3.475765e+00
  8.243579e+00    3.521080e+00
  8.259455e+00    3.433498e+00
  8.275330e+00    3.434742e+00
  8.291206e+00    3.433380e+00
  8.307081e+00    3.377826e+00
  8.322957e+00    3.391572e+00
  8.338833e+00    3.415877e+00
  8.354708e+00    3.397629e+00
  8.370584e+00    3.420381e+00
  8.386459e+00    3.374618e+00
  8.402335e+00    3.288841e+00
  8.418210e+00    3.289972e+00
  8.434086e+00    3.385482e+00
  8.449962e+00    3.359312e+00
  8.465837e+00    3.397228e+00
  8.481713e+00    3.395525e+00
  8.497588e+00    3.359629e+00
  8.513464e+00    3.356850e+00
  8.529339e+00    3.358182e+00
  8.545215e+00    3.391349e+00
  8.561091e+00    3.369153e+00
  8.576966e+00    3.406907e+00
  8.592842e+00    3.402932e+00
  8.608717e+00    3.364525e+00
  8.624593e+00    3.312598e+00
  8.640468e+00    3.367395e+00
  8.656344e+00    3.368012e+00
  8.672220e+00    3.313053e+00
  8.688095e+00    3.411432e+00
  8.703971e+00    3.352855e+00
  8.719846e+00    3.373767e+00
  8.735722e+00    3.284776e+00
  8.751598e+00    3.292675e+00
  8.767473e+00    3.331355e+00
  8.783349e+00    3.332443e+00
  8.799224e+00    3.295764e+00
  8.815100e+00    3.336914e+00
  8.830975e+00    3.322114e+00
  8.846851e+00    3.372442e+00
  8.862727e+00    3.329585e+00
  8.878602e+00    3.263459e+00
  8.894478e+00    3.186499e+00
  8.910353e+00    3.296992e+00
  8.926229e+00    3.334793e+00
  8.942104e+00    3.298687e+00
  8.957980e+00    3.325322e+00
  8.973856e+00    3.358885e+00
  8.989731e+00    3.345592e+00
  9.005607e+00    3.258132e+00
  9.021482e+00    3.281067e+00
  9.037358e+00    3.340808e+00
  9.053233e+00    3.330458e+00
  9.069109e+00    3.337176e+00
  9.084985e+00    3.349247e+00
  9.100860e+00    3.354822e+00
  9.116736e+00    3.317606e+00
  9.132611e+00    3.303095e+00
  9.148487e+00    3.252762e+00
  9.164362e+00    3.220046e+00
  9.180238e+00    3.227516e+00
  9.196114e+00    3.319517e+00
  9.211989e+00    3.295074e+00
  9.227865e+00    3.234852e+00
  9.243740e+00    3.222225e+00
  9.259616e+00    3.217495e+00
  9.275491e+00    3.223478e+00
  9.291367e+00    3.235748e+00
  9.307243e+00    3.269113e+00
  9.323118e+00    3.286992e+00
  9.338994e+00    3.242962e+00
  9.354869e+00    3.226269e+00
  9.370745e+00    3.208074e+00
  9.386620e+00    3.222780e+00
  9.402496e+00    3.262014e+00
  9.418372e+00    3.285156e+00
  9.434247e+00    3.249013e+00
  9.450123e+00    3.253425e+00
  9.465998e+00    3.284891e+00
  9.481874e+00    3.296267e+00
  9.497749e+00    3.208657e+00
  9.513625e+00    3.194304e+00
  9.529501e+00    3.206117e+00
  9.545376e+00    3.253459e+00
  9.561252e+00    3.254115e+00
  9.577127e+00    3.256154e+00
  9.593003e+00    3.227104e+00
  9.608878e+00    3.185824e+00
  9.624754e+00    3.197710e+00
  9.640630e+00    3.193927e+00
  9.656505e+00    3.159869e+00
  9.672381e+00    3.186632e+00
  9.688256e+00    3.220412e+00
  9.704132e+00    3.208436e+00
  9.720008e+00    3.198507e+00
  9.735883e+00    3.182100e+00
  9.751759e+00    3.158806e+00
  9.767634e+00    3.152349e+00
  9.783510e+00    3.164388e+00
  9.799385e+00    3.185249e+00
  9.815261e+00    3.163690e+00
  9.831137e+00    3.115538e+00
  9.847012e+00    3.145897e+00
  9.862888e+00    3.151400e+00
  9.878763e+00    3.142303e+00
  9.894639e+00    3.123799e+00
  9.910514e+00    3.102028e+00
  9.926390e+00    3.070518e+00
  9.942266e+00    3.114904e+00
  9.958141e+00    3.114837e+00
  9.974017e+00    3.079870e+00
  9.989892e+00    3.146510e+00
  1.000577e+01    3.094712e+00
  1.002164e+01    3.103436e+00
  1.003752e+01    3.124647e+00
  1.005339e+01    3.148567e+00
  1.006927e+01    3.071151e+00
  1.008515e+01    3.063847e+00
  1.010102e+01    3.062168e+00
  1.011690e+01    3.083170e+00
  1.013277e+01    3.033747e+00
  1.014865e+01    3.042502e+00
  1.016452e+01    3.088721e+00
  1.018040e+01    3.052506e+00
  1.019627e+01    3.095062e+00
  1.021215e+01    3.150261e+00
  1.022803e+01    3.131704e+00
  1.024390e+01    3.111581e+00
  1.025978e+01    3.101033e+00
  1.027565e+01    3.056681e+00
  1.029153e+01    3.020197e+00
  1.030740e+01    3.072356e+00
  1.032328e+01    3.009910e+00
  1.033915e+01    3.067966e+00
  1.035503e+01    3.116022e+00
  1.037091e+01    3.068445e+00
  1.038678e+01    3.069776e+00
  1.040266e+01    3.064268e+00
  1.041853e+01    3.017721e+00
  1.043441e+01    3.058944e+00
  1.045028e+01    3.044582e+00
  1.046616e+01    3.008861e+00
  1.048204e+01    3.009097e+00
  1.049791e+01    3.044079e+00
  1.051379e+01    3.022848e+00
  1.052966e+01    3.011661e+00
  1.054554e+01    2.983071e+00
  1.056141e+01    3.059287e+00
  1.057729e+01    2.977517e+00
  1.059316e+01    2.974515e+00
  1.060904e+01    3.016396e+00
  1.062492e+01    3.012328e+00
  1.064079e+01    2.960826e+00
  1.065667e+01    3.031768e+00
  1.067254e+01    2.969397e+00
  1.068842e+01    2.978302e+00
  1.070429e+01    3.036804e+00
  1.072017e+01    3.023386e+00
  1.073604e+01    3.014930e+00
  1.075192e+01    2.991897e+00
  1.076780e+01    2.963701e+00
  1.078367e+01    2.909662e+00
  1.079955e+01    2.971764e+00
  1.081542e+01    2.935035e+00
  1.083130e+01    2.893110e+00
  1.084717e+01    2.862277e+00
  1.086305e+01    2.854493e+00
  1.087892e+01    2.962621e+00
  1.089480e+01    2.962295e+00
  1.091068e+01    2.903676e+00
  1.092655e+01    2.864098e+00
  1.094243e+01    2.887317e+00
  1.095830e+01    2.927765e+00
  1.097418e+01    2.920386e+00
  1.099005e+01    2.938979e+00
  1.100593e+01    2.909665e+00
  1.102180e+01    2.928553e+00
  1.103768e+01    2.922805e+00
  1.105356e+01    2.873386e+00
  1.106943e+01    2.853416e+00
  1.108531e+01    2.848273e+00
  1.110118e+01    2.857612e+00
  1.111706e+01    2.902808e+00
  1.113293e+01    2.932591e+00
  1.114881e+01    2.872197e+00
  1.116468e+01    2.869097e+00
  1.118056e+01    2.931036e+00
  1.119644e+01    2.911556e+00
  1.121231e+01    2.871459e+00
  1.122819e+01    2.869374e+00
  1.124406e+01    2.868009e+00
  1.125994e+01    2.851038e+00
  1.127581e+01    2.876302e+00
  1.129169e+01    2.901804e+00
  1.130756e+01    2.884571e+00
  1.132344e+01    2.834378e+00
  1.133932e+01    2.817652e+00
  1.135519e+01    2.835721e+00
  1.137107e+01    2.793244e+00
  1.138694e+01    2.807880e+00
  1.140282e+01    2.807495e+00
  1.141869e+01    2.838368e+00
  1.143457e+01    2.844474e+00
  1.145045e+01    2.840570e+00
  1.146632e+01    2.842630e+00
  1.148220e+01    2.847886e+00
  1.149807e+01    2.796826e+00
  1.151395e+01    2.769672e+00
  1.152982e+01    2.785286e+00
  1.154570e+01    2.814002e+00
  1.156157e+01    2.753904e+00
  1.157745e+01    2.786623e+00
  1.159333e+01    2.817961e+00
  1.160920e+01    2.763942e+00
  1.162508e+01    2.799728e+00
  1.164095e+01    2.810728e+00
  1.165683e+01    2.750180e+00
  1.167270e+01    2.781855e+00
  1.168858e+01    2.802719e+00
  1.170445e+01    2.765393e+00
  1.172033e+01    2.714707e+00
  1.173621e+01    2.721913e+00
  1.175208e+01    2.753797e+00
  1.176796e+01    2.763729e+00
  1.178383e+01    2.778221e+00
  1.179971e+01    2.743844e+00
  1.181558e+01    2.709609e+00
  1.183146e+01    2.745797e+00
  1.184733e+01    2.779038e+00
  1.186321e+01    2.775742e+00
  1.187909e+01    2.792132e+00
  1.189496e+01    2.769531e+00
  1.191084e+01    2.703930e+00
  1.192671e+01    2.743651e+00
  1.194259e+01    2.709332e+00
  1.195846e+01    2.706232e+00
  1.197434e+01    2.713113e+00
  1.199021e+01    2.735096e+00
  1.200609e+01    2.754379e+00
  1.202197e+01    2.749462e+00
  1.203784e+01    2.693272e+00
  1.205372e+01    2.732097e+00
  1.206959e+01    2.705137e+00
  1.208547e+01    2.677059e+00
  1.210134e+01    2.649138e+00
  1.211722e+01    2.656167e+00
  1.213309e+01    2.690419e+00
  1.214897e+01    2.715288e+00
  1.216485e+01    2.666156e+00
  1.218072e+01    2.708453e+00
  1.219660e+01    2.672855e+00
  1.221247e+01    2.689715e+00
  1.222835e+01    2.711297e+00
  1.224422e+01    2.709138e+00
  1.226010e+01    2.691816e+00
  1.227597e+01    2.660901e+00
  1.229185e+01    2.731463e+00
  1.230773e+01    2.682073e+00
  1.232360e+01    2.614551e+00
  1.233948e+01    2.668452e+00
  1.235535e+01    2.733211e+00
  1.237123e+01    2.710308e+00
  1.238710e+01    2.668619e+00
  1.240298e+01    2.680604e+00
  1.241886e+01    2.644312e+00
  1.243473e+01    2.728664e+00
  1.245061e+01    2.743881e+00
  1.246648e+01    2.719181e+00
  1.248236e+01    2.737367e+00
  1.249823e+01    2.728155e+00
  1.251411e+01    2.698020e+00
  1.252998e+01    2.674335e+00
  1.254586e+01    2.687823e+00
  1.256174e+01    2.693228e+00
  1.257761e+01    2.740496e+00
  1.259349e+01    2.712462e+00
  1.260936e+01    2.692596e+00
  1.262524e+01    2.713070e+00
  1.264111e+01    2.771852e+00
  1.265699e+01    2.772703e+00
  1.267286e+01    2.771451e+00
  1.268874e+01    2.816130e+00
  1.270462e+01    2.827495e+00
  1.272049e+01    2.842772e+00
  1.273637e+01    2.866129e+00
  1.275224e+01    2.941537e+00
  1.276812e+01    2.984731e+00
  1.278399e+01    3.002141e+00
  1.279987e+01    2.950679e+00
  1.281574e+01    3.035940e+00
  1.283162e+01    3.138408e+00
  1.284750e+01    3.185003e+00
  1.286337e+01    3.274096e+00
  1.287925e+01    3.384336e+00
  1.289512e+01    3.465942e+00
  1.291100e+01    3.603119e+00
  1.292687e+01    3.792824e+00
  1.294275e+01    4.094131e+00
  1.295862e+01    4.413166e+00
  1.297450e+01    4.786912e+00
  1.299038e+01    5.270462e+00
  1.300625e+01    5.889343e+00
  1.302213e+01    6.680462e+00
  1.303800e+01    7.669881e+00
  1.305388e+01    8.828589e+00
  1.306975e+01    1.011021e+01
  1.308563e+01    1.145283e+01
  1.310150e+01    1.267125e+01
  1.311738e+01    1.378887e+01
  1.313326e+01    1.481056e+01
  1.314913e+01    1.567869e+01
  1.316501e+01    1.619677e+01
  1.318088e+01    1.622757e+01
  1.319676e+01    1.570785e+01
  1.321263e+01    1.433724e+01
  1.322851e+01    1.249934e+01
  1.324438e+01    1.072988e+01
  1.326026e+01    9.145709e+00
  1.327614e+01    7.789080e+00
  1.329201e+01    6.735351e+00
  1.330789e+01    5.973637e+00
  1.332376e+01    5.389686e+00
  1.333964e+01    4.881762e+00
  1.335551e+01    4.438297e+00
  1.337139e+01    4.139798e+00
  1.338727e+01    3.871706e+00
  1.340314e+01    3.616656e+00
  1.341902e+01    3.445243e+00
  1.343489e+01    3.336049e+00
  1.345077e+01    3.238521e+00
  1.346664e+01    3.139530e+00
  1.348252e+01    3.020107e+00
  1.349839e+01    2.992649e+00
  1.351427e+01    2.931042e+00
  1.353015e+01    2.890449e+00
  1.354602e+01    2.855064e+00
  1.356190e+01    2.757258e+00
  1.357777e+01    2.770562e+00
  1.359365e+01    2.754514e+00
  1.360952e+01    2.712648e+00
  1.362540e+01    2.648785e+00
  1.364127e+01    2.626903e+00
  1.365715e+01    2.577547e+00
  1.367303e+01    2.594842e+00
  1.368890e+01    2.564805e+00
  1.370478e+01    2.544109e+00
  1.372065e+01    2.525811e+00
  1.373653e+01    2.519745e+00
  1.375240e+01    2.487229e+00
  1.376828e+01    2.482278e+00
  1.378415e+01    2.472936e+00
  1.380003e+01    2.469144e+00
  1.381591e+01    2.515429e+00
  1.383178e+01    2.469022e+00
  1.384766e+01    2.407720e+00
  1.386353e+01    2.446539e+00
  1.387941e+01    2.426224e+00
  1.389528e+01    2.408908e+00
  1.391116e+01    2.380164e+00
  1.392703e+01    2.397077e+00
  1.394291e+01    2.389621e+00
  1.395879e+01    2.390970e+00
  1.397466e+01    2.373602e+00
  1.399054e+01    2.356243e+00
  1.400641e+01    2.368371e+00
  1.402229e+01    2.388791e+00
  1.403816e+01    2.340842e+00
  1.405404e+01    2.318838e+00
  1.406991e+01    2.317557e+00
  1.408579e+01    2.313051e+00
  1.410167e+01    2.332215e+00
  1.411754e+01    2.309253e+00
  1.413342e+01    2.297025e+00
  1.414929e+01    2.270788e+00
  1.416517e+01    2.267405e+00
  1.418104e+01    2.299959e+00
  1.419692e+01    2.306108e+00
  1.421279e+01    2.341036e+00
  1.422867e+01    2.286017e+00
  1.424455e+01    2.258608e+00
  1.426042e+01    2.252428e+00
  1.427630e+01    2.253073e+00
  1.429217e+01    2.271298e+00
  1.430805e+01    2.277865e+00
  1.432392e+01    2.276726e+00
  1.433980e+01    2.277716e+00
  1.435568e+01    2.279513e+00
  1.437155e+01    2.271057e+00
  1.438743e+01    2.236716e+00
  1.440330e+01    2.252708e+00
  1.441918e+01    2.269711e+00
  1.443505e+01    2.234412e+00
  1.445093e+01    2.236276e+00
  1.446680e+01    2.252829e+00
  1.448268e+01    2.264955e+00
  1.449856e+01    2.240554e+00
  1.451443e+01    2.190543e+00
  1.453031e+01    2.206269e+00
  1.454618e+01    2.242570e+00
  1.456206e+01    2.235182e+00
  1.457793e+01    2.213109e+00
  1.459381e+01    2.208121e+00
  1.460968e+01    2.211159e+00
  1.462556e+01    2.173497e+00
  1.464144e+01    2.225940e+00
  1.465731e+01    2.217644e+00
  1.467319e+01    2.210878e+00
  1.468906e+01    2.230975e+00
  1.470494e+01    2.229727e+00
  1.472081e+01    2.200531e+00
  1.473669e+01    2.212293e+00
  1.475256e+01    2.233642e+00
  1.476844e+01    2.208349e+00
  1.478432e+01    2.206877e+00
  1.480019e+01    2.219245e+00
  1.481607e+01    2.198519e+00
  1.483194e+01    2.173409e+00
  1.484782e+01    2.215551e+00
  1.486369e+01    2.214080e+00
  1.487957e+01    2.243697e+00
  1.489544e+01    2.258376e+00
  1.491132e+01    2.240111e+00
  1.492720e+01    2.222574e+00
  1.494307e+01    2.256261e+00
  1.495895e+01    2.325692e+00
  1.497482e+01    2.358101e+00
  1.499070e+01    2.409502e+00
  1.500657e+01    2.444917e+00
  1.502245e+01    2.462010e+00
  1.503832e+01    2.544713e+00
  1.505420e+01    2.626245e+00
  1.507008e+01    2.815944e+00
  1.508595e+01    2.995610e+00
  1.510183e+01    3.197920e+00
  1.511770e+01    3.480490e+00
  1.513358e+01    3.784837e+00
  1.514945e+01    4.149807e+00
  1.516533e+01    4.511814e+00
  1.518120e+01    4.818967e+00
  1.519708e+01    5.136559e+00
  1.521296e+01    5.356326e+00
  1.522883e+01    5.553647e+00
  1.524471e+01    5.747158e+00
  1.526058e+01    5.781046e+00
  1.527646e+01    5.673392e+00
  1.529233e+01    5.459724e+00
  1.530821e+01    5.135026e+00
  1.532409e+01    4.655304e+00
  1.533996e+01    4.184298e+00
  1.535584e+01    3.728928e+00
  1.537171e+01    3.396415e+00
  1.538759e+01    3.135288e+00
  1.540346e+01    2.928785e+00
  1.541934e+01    2.772588e+00
  1.543521e+01    2.638672e+00
  1.545109e+01    2.542531e+00
  1.546697e+01    2.446032e+00
  1.548284e+01    2.378413e+00
  1.549872e+01    2.334767e+00
  1.551459e+01    2.286958e+00
  1.553047e+01    2.223828e+00
  1.554634e+01    2.203121e+00
  1.556222e+01    2.160290e+00
  1.557809e+01    2.131289e+00
  1.559397e+01    2.101649e+00
  1.560985e+01    2.072137e+00
  1.562572e+01    2.066775e+00
  1.564160e+01    2.024151e+00
  1.565747e+01    2.028468e+00
  1.567335e+01    2.005353e+00
  1.568922e+01    1.971005e+00
  1.570510e+01    1.992291e+00
  1.572097e+01    1.992808e+00
  1.573685e+01    2.019748e+00
  1.575273e+01    1.991051e+00
  1.576860e+01    1.929197e+00
  1.578448e+01    1.951152e+00
  1.580035e+01    1.945993e+00
  1.581623e+01    1.944836e+00
  1.583210e+01    1.933862e+00
  1.584798e+01    1.925157e+00
  1.586385e+01    1.903321e+00
  1.587973e+01    1.959470e+00
  1.589561e+01    1.942870e+00
  1.591148e+01    1.952847e+00
  1.592736e+01    1.899081e+00
  1.594323e+01    1.871061e+00
  1.595911e+01    1.865450e+00
  1.597498e+01    1.872535e+00
  1.599086e+01    1.849712e+00
  1.600673e+01    1.875370e+00
  1.602261e+01    1.885175e+00
  1.603849e+01    1.835413e+00
  1.605436e+01    1.844691e+00
  1.607024e+01    1.872672e+00
  1.608611e+01    1.894815e+00
  1.610199e+01    1.861768e+00
  1.611786e+01    1.841054e+00
  1.613374e+01    1.825587e+00
  1.614961e+01    1.833749e+00
  1.616549e+01    1.832956e+00
  1.618137e+01    1.859403e+00
  1.619724e+01    1.827278e+00
  1.621312e+01    1.791470e+00
  1.622899e+01    1.797274e+00
  1.624487e+01    1.830964e+00
  1.626074e+01    1.837511e+00
  1.627662e+01    1.799982e+00
  1.629250e+01    1.788719e+00
  1.630837e+01    1.790355e+00
  1.632425e+01    1.828462e+00
  1.634012e+01    1.787946e+00
  1.635600e+01    1.773477e+00
  1.637187e+01    1.804975e+00
  1.638775e+01    1.817688e+00
  1.640362e+01    1.795052e+00
  1.641950e+01    1.801156e+00
  1.643538e+01    1.788066e+00
  1.645125e+01    1.758129e+00
  1.646713e+01    1.774100e+00
  1.648300e+01    1.756934e+00
  1.649888e+01    1.765900e+00
  1.651475e+01    1.749960e+00
  1.653063e+01    1.793428e+00
  1.654650e+01    1.774501e+00
  1.656238e+01    1.717274e+00
  1.657826e+01    1.712599e+00
  1.659413e+01    1.720688e+00
  1.661001e+01    1.741133e+00
  1.662588e+01    1.731606e+00
  1.664176e+01    1.726205e+00
  1.665763e+01    1.728625e+00
  1.667351e+01    1.716500e+00
  1.668938e+01    1.717580e+00
  1.670526e+01    1.740002e+00
  1.672114e+01    1.749511e+00
  1.673701e+01    1.742098e+00
  1.675289e+01    1.727842e+00
  1.676876e+01    1.718001e+00
  1.678464e+01    1.699093e+00
  1.680051e+01    1.736205e+00
  1.681639e+01    1.730162e+00
  1.683226e+01    1.742606e+00
  1.684814e+01    1.722155e+00
  1.686402e+01    1.715157e+00
  1.687989e+01    1.683777e+00
  1.689577e+01    1.700104e+00
  1.691164e+01    1.688595e+00
  1.692752e+01    1.675241e+00
  1.694339e+01    1.686699e+00
  1.695927e+01    1.679898e+00
  1.697514e+01    1.658894e+00
  1.699102e+01    1.661772e+00
  1.700690e+01    1.659445e+00
  1.702277e+01    1.666646e+00
  1.703865e+01    1.638025e+00
  1.705452e+01    1.657058e+00
  1.707040e+01    1.669172e+00
  1.708627e+01    1.670836e+00
  1.710215e+01    1.656833e+00
  1.711802e+01    1.636195e+00
  1.713390e+01    1.662902e+00
  1.714978e+01    1.659553e+00
  1.716565e+01    1.651223e+00
  1.718153e+01    1.643991e+00
  1.719740e+01    1.629077e+00
  1.721328e+01    1.640742e+00
  1.722915e+01    1.591220e+00
  1.724503e+01    1.553473e+00
  1.726091e+01    1.584237e+00
  1.727678e+01    1.638037e+00
  1.729266e+01    1.663465e+00
  1.730853e+01    1.614122e+00
  1.732441e+01    1.591773e+00
  1.734028e+01    1.605112e+00
  1.735616e+01    1.584166e+00
  1.737203e+01    1.614829e+00
  1.738791e+01    1.585021e+00
  1.740379e+01    1.574779e+00
  1.741966e+01    1.557711e+00
  1.743554e+01    1.582157e+00
  1.745141e+01    1.601655e+00
  1.746729e+01    1.614188e+00
  1.748316e+01    1.589927e+00
  1.749904e+01    1.576638e+00
  1.751491e+01    1.561597e+00
  1.753079e+01    1.576189e+00
  1.754667e+01    1.593142e+00
  1.756254e+01    1.592602e+00
  1.757842e+01    1.557099e+00
  1.759429e+01    1.568783e+00
  1.761017e+01    1.565487e+00
  1.762604e+01    1.542037e+00
  1.764192e+01    1.568773e+00
  1.765779e+01    1.562140e+00
  1.767367e+01    1.556567e+00
  1.768955e+01    1.527335e+00
  1.770542e+01    1.530668e+00
  1.772130e+01    1.563519e+00
  1.773717e+01    1.569209e+00
  1.775305e+01    1.552145e+00
  1.776892e+01    1.560977e+00
  1.778480e+01    1.557253e+00
  1.780067e+01    1.531329e+00
  1.781655e+01    1.543826e+00
  1.783243e+01    1.557931e+00
  1.784830e+01    1.559564e+00
  1.786418e+01    1.550130e+00
  1.788005e+01    1.560955e+00
  1.789593e+01    1.567420e+00
  1.791180e+01    1.535096e+00
  1.792768e+01    1.509838e+00
  1.794355e+01    1.514646e+00
  1.795943e+01    1.515118e+00
  1.797531e+01    1.489785e+00
  1.799118e+01    1.517251e+00
  1.800706e+01    1.520615e+00
  1.802293e+01    1.500503e+00
  1.803881e+01    1.485502e+00
  1.805468e+01    1.527751e+00
  1.807056e+01    1.530296e+00
  1.808643e+01    1.516567e+00
  1.810231e+01    1.486358e+00
  1.811819e+01    1.491084e+00
  1.813406e+01    1.474046e+00
  1.814994e+01    1.482765e+00
  1.816581e+01    1.519268e+00
  1.818169e+01    1.510547e+00
  1.819756e+01    1.509852e+00
  1.821344e+01    1.498927e+00
  1.822932e+01    1.501716e+00
  1.824519e+01    1.519550e+00
  1.826107e+01    1.527152e+00
  1.827694e+01    1.488904e+00
  1.829282e+01    1.483890e+00
  1.830869e+01    1.493186e+00
  1.832457e+01    1.487719e+00
  1.834044e+01    1.483015e+00
  1.835632e+01    1.471223e+00
  1.837220e+01    1.438341e+00
  1.838807e+01    1.450957e+00
  1.840395e+01    1.443077e+00
  1.841982e+01    1.444846e+00
  1.843570e+01    1.465155e+00
  1.845157e+01    1.451216e+00
  1.846745e+01    1.439063e+00
  1.848332e+01    1.439055e+00
  1.849920e+01    1.457248e+00
  1.851508e+01    1.425709e+00
  1.853095e+01    1.428819e+00
  1.854683e+01    1.435082e+00
  1.856270e+01    1.438999e+00
  1.857858e+01    1.439430e+00
  1.859445e+01    1.414686e+00
  1.861033e+01    1.422448e+00
  1.862620e+01    1.451288e+00
  1.864208e+01    1.439636e+00
  1.865796e+01    1.444243e+00
  1.867383e+01    1.442025e+00
  1.868971e+01    1.405819e+00
  1.870558e+01    1.378946e+00
  1.872146e+01    1.417636e+00
  1.873733e+01    1.418111e+00
  1.875321e+01    1.402786e+00
  1.876908e+01    1.385970e+00
  1.878496e+01    1.380130e+00
  1.880084e+01    1.388847e+00
  1.881671e+01    1.405343e+00
  1.883259e+01    1.395462e+00
  1.884846e+01    1.414302e+00
  1.886434e+01    1.416072e+00
  1.888021e+01    1.387309e+00
  1.889609e+01    1.362490e+00
  1.891196e+01    1.401252e+00
  1.892784e+01    1.378519e+00
  1.894372e+01    1.353989e+00
  1.895959e+01    1.343396e+00
  1.897547e+01    1.361021e+00
  1.899134e+01    1.391282e+00
  1.900722e+01    1.399542e+00
  1.902309e+01    1.392954e+00
  1.903897e+01    1.370648e+00
  1.905484e+01    1.364210e+00
  1.907072e+01    1.355328e+00
  1.908660e+01    1.359694e+00
  1.910247e+01    1.378438e+00
  1.911835e+01    1.386933e+00
  1.913422e+01    1.381273e+00
  1.915010e+01    1.375601e+00
  1.916597e+01    1.371989e+00
  1.918185e+01    1.358366e+00
  1.919773e+01    1.352055e+00
  1.921360e+01    1.360566e+00
  1.922948e+01    1.371618e+00
  1.924535e+01    1.369374e+00
  1.926123e+01    1.353810e+00
  1.927710e+01    1.344596e+00
  1.929298e+01    1.352316e+00
  1.930885e+01    1.345818e+00
  1.932473e+01    1.369555e+00
  1.934061e+01    1.359105e+00
  1.935648e+01    1.374936e+00
  1.937236e+01    1.384938e+00
  1.938823e+01    1.373052e+00
  1.940411e+01    1.359460e+00
  1.941998e+01    1.319680e+00
  1.943586e+01    1.341979e+00
  1.945173e+01    1.334734e+00
  1.946761e+01    1.366427e+00
  1.948349e+01    1.359827e+00
  1.949936e+01    1.356613e+00
  1.951524e+01    1.316714e+00
  1.953111e+01    1.315601e+00
  1.954699e+01    1.359481e+00
  1.956286e+01    1.317412e+00
  1.957874e+01    1.314594e+00
  1.959461e+01    1.332552e+00
  1.961049e+01    1.329270e+00
  1.962637e+01    1.339756e+00
  1.964224e+01    1.331942e+00
  1.965812e+01    1.343828e+00
  1.967399e+01    1.326038e+00
  1.968987e+01    1.305188e+00
  1.970574e+01    1.324295e+00
  1.972162e+01    1.330875e+00
  1.973749e+01    1.326882e+00
  1.975337e+01    1.324397e+00
  1.976925e+01    1.318232e+00
  1.978512e+01    1.297604e+00
  1.980100e+01    1.291637e+00
  1.981687e+01    1.304550e+00
  1.983275e+01    1.332984e+00
  1.984862e+01    1.306663e+00
  1.986450e+01    1.294745e+00
  1.988037e+01    1.284814e+00
  1.989625e+01    1.302240e+00
  1.991213e+01    1.327066e+00
  1.992800e+01    1.286560e+00
  1.994388e+01    1.293054e+00
  1.995975e+01    1.291788e+00
  1.997563e+01    1.283993e+00
  1.999150e+01    1.267548e+00
  2.000738e+01    1.263965e+00
  2.002325e+01    1.289893e+00
  2.003913e+01    1.285515e+00
  2.005501e+01    1.253868e+00
  2.007088e+01    1.284160e+00
  2.008676e+01    1.293240e+00
  2.010263e+01    1.296322e+00
  2.011851e+01    1.292999e+00
  2.013438e+01    1.281702e+00
  2.015026e+01    1.279275e+00
  2.016614e+01    1.266929e+00
  2.018201e+01    1.265617e+00
  2.019789e+01    1.256840e+00
  2.021376e+01    1.272243e+00
  2.022964e+01    1.270046e+00
  2.024551e+01    1.272397e+00
  2.026139e+01    1.259409e+00
  2.027726e+01    1.280351e+00
  2.029314e+01    1.280974e+00
  2.030902e+01    1.271290e+00
  2.032489e+01    1.234784e+00
  2.034077e+01    1.208649e+00
  2.035664e+01    1.236528e+00
  2.037252e+01    1.241668e+00
  2.038839e+01    1.243840e+00
  2.040427e+01    1.249651e+00
  2.042014e+01    1.239101e+00
  2.043602e+01    1.235071e+00
  2.045190e+01    1.236425e+00
  2.046777e+01    1.240278e+00
  2.048365e+01    1.235382e+00
  2.049952e+01    1.223881e+00
  2.051540e+01    1.236065e+00
  2.053127e+01    1.231566e+00
  2.054715e+01    1.246341e+00
  2.056302e+01    1.212978e+00
  2.057890e+01    1.235986e+00
  2.059478e+01    1.225377e+00
  2.061065e+01    1.223796e+00
  2.062653e+01    1.219886e+00
  2.064240e+01    1.237776e+00
  2.065828e+01    1.232726e+00
  2.067415e+01    1.244471e+00
  2.069003e+01    1.219677e+00
  2.070590e+01    1.204783e+00
  2.072178e+01    1.224027e+00
  2.073766e+01    1.220367e+00
  2.075353e+01    1.220128e+00
  2.076941e+01    1.248037e+00
  2.078528e+01    1.248554e+00
  2.080116e+01    1.249237e+00
  2.081703e+01    1.244848e+00
  2.083291e+01    1.202276e+00
  2.084878e+01    1.199220e+00
  2.086466e+01    1.233984e+00
  2.088054e+01    1.219067e+00
  2.089641e+01    1.222983e+00
  2.091229e+01    1.239801e+00
  2.092816e+01    1.209103e+00
  2.094404e+01    1.219841e+00
  2.095991e+01    1.218490e+00
  2.097579e+01    1.215564e+00
  2.099166e+01    1.217530e+00
  2.100754e+01    1.203883e+00
  2.102342e+01    1.196734e+00
  2.103929e+01    1.212027e+00
  2.105517e+01    1.225441e+00
  2.107104e+01    1.211191e+00
  2.108692e+01    1.227870e+00
  2.110279e+01    1.241861e+00
  2.111867e+01    1.216529e+00
  2.113455e+01    1.214592e+00
  2.115042e+01    1.232558e+00
  2.116630e+01    1.227765e+00
  2.118217e+01    1.220062e+00
  2.119805e+01    1.236576e+00
  2.121392e+01    1.245827e+00
  2.122980e+01    1.252941e+00
  2.124567e+01    1.256580e+00
  2.126155e+01    1.242702e+00
  2.127743e+01    1.259983e+00
  2.129330e+01    1.252786e+00
  2.130918e+01    1.244322e+00
  2.132505e+01    1.251524e+00
  2.134093e+01    1.247257e+00
  2.135680e+01    1.270514e+00
  2.137268e+01    1.270350e+00
  2.138855e+01    1.285841e+00
  2.140443e+01    1.303691e+00
  2.142031e+01    1.291570e+00
  2.143618e+01    1.344311e+00
  2.145206e+01    1.351358e+00
  2.146793e+01    1.368143e+00
  2.148381e+01    1.383646e+00
  2.149968e+01    1.407726e+00
  2.151556e+01    1.409028e+00
  2.153143e+01    1.432598e+00
  2.154731e+01    1.496151e+00
  2.156319e+01    1.554178e+00
  2.157906e+01    1.653848e+00
  2.159494e+01    1.697306e+00
  2.161081e+01    1.746617e+00
  2.162669e+01    1.829904e+00
  2.164256e+01    1.926980e+00
  2.165844e+01    2.110583e+00
  2.167431e+01    2.284062e+00
  2.169019e+01    2.500779e+00
  2.170607e+01    2.754373e+00
  2.172194e+01    3.054323e+00
  2.173782e+01    3.514283e+00
  2.175369e+01    4.053046e+00
  2.176957e+01    4.567944e+00
  2.178544e+01    5.165099e+00
  2.180132e+01    5.808114e+00
  2.181719e+01    6.471220e+00
  2.183307e+01    7.101590e+00
  2.184895e+01    7.788083e+00
  2.186482e+01    8.322300e+00
  2.188070e+01    8.662992e+00
  2.189657e+01    8.863773e+00
  2.191245e+01    8.725400e+00
  2.192832e+01    8.206987e+00
  2.194420e+01    7.497883e+00
  2.196007e+01    6.630721e+00
  2.197595e+01    5.747984e+00
  2.199183e+01    4.870173e+00
  2.200770e+01    4.178195e+00
  2.202358e+01    3.656135e+00
  2.203945e+01    3.230185e+00
  2.205533e+01    2.852963e+00
  2.207120e+01    2.589967e+00
  2.208708e+01    2.346467e+00
  2.210296e+01    2.140025e+00
  2.211883e+01    1.980665e+00
  2.213471e+01    1.857270e+00
  2.215058e+01    1.753036e+00
  2.216646e+01    1.673827e+00
  2.218233e+01    1.604677e+00
  2.219821e+01    1.559411e+00
  2.221408e+01    1.507578e+00
  2.222996e+01    1.472195e+00
  2.224584e+01    1.401248e+00
  2.226171e+01    1.370610e+00
  2.227759e+01    1.360819e+00
  2.229346e+01    1.329052e+00
  2.230934e+01    1.297571e+00
  2.232521e+01    1.297393e+00
  2.234109e+01    1.294080e+00
  2.235696e+01    1.249530e+00
  2.237284e+01    1.228626e+00
  2.238872e+01    1.214454e+00
  2.240459e+01    1.192138e+00
  2.242047e+01    1.176242e+00
  2.243634e+01    1.169643e+00
  2.245222e+01    1.186449e+00
  2.246809e+01    1.152643e+00
  2.248397e+01    1.162881e+00
  2.249984e+01    1.147546e+00
  2.251572e+01    1.132026e+00
  2.253160e+01    1.143423e+00
  2.254747e+01    1.113551e+00
  2.256335e+01    1.097811e+00
  2.257922e+01    1.092103e+00
  2.259510e+01    1.092935e+00
  2.261097e+01    1.084933e+00
  2.262685e+01    1.095242e+00
  2.264272e+01    1.104916e+00
  2.265860e+01    1.092944e+00
  2.267448e+01    1.095317e+00
  2.269035e+01    1.080684e+00
  2.270623e+01    1.068218e+00
  2.272210e+01    1.087109e+00
  2.273798e+01    1.089159e+00
  2.275385e+01    1.071835e+00
  2.276973e+01    1.069544e+00
  2.278560e+01    1.056180e+00
  2.280148e+01    1.049548e+00
  2.281736e+01    1.053855e+00
  2.283323e+01    1.053355e+00
  2.284911e+01    1.047151e+00
  2.286498e+01    1.041172e+00
  2.288086e+01    1.045960e+00
  2.289673e+01    1.041086e+00
  2.291261e+01    1.038730e+00
  2.292848e+01    1.039800e+00
  2.294436e+01    1.023400e+00
  2.296024e+01    1.028270e+00
  2.297611e+01    1.030227e+00
  2.299199e+01    1.046778e+00
  2.300786e+01    1.017190e+00
  2.302374e+01    1.011114e+00
  2.303961e+01    1.025151e+00
  2.305549e+01    1.001470e+00
  2.307137e+01    1.016784e+00
  2.308724e+01    9.874884e-01
  2.310312e+01    9.928570e-01
  2.311899e+01    1.008931e+00
  2.313487e+01    1.006294e+00
  2.315074e+01    9.994427e-01
  2.316662e+01    9.887740e-01
  2.318249e+01    1.006818e+00
  2.319837e+01    1.002895e+00
  2.321425e+01    1.000710e+00
  2.323012e+01    9.839759e-01
  2.324600e+01    9.774667e-01
  2.326187e+01    1.006263e+00
  2.327775e+01    9.895186e-01
  2.329362e+01    9.888263e-01
  2.330950e+01    9.846265e-01
  2.332537e+01    9.897885e-01
  2.334125e+01    9.995707e-01
  2.335713e+01    9.959158e-01
  2.337300e+01    9.737452e-01
  2.338888e+01    9.793177e-01
  2.340475e+01    9.836575e-01
  2.342063e+01    9.667991e-01
  2.343650e+01    9.692346e-01
  2.345238e+01    9.788916e-01
  2.346825e+01    9.570960e-01
  2.348413e+01    9.640220e-01
  2.350001e+01    9.625210e-01
  2.351588e+01    9.656826e-01
  2.353176e+01    9.720727e-01
  2.354763e+01    9.467337e-01
  2.356351e+01    9.594513e-01
  2.357938e+01    9.575149e-01
  2.359526e+01    9.619912e-01
  2.361113e+01    9.697291e-01
  2.362701e+01    9.650842e-01
  2.364289e+01    9.547952e-01
  2.365876e+01    9.503282e-01
  2.367464e+01    9.461924e-01
  2.369051e+01    9.344633e-01
  2.370639e+01    9.361244e-01
  2.372226e+01    9.371039e-01
  2.373814e+01    9.398312e-01
  2.375401e+01    9.315260e-01
  2.376989e+01    9.306648e-01
  2.378577e+01    9.247429e-01
  2.380164e+01    9.382482e-01
  2.381752e+01    9.253057e-01
  2.383339e+01    8.964599e-01
  2.384927e+01    9.149573e-01
  2.386514e+01    9.137804e-01
  2.388102e+01    9.361271e-01
  2.389689e+01    9.203560e-01
  2.391277e+01    9.175702e-01
  2.392865e+01    9.211023e-01
  2.394452e+01    9.124786e-01
  2.396040e+01    8.901706e-01
  2.397627e+01    8.996996e-01
  2.399215e+01    9.091609e-01
  2.400802e+01    8.968530e-01
  2.402390e+01    8.843930e-01
  2.403978e+01    8.775515e-01
  2.405565e+01    8.877760e-01
  2.407153e+01    8.986710e-01
  2.408740e+01    8.958896e-01
  2.410328e+01    8.822410e-01
  2.411915e+01    9.047351e-01
  2.413503e+01    9.181611e-01
  2.415090e+01    9.015967e-01
  2.416678e+01    8.936257e-01
  2.418266e+01    8.834444e-01
  2.419853e+01    8.857794e-01
  2.421441e+01    8.612871e-01
  2.423028e+01    8.606473e-01
  2.424616e+01    8.735536e-01
  2.426203e+01    8.891721e-01
  2.427791e+01    9.055348e-01
  2.429378e+01    8.881165e-01
  2.430966e+01    9.066632e-01
  2.432554e+01    8.954852e-01
  2.434141e+01    8.955132e-01
  2.435729e+01    8.918920e-01
  2.437316e+01    9.006312e-01
  2.438904e+01    9.192883e-01
  2.440491e+01    9.006232e-01
  2.442079e+01    8.845434e-01
  2.443666e+01    8.802486e-01
  2.445254e+01    8.907775e-01
  2.446842e+01    8.933076e-01
  2.448429e+01    8.922647e-01
  2.450017e+01    9.008127e-01
  2.451604e+01    9.022424e-01
  2.453192e+01    8.930422e-01
  2.454779e+01    9.112896e-01
  2.456367e+01    8.889402e-01
  2.457954e+01    8.860521e-01
  2.459542e+01    9.010170e-01
  2.461130e+01    9.118810e-01
  2.462717e+01    9.065215e-01
  2.464305e+01    8.874545e-01
  2.465892e+01    8.770493e-01
  2.467480e+01    8.829737e-01
  2.469067e+01    8.874655e-01
  2.470655e+01    8.895684e-01
  2.472242e+01    8.873282e-01
  2.473830e+01    8.763543e-01
  2.475418e+01    8.817981e-01
  2.477005e+01    8.968640e-01
  2.478593e+01    9.011264e-01
  2.480180e+01    8.726423e-01
  2.481768e+01    8.774270e-01
  2.483355e+01    8.951386e-01
  2.484943e+01    8.897032e-01
  2.486530e+01    8.733464e-01
  2.488118e+01    8.978574e-01
  2.489706e+01    9.086758e-01
  2.491293e+01    8.861729e-01
  2.492881e+01    8.892439e-01
  2.494468e+01    9.055083e-01
  2.496056e+01    9.006535e-01
  2.497643e+01    8.914433e-01
  2.499231e+01    8.973178e-01
  2.500819e+01    9.011289e-01
  2.502406e+01    9.208975e-01
  2.503994e+01    9.016525e-01
  2.505581e+01    9.180933e-01
  2.507169e+01    9.114371e-01
  2.508756e+01    8.925935e-01
  2.510344e+01    8.969942e-01
  2.511931e+01    9.097716e-01
  2.513519e+01    8.981723e-01
  2.515107e+01    9.143156e-01
  2.516694e+01    9.225187e-01
  2.518282e+01    9.149896e-01
  2.519869e+01    9.131246e-01
  2.521457e+01    9.355207e-01
  2.523044e+01    9.465960e-01
  2.524632e+01    9.620171e-01
  2.526219e+01    9.626161e-01
  2.527807e+01    9.448218e-01
  2.529395e+01    9.425917e-01
  2.530982e+01    9.620741e-01
  2.532570e+01    9.526227e-01
  2.534157e+01    9.529188e-01
  2.535745e+01    9.721956e-01
  2.537332e+01    9.797339e-01
  2.538920e+01    9.842185e-01
  2.540507e+01    9.953334e-01
  2.542095e+01    1.005342e+00
  2.543683e+01    1.010348e+00
  2.545270e+01    1.011343e+00
  2.546858e+01    1.019189e+00
  2.548445e+01    1.039577e+00
  2.550033e+01    1.052064e+00
  2.551620e+01    1.079100e+00
  2.553208e+01    1.103784e+00
  2.554795e+01    1.138687e+00
  2.556383e+01    1.143891e+00
  2.557971e+01    1.146444e+00
  2.559558e+01    1.191827e+00
  2.561146e+01    1.212731e+00
  2.562733e+01    1.250511e+00
  2.564321e+01    1.291851e+00
  2.565908e+01    1.343763e+00
  2.567496e+01    1.421298e+00
  2.569083e+01    1.500963e+00
  2.570671e+01    1.591000e+00
  2.572259e+01    1.691597e+00
  2.573846e+01    1.826092e+00
  2.575434e+01    2.020239e+00
  2.577021e+01    2.218943e+00
  2.578609e+01    2.488271e+00
  2.580196e+01    2.761484e+00
  2.581784e+01    3.132348e+00
  2.583371e+01    3.592909e+00
  2.584959e+01    4.119075e+00
  2.586547e+01    4.670724e+00
  2.588134e+01    5.259955e+00
  2.589722e+01    5.818365e+00
  2.591309e+01    6.386268e+00
  2.592897e+01    6.761247e+00
  2.594484e+01    7.045357e+00
  2.596072e+01    7.138954e+00
  2.597660e+01    6.947597e+00
  2.599247e+01    6.557620e+00
  2.600835e+01    5.988432e+00
  2.602422e+01    5.291185e+00
  2.604010e+01    4.640652e+00
  2.605597e+01    4.047849e+00
  2.607185e+01    3.458139e+00
  2.608772e+01    3.008605e+00
  2.610360e+01    2.633878e+00
  2.611948e+01    2.365856e+00
  2.613535e+01    2.105768e+00
  2.615123e+01    1.918700e+00
  2.616710e+01    1.790459e+00
  2.618298e+01    1.681347e+00
  2.619885e+01    1.595011e+00
  2.621473e+01    1.507817e+00
  2.623060e+01    1.411062e+00
  2.624648e+01    1.356778e+00
  2.626236e+01    1.323926e+00
  2.627823e+01    1.272705e+00
  2.629411e+01    1.230139e+00
  2.630998e+01    1.204039e+00
  2.632586e+01    1.147897e+00
  2.634173e+01    1.108383e+00
  2.635761e+01    1.067626e+00
  2.637348e+01    1.073053e+00
  2.638936e+01    1.082087e+00
  2.640524e+01    1.075611e+00
  2.642111e+01    1.036651e+00
  2.643699e+01    1.047131e+00
  2.645286e+01    1.035764e+00
  2.646874e+01    1.023050e+00
  2.648461e+01    1.016280e+00
  2.650049e+01    1.008036e+00
  2.651636e+01    9.942996e-01
  2.653224e+01    9.943311e-01
  2.654812e+01    1.006245e+00
  2.656399e+01    9.836624e-01
  2.657987e+01    9.899765e-01
  2.659574e+01    1.008107e+00
  2.661162e+01    9.707109e-01
  2.662749e+01    9.884093e-01
  2.664337e+01    1.008304e+00
  2.665924e+01    9.748952e-01
  2.667512e+01    9.813319e-01
  2.669100e+01    9.611189e-01
  2.670687e+01    9.598784e-01
  2.672275e+01    9.758318e-01
  2.673862e+01    9.806138e-01
  2.675450e+01    9.506877e-01
  2.677037e+01    9.667563e-01
  2.678625e+01    9.656569e-01
  2.680212e+01    9.815241e-01
  2.681800e+01    9.913105e-01
  2.683388e+01    9.653440e-01
  2.684975e+01    9.641814e-01
  2.686563e+01    9.856722e-01
  2.688150e+01    1.009649e+00
  2.689738e+01    1.005321e+00
  2.691325e+01    1.012976e+00
  2.692913e+01    1.014785e+00
  2.694501e+01    1.020775e+00
  2.696088e+01    1.030139e+00
  2.697676e+01    1.067847e+00
  2.699263e+01    1.095973e+00
  2.700851e+01    1.089631e+00
  2.702438e+01    1.127117e+00
  2.704026e+01    1.206976e+00
  2.705613e+01    1.244227e+00
  2.707201e+01    1.305842e+00
  2.708789e+01    1.377760e+00
  2.710376e+01    1.465815e+00
  2.711964e+01    1.579023e+00
  2.713551e+01    1.744221e+00
  2.715139e+01    1.856777e+00
  2.716726e+01    1.977545e+00
  2.718314e+01    2.047005e+00
  2.719901e+01    2.129557e+00
  2.721489e+01    2.180212e+00
  2.723077e+01    2.179233e+00
  2.724664e+01    2.088543e+00
  2.726252e+01    1.973422e+00
  2.727839e+01    1.856552e+00
  2.729427e+01    1.712571e+00
  2.731014e+01    1.585704e+00
  2.732602e+01    1.437583e+00
  2.734189e+01    1.352182e+00
  2.735777e+01    1.300613e+00
  2.737365e+01    1.251908e+00
  2.738952e+01    1.184466e+00
  2.740540e+01    1.113169e+00
  2.742127e+01    1.076966e+00
  2.743715e+01    1.061218e+00
  2.745302e+01    1.045688e+00
  2.746890e+01    1.005442e+00
  2.748477e+01    9.801215e-01
  2.750065e+01    1.006795e+00
  2.751653e+01    9.909814e-01
  2.753240e+01    9.680884e-01
  2.754828e+01    9.606945e-01
  2.756415e+01    9.411809e-01
  2.758003e+01    9.499826e-01
  2.759590e+01    9.386109e-01
  2.761178e+01    9.253975e-01
  2.762765e+01    9.223551e-01
  2.764353e+01    9.249001e-01
  2.765941e+01    9.333044e-01
  2.767528e+01    9.213294e-01
  2.769116e+01    9.179649e-01
  2.770703e+01    8.956738e-01
  2.772291e+01    8.892558e-01
  2.773878e+01    8.870857e-01
  2.775466e+01    8.975390e-01
  2.777054e+01    9.023976e-01
  2.778641e+01    8.868831e-01
  2.780229e+01    8.753873e-01
  2.781816e+01    8.812400e-01
  2.783404e+01    8.645309e-01
  2.784991e+01    8.714312e-01
  2.786579e+01    8.904932e-01
  2.788166e+01    9.026799e-01
  2.789754e+01    8.731725e-01
  2.791342e+01    8.601408e-01
  2.792929e+01    8.615680e-01
  2.794517e+01    8.692174e-01
  2.796104e+01    8.631126e-01
  2.797692e+01    8.891174e-01
  2.799279e+01    8.801225e-01
  2.800867e+01    8.746883e-01
  2.802454e+01    8.680896e-01
  2.804042e+01    8.525401e-01
  2.805630e+01    8.620912e-01
  2.807217e+01    8.740942e-01
  2.808805e+01    8.737409e-01
  2.810392e+01    8.652155e-01
  2.811980e+01    8.944106e-01
  2.813567e+01    8.663360e-01
  2.815155e+01    8.624278e-01
  2.816742e+01    8.518394e-01
  2.818330e+01    8.536054e-01
  2.819918e+01    8.820444e-01
  2.821505e+01    8.642831e-01
  2.823093e+01    8.555005e-01
  2.824680e+01    8.485442e-01
  2.826268e+01    8.339897e-01
  2.827855e+01    8.385167e-01
  2.829443e+01    8.503030e-01
  2.831030e+01    8.452110e-01
  2.832618e+01    8.549759e-01
  2.834206e+01    8.731996e-01
  2.835793e+01    8.586984e-01
  2.837381e+01    8.486292e-01
  2.838968e+01    8.468303e-01
  2.840556e+01    8.501472e-01
  2.842143e+01    8.427013e-01
  2.843731e+01    8.406741e-01
  2.845318e+01    8.534373e-01
  2.846906e+01    8.397000e-01
  2.848494e+01    8.448796e-01
  2.850081e+01    8.291413e-01
  2.851669e+01    8.271469e-01
  2.853256e+01    8.433245e-01
  2.854844e+01    8.269080e-01
  2.856431e+01    8.329422e-01
  2.858019e+01    8.459197e-01
  2.859606e+01    8.298429e-01
  2.861194e+01    8.305435e-01
  2.862782e+01    8.449873e-01
  2.864369e+01    8.540796e-01
  2.865957e+01    8.271112e-01
  2.867544e+01    8.233342e-01
  2.869132e+01    8.227698e-01
  2.870719e+01    8.258208e-01
  2.872307e+01    8.464181e-01
  2.873895e+01    8.379108e-01
  2.875482e+01    8.328897e-01
  2.877070e+01    8.354385e-01
  2.878657e+01    8.391724e-01
  2.880245e+01    8.288202e-01
  2.881832e+01    8.331557e-01
  2.883420e+01    8.154609e-01
  2.885007e+01    8.114786e-01
  2.886595e+01    8.190935e-01
  2.888183e+01    8.158932e-01
  2.889770e+01    8.229312e-01
  2.891358e+01    8.243107e-01
  2.892945e+01    8.105215e-01
  2.894533e+01    8.174461e-01
  2.896120e+01    8.139210e-01
  2.897708e+01    8.088806e-01
  2.899295e+01    8.234718e-01
  2.900883e+01    8.264050e-01
  2.902471e+01    8.201305e-01
  2.904058e+01    8.193169e-01
  2.905646e+01    8.201172e-01
  2.907233e+01    8.232518e-01
  2.908821e+01    8.105801e-01
  2.910408e+01    8.148144e-01
  2.911996e+01    8.177752e-01
  2.913583e+01    8.126110e-01
  2.915171e+01    8.018348e-01
  2.916759e+01    8.093039e-01
  2.918346e+01    8.080145e-01
  2.919934e+01    8.031299e-01
  2.921521e+01    8.066325e-01
  2.923109e+01    8.040269e-01
  2.924696e+01    8.025753e-01
  2.926284e+01    8.190966e-01
  2.927871e+01    8.006361e-01
  2.929459e+01    7.995789e-01
  2.931047e+01    8.107312e-01
  2.932634e+01    7.861280e-01
  2.934222e+01    8.065535e-01
  2.935809e+01    8.297272e-01
  2.937397e+01    8.237012e-01
  2.938984e+01    7.908604e-01
  2.940572e+01    8.045512e-01
  2.942159e+01    8.122694e-01
  2.943747e+01    7.906552e-01
  2.945335e+01    8.012330e-01
  2.946922e+01    7.880191e-01
  2.948510e+01    8.015581e-01
  2.950097e+01    8.037351e-01
  2.951685e+01    8.280923e-01
  2.953272e+01    8.064894e-01
  2.954860e+01    8.043381e-01
  2.956447e+01    7.945703e-01
  2.958035e+01    8.021683e-01
  2.959623e+01    8.234718e-01
  2.961210e+01    8.096759e-01
  2.962798e+01    8.096081e-01
  2.964385e+01    8.273175e-01
  2.965973e+01    7.960728e-01
  2.967560e+01    8.034332e-01
  2.969148e+01    8.135749e-01
  2.970736e+01    8.108408e-01
  2.972323e+01    7.829943e-01
  2.973911e+01    7.837186e-01
  2.975498e+01    7.949696e-01
  2.977086e+01    8.013399e-01
  2.978673e+01    7.869262e-01
  2.980261e+01    8.062014e-01
  2.981848e+01    8.005619e-01
  2.983436e+01    8.114839e-01
  2.985024e+01    8.040745e-01
  2.986611e+01    7.975095e-01
  2.988199e+01    7.892080e-01
  2.989786e+01    7.657520e-01
  2.991374e+01    7.732235e-01
  2.992961e+01    8.024695e-01
  2.994549e+01    7.860179e-01
  2.996136e+01    8.025641e-01
  2.997724e+01    7.966425e-01
  2.999312e+01    8.046527e-01
  3.000899e+01    8.040563e-01
  3.002487e+01    8.228792e-01
  3.004074e+01    8.331961e-01
  3.005662e+01    8.046600e-01
  3.007249e+01    7.962855e-01
  3.008837e+01    8.227810e-01
  3.010424e+01    8.003023e-01
  3.012012e+01    7.948043e-01
  3.013600e+01    7.883043e-01
  3.015187e+01    7.752306e-01
  3.016775e+01    7.999815e-01
  3.018362e+01    8.065520e-01
  3.019950e+01    7.765117e-01
  3.021537e+01    8.030610e-01
  3.023125e+01    7.886671e-01
  3.024712e+01    7.928821e-01
  3.026300e+01    7.953473e-01
  3.027888e+01    7.895455e-01
  3.029475e+01    7.673629e-01
  3.031063e+01    7.735496e-01
  3.032650e+01    7.823063e-01
  3.034238e+01    7.813470e-01
  3.035825e+01    7.774127e-01
  3.037413e+01    7.902980e-01
  3.039000e+01    7.777867e-01
  3.040588e+01    7.801396e-01
  3.042176e+01    7.911979e-01
  3.043763e+01    7.759310e-01
  3.045351e+01    7.829443e-01
  3.046938e+01    7.873002e-01
  3.048526e+01    7.865565e-01
  3.050113e+01    7.881986e-01
  3.051701e+01    7.971959e-01
  3.053288e+01    7.765453e-01
  3.054876e+01    7.726107e-01
  3.056464e+01    8.004093e-01
  3.058051e+01    7.850538e-01
  3.059639e+01    7.669565e-01
  3.061226e+01    7.722406e-01
  3.062814e+01    7.851134e-01
  3.064401e+01    8.023403e-01
  3.065989e+01    7.775217e-01
  3.067577e+01    7.972817e-01
  3.069164e+01    7.879544e-01
  3.070752e+01    7.706783e-01
  3.072339e+01    7.839906e-01
  3.073927e+01    7.777351e-01
  3.075514e+01    7.741286e-01
  3.077102e+01    7.748153e-01
  3.078689e+01    7.832040e-01
  3.080277e+01    8.022196e-01
  3.081865e+01    7.964981e-01
  3.083452e+01    7.702563e-01
  3.085040e+01    7.675767e-01
  3.086627e+01    7.905779e-01
  3.088215e+01    7.807222e-01
  3.089802e+01    7.970564e-01
  3.091390e+01    8.019526e-01
  3.092977e+01    7.863699e-01
  3.094565e+01    7.783068e-01
  3.096153e+01    7.794976e-01
  3.097740e+01    7.786216e-01
  3.099328e+01    7.855650e-01
  3.100915e+01    7.831702e-01
  3.102503e+01    7.670711e-01
  3.104090e+01    7.865917e-01
  3.105678e+01    7.714921e-01
  3.107265e+01    7.660288e-01
  3.108853e+01    7.916017e-01
  3.110441e+01    7.960039e-01
  3.112028e+01    7.875191e-01
  3.113616e+01    7.964198e-01
  3.115203e+01    8.009170e-01
  3.116791e+01    7.825162e-01
  3.118378e+01    7.737429e-01
  3.119966e+01    7.809976e-01
  3.121553e+01    7.942050e-01
  3.123141e+01    8.031729e-01
  3.124729e+01    8.077253e-01
  3.126316e+01    8.186237e-01
  3.127904e+01    7.762251e-01
  3.129491e+01    7.897848e-01
  3.131079e+01    7.855642e-01
  3.132666e+01    7.804183e-01
  3.134254e+01    7.911969e-01
  3.135841e+01    7.963023e-01
  3.137429e+01    7.995244e-01
  3.139017e+01    8.116564e-01
  3.140604e+01    7.923353e-01
  3.142192e+01    8.128495e-01
  3.143779e+01    7.940707e-01
  3.145367e+01    8.060142e-01
  3.146954e+01    8.304937e-01
  3.148542e+01    8.456849e-01
  3.150129e+01    8.333250e-01
  3.151717e+01    8.381557e-01
  3.153305e+01    8.455170e-01
  3.154892e+01    8.299656e-01
  3.156480e+01    8.382872e-01
  3.158067e+01    8.541213e-01
  3.159655e+01    8.846471e-01
  3.161242e+01    8.801460e-01
  3.162830e+01    8.835087e-01
  3.164418e+01    9.291016e-01
  3.166005e+01    9.511612e-01
  3.167593e+01    9.424877e-01
  3.169180e+01    9.346910e-01
  3.170768e+01    1.018042e+00
  3.172355e+01    1.089599e+00
  3.173943e+01    1.115921e+00
  3.175530e+01    1.164861e+00
  3.177118e+01    1.235162e+00
  3.178706e+01    1.332444e+00
  3.180293e+01    1.443417e+00
  3.181881e+01    1.560683e+00
  3.183468e+01    1.693107e+00
  3.185056e+01    1.832760e+00
  3.186643e+01    1.938427e+00
  3.188231e+01    2.012255e+00
  3.189818e+01    2.076631e+00
  3.191406e+01    2.067855e+00
  3.192994e+01    1.964345e+00
  3.194581e+01    1.891638e+00
  3.196169e+01    1.810660e+00
  3.197756e+01    1.669464e+00
  3.199344e+01    1.511626e+00
  3.200931e+01    1.436100e+00
  3.202519e+01    1.349364e+00
  3.204106e+01    1.269215e+00
  3.205694e+01    1.168514e+00
  3.207282e+01    1.078793e+00
  3.208869e+01    1.017583e+00
  3.210457e+01    9.890607e-01
  3.212044e+01    9.642806e-01
  3.213632e+01    9.379934e-01
  3.215219e+01    9.376373e-01
  3.216807e+01    9.219974e-01
  3.218394e+01    8.837212e-01
  3.219982e+01    8.451846e-01
  3.221570e+01    8.409754e-01
  3.223157e+01    8.297087e-01
  3.224745e+01    8.183312e-01
  3.226332e+01    8.338540e-01
  3.227920e+01    8.383591e-01
  3.229507e+01    8.211766e-01
  3.231095e+01    7.944152e-01
  3.232682e+01    8.108870e-01
  3.234270e+01    8.095126e-01
  3.235858e+01    7.968585e-01
  3.237445e+01    7.970163e-01
  3.239033e+01    7.868652e-01
  3.240620e+01    7.844719e-01
  3.242208e+01    7.980011e-01
  3.243795e+01    8.039673e-01
  3.245383e+01    7.883302e-01
  3.246970e+01    7.884310e-01
  3.248558e+01    8.021562e-01
  3.250146e+01    7.826576e-01
  3.251733e+01    7.808036e-01
  3.253321e+01    7.761221e-01
  3.254908e+01    7.661861e-01
