# == pyFAI calibration ==
# Distance Sample to Detector: 0.3999999939076516 m
# PONI: 9.750e-02, 1.135e-01 m
# Rotations: -0.000175 0.000000 -0.000000 rad
# 
# == Fit2d calibration ==
# Distance Sample-beamCenter: 400.000 mm
# Center: x=1514.000, y=1300.000 pix
# Tilt: 0.010 deg  TiltPlanRot: 0.010 deg
# 
# Detector Detector	 Spline= None	 PixelSize= 7.500e-05, 7.500e-05 m
#    Detector has a mask: False 
#    Detector has a dark current: False 
#    detector has a flat field: False 
# 
# Wavelength: 6.888e-11 m
# Mask applied: user provided
# Dark current applied: False
# Flat field applied: False
# Polarization factor: 0.99
# Normalization factor: 1.0
# --> /home/myspot/data/2024_07_Rosario/Ru-CGO-ex/2024-07-27_003_Ru-CGO-ex_Reaction_dwell_000023_data_000024.dat
#       q_nm^-1             I 
  2.003187e-02    0.000000e+00
  3.590745e-02    6.858279e-02
  5.178302e-02    2.116731e-01
  6.765859e-02    1.910813e-01
  8.353417e-02    1.145279e-01
  9.940974e-02    1.427397e-01
  1.152853e-01    1.809940e-01
  1.311609e-01    8.819548e-02
  1.470365e-01    0.000000e+00
  1.629120e-01    3.828169e-03
  1.787876e-01    2.850442e-02
  1.946632e-01    4.862665e-02
  2.105388e-01    3.811758e-02
  2.264143e-01    7.735476e-02
  2.422899e-01    8.710209e-02
  2.581655e-01    4.326504e-02
  2.740411e-01    2.233688e-02
  2.899166e-01    6.369915e-02
  3.057922e-01    4.563645e-02
  3.216678e-01    4.277842e-02
  3.375433e-01    4.956239e-02
  3.534189e-01    4.882184e-02
  3.692945e-01    2.049354e-02
  3.851701e-01    4.160362e-02
  4.010456e-01    4.281183e-02
  4.169212e-01    2.447082e-02
  4.327968e-01    1.574475e-02
  4.486724e-01    1.320420e-02
  4.645479e-01    3.128618e-02
  4.804235e-01    5.589258e-02
  4.962991e-01    4.214653e-02
  5.121747e-01    4.580473e-02
  5.280502e-01    4.062622e-02
  5.439258e-01    3.709961e-02
  5.598014e-01    5.740047e-02
  5.756770e-01    3.460281e-02
  5.915525e-01    2.242094e-02
  6.074281e-01    2.300571e-02
  6.233037e-01    2.546009e-02
  6.391793e-01    3.648323e-02
  6.550548e-01    6.711046e-02
  6.709304e-01    4.301700e-02
  6.868060e-01    3.552431e-02
  7.026815e-01    3.017164e-02
  7.185571e-01    4.321903e-02
  7.344327e-01    2.557824e-02
  7.503083e-01    3.701361e-02
  7.661838e-01    7.539396e-02
  7.820594e-01    1.040960e-01
  7.979350e-01    1.699797e-01
  8.138106e-01    2.393842e-01
  8.296861e-01    2.686226e-01
  8.455617e-01    3.367489e-01
  8.614373e-01    3.966487e-01
  8.773129e-01    5.226480e-01
  8.931884e-01    6.372109e-01
  9.090640e-01    7.308021e-01
  9.249396e-01    8.030449e-01
  9.408152e-01    8.182150e-01
  9.566907e-01    8.379660e-01
  9.725663e-01    9.206976e-01
  9.884419e-01    1.130794e+00
  1.004317e+00    1.235800e+00
  1.020193e+00    1.326792e+00
  1.036069e+00    1.448907e+00
  1.051944e+00    1.428234e+00
  1.067820e+00    1.468226e+00
  1.083695e+00    1.385370e+00
  1.099571e+00    1.416696e+00
  1.115446e+00    1.519147e+00
  1.131322e+00    1.557870e+00
  1.147198e+00    1.579571e+00
  1.163073e+00    1.603093e+00
  1.178949e+00    1.669459e+00
  1.194824e+00    1.785903e+00
  1.210700e+00    1.935212e+00
  1.226575e+00    2.123513e+00
  1.242451e+00    2.353491e+00
  1.258327e+00    2.481348e+00
  1.274202e+00    2.618695e+00
  1.290078e+00    2.743508e+00
  1.305953e+00    2.766495e+00
  1.321829e+00    2.839782e+00
  1.337705e+00    2.937676e+00
  1.353580e+00    2.925022e+00
  1.369456e+00    2.871463e+00
  1.385331e+00    2.978146e+00
  1.401207e+00    2.999517e+00
  1.417082e+00    2.937151e+00
  1.432958e+00    2.807735e+00
  1.448834e+00    2.881327e+00
  1.464709e+00    3.013162e+00
  1.480585e+00    3.149041e+00
  1.496460e+00    3.125272e+00
  1.512336e+00    3.203889e+00
  1.528211e+00    3.189224e+00
  1.544087e+00    3.213606e+00
  1.559963e+00    3.140334e+00
  1.575838e+00    3.128417e+00
  1.591714e+00    3.152713e+00
  1.607589e+00    3.211382e+00
  1.623465e+00    3.186897e+00
  1.639340e+00    3.121689e+00
  1.655216e+00    3.190801e+00
  1.671092e+00    3.141698e+00
  1.686967e+00    3.074440e+00
  1.702843e+00    3.106268e+00
  1.718718e+00    3.101223e+00
  1.734594e+00    3.126263e+00
  1.750469e+00    3.070183e+00
  1.766345e+00    2.998263e+00
  1.782221e+00    3.094308e+00
  1.798096e+00    2.976629e+00
  1.813972e+00    2.892438e+00
  1.829847e+00    3.087817e+00
  1.845723e+00    3.143167e+00
  1.861598e+00    3.110795e+00
  1.877474e+00    3.089432e+00
  1.893350e+00    3.200447e+00
  1.909225e+00    3.217126e+00
  1.925101e+00    3.137200e+00
  1.940976e+00    3.219669e+00
  1.956852e+00    3.247981e+00
  1.972727e+00    3.206494e+00
  1.988603e+00    3.016488e+00
  2.004479e+00    3.010925e+00
  2.020354e+00    3.109255e+00
  2.036230e+00    2.999508e+00
  2.052105e+00    2.996142e+00
  2.067981e+00    2.971249e+00
  2.083856e+00    3.090269e+00
  2.099732e+00    3.123506e+00
  2.115608e+00    3.059349e+00
  2.131483e+00    3.095322e+00
  2.147359e+00    3.168981e+00
  2.163234e+00    3.126787e+00
  2.179110e+00    3.011826e+00
  2.194985e+00    3.039445e+00
  2.210861e+00    3.080012e+00
  2.226737e+00    3.126497e+00
  2.242612e+00    3.079621e+00
  2.258488e+00    3.159652e+00
  2.274363e+00    3.086257e+00
  2.290239e+00    3.023335e+00
  2.306115e+00    3.050561e+00
  2.321990e+00    3.107409e+00
  2.337866e+00    3.070136e+00
  2.353741e+00    3.148936e+00
  2.369617e+00    3.305883e+00
  2.385492e+00    3.255744e+00
  2.401368e+00    3.092315e+00
  2.417244e+00    3.144507e+00
  2.433119e+00    3.180384e+00
  2.448995e+00    3.108226e+00
  2.464870e+00    3.101187e+00
  2.480746e+00    3.255816e+00
  2.496621e+00    3.294111e+00
  2.512497e+00    3.155699e+00
  2.528373e+00    3.135700e+00
  2.544248e+00    3.165865e+00
  2.560124e+00    3.190303e+00
  2.575999e+00    3.230946e+00
  2.591875e+00    3.173168e+00
  2.607750e+00    3.045097e+00
  2.623626e+00    3.178365e+00
  2.639502e+00    3.197104e+00
  2.655377e+00    3.151950e+00
  2.671253e+00    3.246820e+00
  2.687128e+00    3.322865e+00
  2.703004e+00    3.329618e+00
  2.718879e+00    3.282702e+00
  2.734755e+00    3.267821e+00
  2.750631e+00    3.284932e+00
  2.766506e+00    3.244049e+00
  2.782382e+00    3.229247e+00
  2.798257e+00    3.328774e+00
  2.814133e+00    3.324418e+00
  2.830008e+00    3.181151e+00
  2.845884e+00    3.244038e+00
  2.861760e+00    3.299993e+00
  2.877635e+00    3.273801e+00
  2.893511e+00    3.355645e+00
  2.909386e+00    3.348541e+00
  2.925262e+00    3.351116e+00
  2.941137e+00    3.271050e+00
  2.957013e+00    3.319185e+00
  2.972889e+00    3.330735e+00
  2.988764e+00    3.399781e+00
  3.004640e+00    3.377937e+00
  3.020515e+00    3.338103e+00
  3.036391e+00    3.263358e+00
  3.052266e+00    3.276783e+00
  3.068142e+00    3.296064e+00
  3.084018e+00    3.355850e+00
  3.099893e+00    3.471335e+00
  3.115769e+00    3.540660e+00
  3.131644e+00    3.412030e+00
  3.147520e+00    3.389690e+00
  3.163395e+00    3.425799e+00
  3.179271e+00    3.483693e+00
  3.195147e+00    3.459848e+00
  3.211022e+00    3.313978e+00
  3.226898e+00    3.351587e+00
  3.242773e+00    3.368049e+00
  3.258649e+00    3.388712e+00
  3.274525e+00    3.550003e+00
  3.290400e+00    3.522812e+00
  3.306276e+00    3.507977e+00
  3.322151e+00    3.481664e+00
  3.338027e+00    3.554432e+00
  3.353902e+00    3.529366e+00
  3.369778e+00    3.546575e+00
  3.385654e+00    3.544083e+00
  3.401529e+00    3.484095e+00
  3.417405e+00    3.520702e+00
  3.433280e+00    3.476051e+00
  3.449156e+00    3.413688e+00
  3.465031e+00    3.586883e+00
  3.480907e+00    3.550632e+00
  3.496783e+00    3.552349e+00
  3.512658e+00    3.579695e+00
  3.528534e+00    3.557993e+00
  3.544409e+00    3.444235e+00
  3.560285e+00    3.435286e+00
  3.576160e+00    3.384240e+00
  3.592036e+00    3.342952e+00
  3.607912e+00    3.421683e+00
  3.623787e+00    3.482167e+00
  3.639663e+00    3.489300e+00
  3.655538e+00    3.457368e+00
  3.671414e+00    3.507521e+00
  3.687289e+00    3.569134e+00
  3.703165e+00    3.453553e+00
  3.719041e+00    3.486996e+00
  3.734916e+00    3.544572e+00
  3.750792e+00    3.496813e+00
  3.766667e+00    3.440059e+00
  3.782543e+00    3.498952e+00
  3.798418e+00    3.503037e+00
  3.814294e+00    3.539761e+00
  3.830170e+00    3.608672e+00
  3.846045e+00    3.585089e+00
  3.861921e+00    3.500783e+00
  3.877796e+00    3.549527e+00
  3.893672e+00    3.506220e+00
  3.909547e+00    3.469996e+00
  3.925423e+00    3.566238e+00
  3.941299e+00    3.526924e+00
  3.957174e+00    3.437480e+00
  3.973050e+00    3.470188e+00
  3.988925e+00    3.579252e+00
  4.004801e+00    3.617679e+00
  4.020676e+00    3.584813e+00
  4.036552e+00    3.554137e+00
  4.052428e+00    3.590992e+00
  4.068303e+00    3.622255e+00
  4.084179e+00    3.643893e+00
  4.100054e+00    3.588546e+00
  4.115930e+00    3.598088e+00
  4.131806e+00    3.549135e+00
  4.147681e+00    3.615902e+00
  4.163557e+00    3.627570e+00
  4.179432e+00    3.638467e+00
  4.195308e+00    3.624224e+00
  4.211183e+00    3.538112e+00
  4.227059e+00    3.514073e+00
  4.242935e+00    3.548716e+00
  4.258810e+00    3.557971e+00
  4.274686e+00    3.583585e+00
  4.290561e+00    3.558648e+00
  4.306437e+00    3.622174e+00
  4.322312e+00    3.653575e+00
  4.338188e+00    3.641360e+00
  4.354064e+00    3.593058e+00
  4.369939e+00    3.577920e+00
  4.385815e+00    3.601949e+00
  4.401690e+00    3.594469e+00
  4.417566e+00    3.535672e+00
  4.433441e+00    3.535761e+00
  4.449317e+00    3.513981e+00
  4.465193e+00    3.637050e+00
  4.481068e+00    3.627339e+00
  4.496944e+00    3.564119e+00
  4.512819e+00    3.553792e+00
  4.528695e+00    3.612980e+00
  4.544570e+00    3.597828e+00
  4.560446e+00    3.510804e+00
  4.576322e+00    3.591789e+00
  4.592197e+00    3.615114e+00
  4.608073e+00    3.700673e+00
  4.623948e+00    3.687731e+00
  4.639824e+00    3.694428e+00
  4.655699e+00    3.747550e+00
  4.671575e+00    3.690843e+00
  4.687451e+00    3.673152e+00
  4.703326e+00    3.664316e+00
  4.719202e+00    3.652663e+00
  4.735077e+00    3.682153e+00
  4.750953e+00    3.623800e+00
  4.766828e+00    3.583512e+00
  4.782704e+00    3.616877e+00
  4.798580e+00    3.693813e+00
  4.814455e+00    3.738292e+00
  4.830331e+00    3.589581e+00
  4.846206e+00    3.674285e+00
  4.862082e+00    3.701891e+00
  4.877957e+00    3.653779e+00
  4.893833e+00    3.642591e+00
  4.909709e+00    3.654220e+00
  4.925584e+00    3.677658e+00
  4.941460e+00    3.675702e+00
  4.957335e+00    3.632366e+00
  4.973211e+00    3.572144e+00
  4.989086e+00    3.554374e+00
  5.004962e+00    3.653190e+00
  5.020838e+00    3.696631e+00
  5.036713e+00    3.693506e+00
  5.052589e+00    3.682696e+00
  5.068464e+00    3.667143e+00
  5.084340e+00    3.729038e+00
  5.100216e+00    3.731729e+00
  5.116091e+00    3.704148e+00
  5.131967e+00    3.640513e+00
  5.147842e+00    3.700058e+00
  5.163718e+00    3.627743e+00
  5.179593e+00    3.670217e+00
  5.195469e+00    3.666268e+00
  5.211345e+00    3.585811e+00
  5.227220e+00    3.620007e+00
  5.243096e+00    3.731072e+00
  5.258971e+00    3.657191e+00
  5.274847e+00    3.665879e+00
  5.290722e+00    3.675118e+00
  5.306598e+00    3.611633e+00
  5.322474e+00    3.744406e+00
  5.338349e+00    3.831317e+00
  5.354225e+00    3.718018e+00
  5.370100e+00    3.628064e+00
  5.385976e+00    3.651136e+00
  5.401851e+00    3.655423e+00
  5.417727e+00    3.594114e+00
  5.433603e+00    3.565396e+00
  5.449478e+00    3.572970e+00
  5.465354e+00    3.530090e+00
  5.481229e+00    3.583266e+00
  5.497105e+00    3.676571e+00
  5.512980e+00    3.626752e+00
  5.528856e+00    3.687911e+00
  5.544732e+00    3.672921e+00
  5.560607e+00    3.596305e+00
  5.576483e+00    3.633002e+00
  5.592358e+00    3.612475e+00
  5.608234e+00    3.595357e+00
  5.624109e+00    3.620341e+00
  5.639985e+00    3.586809e+00
  5.655861e+00    3.548620e+00
  5.671736e+00    3.590526e+00
  5.687612e+00    3.614372e+00
  5.703487e+00    3.624445e+00
  5.719363e+00    3.565804e+00
  5.735238e+00    3.604297e+00
  5.751114e+00    3.571370e+00
  5.766990e+00    3.485341e+00
  5.782865e+00    3.556118e+00
  5.798741e+00    3.692620e+00
  5.814616e+00    3.696997e+00
  5.830492e+00    3.719022e+00
  5.846367e+00    3.571056e+00
  5.862243e+00    3.524553e+00
  5.878119e+00    3.608428e+00
  5.893994e+00    3.658164e+00
  5.909870e+00    3.591233e+00
  5.925745e+00    3.498985e+00
  5.941621e+00    3.510514e+00
  5.957497e+00    3.492486e+00
  5.973372e+00    3.516262e+00
  5.989248e+00    3.494134e+00
  6.005123e+00    3.519939e+00
  6.020999e+00    3.501253e+00
  6.036874e+00    3.541422e+00
  6.052750e+00    3.588261e+00
  6.068626e+00    3.569451e+00
  6.084501e+00    3.585232e+00
  6.100377e+00    3.563748e+00
  6.116252e+00    3.567519e+00
  6.132128e+00    3.572550e+00
  6.148003e+00    3.673806e+00
  6.163879e+00    3.654641e+00
  6.179755e+00    3.595960e+00
  6.195630e+00    3.617649e+00
  6.211506e+00    3.563981e+00
  6.227381e+00    3.603664e+00
  6.243257e+00    3.545787e+00
  6.259132e+00    3.571745e+00
  6.275008e+00    3.632651e+00
  6.290884e+00    3.588288e+00
  6.306759e+00    3.552653e+00
  6.322635e+00    3.562102e+00
  6.338510e+00    3.570540e+00
  6.354386e+00    3.523687e+00
  6.370261e+00    3.557500e+00
  6.386137e+00    3.568321e+00
  6.402013e+00    3.695997e+00
  6.417888e+00    3.661308e+00
  6.433764e+00    3.669594e+00
  6.449639e+00    3.651875e+00
  6.465515e+00    3.611268e+00
  6.481390e+00    3.577569e+00
  6.497266e+00    3.537874e+00
  6.513142e+00    3.598783e+00
  6.529017e+00    3.599824e+00
  6.544893e+00    3.598025e+00
  6.560768e+00    3.564451e+00
  6.576644e+00    3.544989e+00
  6.592519e+00    3.502721e+00
  6.608395e+00    3.496364e+00
  6.624271e+00    3.579334e+00
  6.640146e+00    3.626865e+00
  6.656022e+00    3.628933e+00
  6.671897e+00    3.587897e+00
  6.687773e+00    3.556309e+00
  6.703648e+00    3.600826e+00
  6.719524e+00    3.536037e+00
  6.735400e+00    3.506638e+00
  6.751275e+00    3.513478e+00
  6.767151e+00    3.581573e+00
  6.783026e+00    3.574616e+00
  6.798902e+00    3.590447e+00
  6.814777e+00    3.563497e+00
  6.830653e+00    3.581467e+00
  6.846529e+00    3.556321e+00
  6.862404e+00    3.545408e+00
  6.878280e+00    3.528034e+00
  6.894155e+00    3.554272e+00
  6.910031e+00    3.495337e+00
  6.925907e+00    3.545210e+00
  6.941782e+00    3.478072e+00
  6.957658e+00    3.571764e+00
  6.973533e+00    3.618545e+00
  6.989409e+00    3.562307e+00
  7.005284e+00    3.473071e+00
  7.021160e+00    3.492472e+00
  7.037036e+00    3.565699e+00
  7.052911e+00    3.527685e+00
  7.068787e+00    3.482852e+00
  7.084662e+00    3.562826e+00
  7.100538e+00    3.605099e+00
  7.116413e+00    3.511988e+00
  7.132289e+00    3.536754e+00
  7.148165e+00    3.573129e+00
  7.164040e+00    3.528146e+00
  7.179916e+00    3.524275e+00
  7.195791e+00    3.491364e+00
  7.211667e+00    3.546303e+00
  7.227542e+00    3.565746e+00
  7.243418e+00    3.563753e+00
  7.259294e+00    3.509379e+00
  7.275169e+00    3.574484e+00
  7.291045e+00    3.565567e+00
  7.306920e+00    3.565306e+00
  7.322796e+00    3.555917e+00
  7.338671e+00    3.554607e+00
  7.354547e+00    3.487612e+00
  7.370423e+00    3.525333e+00
  7.386298e+00    3.552843e+00
  7.402174e+00    3.602320e+00
  7.418049e+00    3.586152e+00
  7.433925e+00    3.546428e+00
  7.449800e+00    3.553388e+00
  7.465676e+00    3.507533e+00
  7.481552e+00    3.529170e+00
  7.497427e+00    3.500120e+00
  7.513303e+00    3.456348e+00
  7.529178e+00    3.463448e+00
  7.545054e+00    3.452899e+00
  7.560929e+00    3.504282e+00
  7.576805e+00    3.495496e+00
  7.592681e+00    3.513854e+00
  7.608556e+00    3.485377e+00
  7.624432e+00    3.437131e+00
  7.640307e+00    3.426934e+00
  7.656183e+00    3.450856e+00
  7.672058e+00    3.465472e+00
  7.687934e+00    3.463083e+00
  7.703810e+00    3.506083e+00
  7.719685e+00    3.453246e+00
  7.735561e+00    3.402712e+00
  7.751436e+00    3.496962e+00
  7.767312e+00    3.556195e+00
  7.783187e+00    3.509003e+00
  7.799063e+00    3.464443e+00
  7.814939e+00    3.518850e+00
  7.830814e+00    3.466908e+00
  7.846690e+00    3.482140e+00
  7.862565e+00    3.437452e+00
  7.878441e+00    3.439887e+00
  7.894317e+00    3.468702e+00
  7.910192e+00    3.438432e+00
  7.926068e+00    3.432324e+00
  7.941943e+00    3.503456e+00
  7.957819e+00    3.494118e+00
  7.973694e+00    3.430539e+00
  7.989570e+00    3.447188e+00
  8.005446e+00    3.389094e+00
  8.021321e+00    3.451318e+00
  8.037197e+00    3.390853e+00
  8.053072e+00    3.420889e+00
  8.068948e+00    3.401733e+00
  8.084823e+00    3.422616e+00
  8.100699e+00    3.457276e+00
  8.116575e+00    3.434366e+00
  8.132450e+00    3.499389e+00
  8.148326e+00    3.557624e+00
  8.164201e+00    3.539696e+00
  8.180077e+00    3.483760e+00
  8.195952e+00    3.463700e+00
  8.211828e+00    3.477635e+00
  8.227704e+00    3.493619e+00
  8.243579e+00    3.465455e+00
  8.259455e+00    3.448762e+00
  8.275330e+00    3.390372e+00
  8.291206e+00    3.396348e+00
  8.307081e+00    3.441985e+00
  8.322957e+00    3.446374e+00
  8.338833e+00    3.429163e+00
  8.354708e+00    3.396378e+00
  8.370584e+00    3.346377e+00
  8.386459e+00    3.386300e+00
  8.402335e+00    3.431677e+00
  8.418210e+00    3.438719e+00
  8.434086e+00    3.438052e+00
  8.449962e+00    3.429673e+00
  8.465837e+00    3.395811e+00
  8.481713e+00    3.320644e+00
  8.497588e+00    3.314352e+00
  8.513464e+00    3.353264e+00
  8.529339e+00    3.382914e+00
  8.545215e+00    3.416749e+00
  8.561091e+00    3.389832e+00
  8.576966e+00    3.390906e+00
  8.592842e+00    3.366080e+00
  8.608717e+00    3.379812e+00
  8.624593e+00    3.334126e+00
  8.640468e+00    3.309769e+00
  8.656344e+00    3.393151e+00
  8.672220e+00    3.313962e+00
  8.688095e+00    3.338794e+00
  8.703971e+00    3.394789e+00
  8.719846e+00    3.371644e+00
  8.735722e+00    3.285806e+00
  8.751598e+00    3.357761e+00
  8.767473e+00    3.358267e+00
  8.783349e+00    3.329670e+00
  8.799224e+00    3.334925e+00
  8.815100e+00    3.359331e+00
  8.830975e+00    3.420888e+00
  8.846851e+00    3.325874e+00
  8.862727e+00    3.303029e+00
  8.878602e+00    3.348648e+00
  8.894478e+00    3.377047e+00
  8.910353e+00    3.273499e+00
  8.926229e+00    3.299108e+00
  8.942104e+00    3.356303e+00
  8.957980e+00    3.296746e+00
  8.973856e+00    3.318498e+00
  8.989731e+00    3.249557e+00
  9.005607e+00    3.289196e+00
  9.021482e+00    3.300360e+00
  9.037358e+00    3.277640e+00
  9.053233e+00    3.215311e+00
  9.069109e+00    3.323527e+00
  9.084985e+00    3.287673e+00
  9.100860e+00    3.277915e+00
  9.116736e+00    3.277004e+00
  9.132611e+00    3.208876e+00
  9.148487e+00    3.192859e+00
  9.164362e+00    3.238083e+00
  9.180238e+00    3.284334e+00
  9.196114e+00    3.279778e+00
  9.211989e+00    3.181842e+00
  9.227865e+00    3.215633e+00
  9.243740e+00    3.264720e+00
  9.259616e+00    3.258000e+00
  9.275491e+00    3.249343e+00
  9.291367e+00    3.260586e+00
  9.307243e+00    3.278606e+00
  9.323118e+00    3.242539e+00
  9.338994e+00    3.255898e+00
  9.354869e+00    3.269988e+00
  9.370745e+00    3.245119e+00
  9.386620e+00    3.195703e+00
  9.402496e+00    3.211677e+00
  9.418372e+00    3.222161e+00
  9.434247e+00    3.258928e+00
  9.450123e+00    3.243680e+00
  9.465998e+00    3.210057e+00
  9.481874e+00    3.213339e+00
  9.497749e+00    3.228934e+00
  9.513625e+00    3.225309e+00
  9.529501e+00    3.279615e+00
  9.545376e+00    3.268793e+00
  9.561252e+00    3.221847e+00
  9.577127e+00    3.266747e+00
  9.593003e+00    3.235377e+00
  9.608878e+00    3.212064e+00
  9.624754e+00    3.214872e+00
  9.640630e+00    3.188329e+00
  9.656505e+00    3.154973e+00
  9.672381e+00    3.193324e+00
  9.688256e+00    3.179782e+00
  9.704132e+00    3.256534e+00
  9.720008e+00    3.178697e+00
  9.735883e+00    3.132595e+00
  9.751759e+00    3.152216e+00
  9.767634e+00    3.127959e+00
  9.783510e+00    3.169445e+00
  9.799385e+00    3.184788e+00
  9.815261e+00    3.146874e+00
  9.831137e+00    3.172502e+00
  9.847012e+00    3.187124e+00
  9.862888e+00    3.144855e+00
  9.878763e+00    3.183865e+00
  9.894639e+00    3.180148e+00
  9.910514e+00    3.148922e+00
  9.926390e+00    3.144162e+00
  9.942266e+00    3.127974e+00
  9.958141e+00    3.111051e+00
  9.974017e+00    3.081577e+00
  9.989892e+00    3.019438e+00
  1.000577e+01    3.106842e+00
  1.002164e+01    3.121988e+00
  1.003752e+01    3.136841e+00
  1.005339e+01    3.136043e+00
  1.006927e+01    3.113652e+00
  1.008515e+01    3.117932e+00
  1.010102e+01    3.121341e+00
  1.011690e+01    3.055916e+00
  1.013277e+01    3.060466e+00
  1.014865e+01    3.099196e+00
  1.016452e+01    3.094374e+00
  1.018040e+01    3.107888e+00
  1.019627e+01    3.117419e+00
  1.021215e+01    3.069627e+00
  1.022803e+01    3.045580e+00
  1.024390e+01    3.060302e+00
  1.025978e+01    3.051521e+00
  1.027565e+01    3.060318e+00
  1.029153e+01    3.056795e+00
  1.030740e+01    3.069040e+00
  1.032328e+01    3.077295e+00
  1.033915e+01    3.130337e+00
  1.035503e+01    3.126976e+00
  1.037091e+01    3.117282e+00
  1.038678e+01    3.133695e+00
  1.040266e+01    3.108204e+00
  1.041853e+01    3.101204e+00
  1.043441e+01    3.105210e+00
  1.045028e+01    2.996320e+00
  1.046616e+01    3.052370e+00
  1.048204e+01    3.063147e+00
  1.049791e+01    3.044806e+00
  1.051379e+01    3.021818e+00
  1.052966e+01    2.975949e+00
  1.054554e+01    2.988497e+00
  1.056141e+01    3.017180e+00
  1.057729e+01    2.992032e+00
  1.059316e+01    2.999449e+00
  1.060904e+01    3.025017e+00
  1.062492e+01    3.028947e+00
  1.064079e+01    3.024646e+00
  1.065667e+01    2.983692e+00
  1.067254e+01    3.011252e+00
  1.068842e+01    2.993439e+00
  1.070429e+01    2.977905e+00
  1.072017e+01    3.028301e+00
  1.073604e+01    3.035946e+00
  1.075192e+01    2.956190e+00
  1.076780e+01    2.953574e+00
  1.078367e+01    2.961835e+00
  1.079955e+01    2.958631e+00
  1.081542e+01    2.993240e+00
  1.083130e+01    2.963409e+00
  1.084717e+01    2.946598e+00
  1.086305e+01    2.962652e+00
  1.087892e+01    2.954133e+00
  1.089480e+01    2.931182e+00
  1.091068e+01    2.915673e+00
  1.092655e+01    2.876181e+00
  1.094243e+01    2.914327e+00
  1.095830e+01    2.918560e+00
  1.097418e+01    2.892683e+00
  1.099005e+01    2.929136e+00
  1.100593e+01    2.866924e+00
  1.102180e+01    2.871891e+00
  1.103768e+01    2.875389e+00
  1.105356e+01    2.916863e+00
  1.106943e+01    2.930989e+00
  1.108531e+01    2.899825e+00
  1.110118e+01    2.877175e+00
  1.111706e+01    2.838515e+00
  1.113293e+01    2.832474e+00
  1.114881e+01    2.840923e+00
  1.116468e+01    2.885067e+00
  1.118056e+01    2.883679e+00
  1.119644e+01    2.890558e+00
  1.121231e+01    2.885689e+00
  1.122819e+01    2.870831e+00
  1.124406e+01    2.861950e+00
  1.125994e+01    2.865373e+00
  1.127581e+01    2.861979e+00
  1.129169e+01    2.896984e+00
  1.130756e+01    2.884250e+00
  1.132344e+01    2.832289e+00
  1.133932e+01    2.818574e+00
  1.135519e+01    2.864423e+00
  1.137107e+01    2.865025e+00
  1.138694e+01    2.825355e+00
  1.140282e+01    2.856463e+00
  1.141869e+01    2.865678e+00
  1.143457e+01    2.828916e+00
  1.145045e+01    2.828223e+00
  1.146632e+01    2.855530e+00
  1.148220e+01    2.802544e+00
  1.149807e+01    2.762983e+00
  1.151395e+01    2.779486e+00
  1.152982e+01    2.738034e+00
  1.154570e+01    2.745372e+00
  1.156157e+01    2.785779e+00
  1.157745e+01    2.775038e+00
  1.159333e+01    2.774192e+00
  1.160920e+01    2.814080e+00
  1.162508e+01    2.819180e+00
  1.164095e+01    2.821337e+00
  1.165683e+01    2.782247e+00
  1.167270e+01    2.759790e+00
  1.168858e+01    2.767318e+00
  1.170445e+01    2.758899e+00
  1.172033e+01    2.747127e+00
  1.173621e+01    2.755801e+00
  1.175208e+01    2.786679e+00
  1.176796e+01    2.776628e+00
  1.178383e+01    2.791862e+00
  1.179971e+01    2.799363e+00
  1.181558e+01    2.748528e+00
  1.183146e+01    2.722628e+00
  1.184733e+01    2.745076e+00
  1.186321e+01    2.775712e+00
  1.187909e+01    2.699989e+00
  1.189496e+01    2.707047e+00
  1.191084e+01    2.720636e+00
  1.192671e+01    2.698250e+00
  1.194259e+01    2.743717e+00
  1.195846e+01    2.737517e+00
  1.197434e+01    2.745882e+00
  1.199021e+01    2.700325e+00
  1.200609e+01    2.747298e+00
  1.202197e+01    2.802173e+00
  1.203784e+01    2.779452e+00
  1.205372e+01    2.720725e+00
  1.206959e+01    2.721189e+00
  1.208547e+01    2.684440e+00
  1.210134e+01    2.673177e+00
  1.211722e+01    2.682316e+00
  1.213309e+01    2.691683e+00
  1.214897e+01    2.692684e+00
  1.216485e+01    2.697697e+00
  1.218072e+01    2.722258e+00
  1.219660e+01    2.728248e+00
  1.221247e+01    2.717960e+00
  1.222835e+01    2.720351e+00
  1.224422e+01    2.692309e+00
  1.226010e+01    2.711380e+00
  1.227597e+01    2.695156e+00
  1.229185e+01    2.733565e+00
  1.230773e+01    2.692589e+00
  1.232360e+01    2.697337e+00
  1.233948e+01    2.688174e+00
  1.235535e+01    2.663282e+00
  1.237123e+01    2.692163e+00
  1.238710e+01    2.691335e+00
  1.240298e+01    2.731027e+00
  1.241886e+01    2.674031e+00
  1.243473e+01    2.701664e+00
  1.245061e+01    2.760283e+00
  1.246648e+01    2.716315e+00
  1.248236e+01    2.717353e+00
  1.249823e+01    2.747332e+00
  1.251411e+01    2.791134e+00
  1.252998e+01    2.781440e+00
  1.254586e+01    2.756654e+00
  1.256174e+01    2.762279e+00
  1.257761e+01    2.746716e+00
  1.259349e+01    2.718951e+00
  1.260936e+01    2.737719e+00
  1.262524e+01    2.777596e+00
  1.264111e+01    2.789776e+00
  1.265699e+01    2.869465e+00
  1.267286e+01    2.833655e+00
  1.268874e+01    2.788256e+00
  1.270462e+01    2.809814e+00
  1.272049e+01    2.915164e+00
  1.273637e+01    2.918286e+00
  1.275224e+01    2.871953e+00
  1.276812e+01    2.940775e+00
  1.278399e+01    2.968606e+00
  1.279987e+01    3.019929e+00
  1.281574e+01    3.057495e+00
  1.283162e+01    3.123130e+00
  1.284750e+01    3.198021e+00
  1.286337e+01    3.308789e+00
  1.287925e+01    3.371447e+00
  1.289512e+01    3.504746e+00
  1.291100e+01    3.703004e+00
  1.292687e+01    3.871655e+00
  1.294275e+01    4.099382e+00
  1.295862e+01    4.439993e+00
  1.297450e+01    4.875927e+00
  1.299038e+01    5.373683e+00
  1.300625e+01    5.906601e+00
  1.302213e+01    6.771085e+00
  1.303800e+01    7.829162e+00
  1.305388e+01    9.018879e+00
  1.306975e+01    1.037303e+01
  1.308563e+01    1.160145e+01
  1.310150e+01    1.286913e+01
  1.311738e+01    1.396649e+01
  1.313326e+01    1.500071e+01
  1.314913e+01    1.592081e+01
  1.316501e+01    1.650650e+01
  1.318088e+01    1.656743e+01
  1.319676e+01    1.580116e+01
  1.321263e+01    1.441327e+01
  1.322851e+01    1.254225e+01
  1.324438e+01    1.076223e+01
  1.326026e+01    9.123654e+00
  1.327614e+01    7.791172e+00
  1.329201e+01    6.843846e+00
  1.330789e+01    6.003031e+00
  1.332376e+01    5.365902e+00
  1.333964e+01    4.801732e+00
  1.335551e+01    4.429811e+00
  1.337139e+01    4.153453e+00
  1.338727e+01    3.872332e+00
  1.340314e+01    3.663915e+00
  1.341902e+01    3.515938e+00
  1.343489e+01    3.388910e+00
  1.345077e+01    3.258950e+00
  1.346664e+01    3.099587e+00
  1.348252e+01    3.015987e+00
  1.349839e+01    2.969442e+00
  1.351427e+01    2.923056e+00
  1.353015e+01    2.857612e+00
  1.354602e+01    2.841846e+00
  1.356190e+01    2.797956e+00
  1.357777e+01    2.723620e+00
  1.359365e+01    2.766074e+00
  1.360952e+01    2.717451e+00
  1.362540e+01    2.678977e+00
  1.364127e+01    2.678480e+00
  1.365715e+01    2.620272e+00
  1.367303e+01    2.646275e+00
  1.368890e+01    2.611177e+00
  1.370478e+01    2.546193e+00
  1.372065e+01    2.580780e+00
  1.373653e+01    2.579505e+00
  1.375240e+01    2.564972e+00
  1.376828e+01    2.527021e+00
  1.378415e+01    2.510529e+00
  1.380003e+01    2.477114e+00
  1.381591e+01    2.494750e+00
  1.383178e+01    2.478304e+00
  1.384766e+01    2.486688e+00
  1.386353e+01    2.440235e+00
  1.387941e+01    2.395879e+00
  1.389528e+01    2.395591e+00
  1.391116e+01    2.480777e+00
  1.392703e+01    2.422452e+00
  1.394291e+01    2.426072e+00
  1.395879e+01    2.374378e+00
  1.397466e+01    2.346112e+00
  1.399054e+01    2.361054e+00
  1.400641e+01    2.374588e+00
  1.402229e+01    2.421027e+00
  1.403816e+01    2.390798e+00
  1.405404e+01    2.319821e+00
  1.406991e+01    2.325966e+00
  1.408579e+01    2.372050e+00
  1.410167e+01    2.317135e+00
  1.411754e+01    2.332518e+00
  1.413342e+01    2.283244e+00
  1.414929e+01    2.318912e+00
  1.416517e+01    2.353167e+00
  1.418104e+01    2.339255e+00
  1.419692e+01    2.323148e+00
  1.421279e+01    2.338332e+00
  1.422867e+01    2.322150e+00
  1.424455e+01    2.302985e+00
  1.426042e+01    2.317189e+00
  1.427630e+01    2.311757e+00
  1.429217e+01    2.235296e+00
  1.430805e+01    2.250261e+00
  1.432392e+01    2.291955e+00
  1.433980e+01    2.278474e+00
  1.435568e+01    2.288476e+00
  1.437155e+01    2.296120e+00
  1.438743e+01    2.256288e+00
  1.440330e+01    2.231537e+00
  1.441918e+01    2.229347e+00
  1.443505e+01    2.245723e+00
  1.445093e+01    2.259002e+00
  1.446680e+01    2.228396e+00
  1.448268e+01    2.210572e+00
  1.449856e+01    2.224820e+00
  1.451443e+01    2.258701e+00
  1.453031e+01    2.241333e+00
  1.454618e+01    2.226228e+00
  1.456206e+01    2.225163e+00
  1.457793e+01    2.235094e+00
  1.459381e+01    2.255248e+00
  1.460968e+01    2.265300e+00
  1.462556e+01    2.238549e+00
  1.464144e+01    2.220866e+00
  1.465731e+01    2.221144e+00
  1.467319e+01    2.240686e+00
  1.468906e+01    2.188912e+00
  1.470494e+01    2.191189e+00
  1.472081e+01    2.242519e+00
  1.473669e+01    2.209782e+00
  1.475256e+01    2.229876e+00
  1.476844e+01    2.238386e+00
  1.478432e+01    2.248782e+00
  1.480019e+01    2.228172e+00
  1.481607e+01    2.231849e+00
  1.483194e+01    2.241464e+00
  1.484782e+01    2.265840e+00
  1.486369e+01    2.229371e+00
  1.487957e+01    2.225793e+00
  1.489544e+01    2.262492e+00
  1.491132e+01    2.241087e+00
  1.492720e+01    2.241876e+00
  1.494307e+01    2.291697e+00
  1.495895e+01    2.286546e+00
  1.497482e+01    2.305509e+00
  1.499070e+01    2.397393e+00
  1.500657e+01    2.471731e+00
  1.502245e+01    2.532748e+00
  1.503832e+01    2.579756e+00
  1.505420e+01    2.663406e+00
  1.507008e+01    2.847468e+00
  1.508595e+01    3.019770e+00
  1.510183e+01    3.181539e+00
  1.511770e+01    3.465697e+00
  1.513358e+01    3.836147e+00
  1.514945e+01    4.200613e+00
  1.516533e+01    4.581142e+00
  1.518120e+01    4.945924e+00
  1.519708e+01    5.220981e+00
  1.521296e+01    5.414085e+00
  1.522883e+01    5.615451e+00
  1.524471e+01    5.809099e+00
  1.526058e+01    5.920180e+00
  1.527646e+01    5.748560e+00
  1.529233e+01    5.499624e+00
  1.530821e+01    5.196072e+00
  1.532409e+01    4.713889e+00
  1.533996e+01    4.231751e+00
  1.535584e+01    3.831303e+00
  1.537171e+01    3.488872e+00
  1.538759e+01    3.179237e+00
  1.540346e+01    2.895446e+00
  1.541934e+01    2.754996e+00
  1.543521e+01    2.631077e+00
  1.545109e+01    2.525424e+00
  1.546697e+01    2.449800e+00
  1.548284e+01    2.404139e+00
  1.549872e+01    2.332069e+00
  1.551459e+01    2.259730e+00
  1.553047e+01    2.266862e+00
  1.554634e+01    2.201976e+00
  1.556222e+01    2.166640e+00
  1.557809e+01    2.119535e+00
  1.559397e+01    2.081420e+00
  1.560985e+01    2.068225e+00
  1.562572e+01    2.069720e+00
  1.564160e+01    2.007671e+00
  1.565747e+01    2.017545e+00
  1.567335e+01    2.049695e+00
  1.568922e+01    2.018588e+00
  1.570510e+01    2.016493e+00
  1.572097e+01    2.011957e+00
  1.573685e+01    2.003167e+00
  1.575273e+01    1.980186e+00
  1.576860e+01    1.971462e+00
  1.578448e+01    1.980942e+00
  1.580035e+01    1.944759e+00
  1.581623e+01    1.907851e+00
  1.583210e+01    1.906557e+00
  1.584798e+01    1.960325e+00
  1.586385e+01    1.944887e+00
  1.587973e+01    1.948673e+00
  1.589561e+01    1.912708e+00
  1.591148e+01    1.932335e+00
  1.592736e+01    1.881606e+00
  1.594323e+01    1.871730e+00
  1.595911e+01    1.921644e+00
  1.597498e+01    1.883898e+00
  1.599086e+01    1.885175e+00
  1.600673e+01    1.891798e+00
  1.602261e+01    1.861417e+00
  1.603849e+01    1.855135e+00
  1.605436e+01    1.873038e+00
  1.607024e+01    1.889272e+00
  1.608611e+01    1.871979e+00
  1.610199e+01    1.836316e+00
  1.611786e+01    1.831710e+00
  1.613374e+01    1.861889e+00
  1.614961e+01    1.845296e+00
  1.616549e+01    1.843730e+00
  1.618137e+01    1.838342e+00
  1.619724e+01    1.836788e+00
  1.621312e+01    1.836876e+00
  1.622899e+01    1.827455e+00
  1.624487e+01    1.822273e+00
  1.626074e+01    1.825940e+00
  1.627662e+01    1.820465e+00
  1.629250e+01    1.836393e+00
  1.630837e+01    1.823779e+00
  1.632425e+01    1.832339e+00
  1.634012e+01    1.810423e+00
  1.635600e+01    1.827002e+00
  1.637187e+01    1.817996e+00
  1.638775e+01    1.799415e+00
  1.640362e+01    1.809860e+00
  1.641950e+01    1.775716e+00
  1.643538e+01    1.747338e+00
  1.645125e+01    1.746785e+00
  1.646713e+01    1.776999e+00
  1.648300e+01    1.760167e+00
  1.649888e+01    1.768705e+00
  1.651475e+01    1.764660e+00
  1.653063e+01    1.758476e+00
  1.654650e+01    1.751585e+00
  1.656238e+01    1.752536e+00
  1.657826e+01    1.760530e+00
  1.659413e+01    1.734499e+00
  1.661001e+01    1.721653e+00
  1.662588e+01    1.747337e+00
  1.664176e+01    1.785972e+00
  1.665763e+01    1.764785e+00
  1.667351e+01    1.756087e+00
  1.668938e+01    1.765720e+00
  1.670526e+01    1.722414e+00
  1.672114e+01    1.703383e+00
  1.673701e+01    1.740272e+00
  1.675289e+01    1.724305e+00
  1.676876e+01    1.764291e+00
  1.678464e+01    1.710262e+00
  1.680051e+01    1.696283e+00
  1.681639e+01    1.727961e+00
  1.683226e+01    1.734007e+00
  1.684814e+01    1.702883e+00
  1.686402e+01    1.728081e+00
  1.687989e+01    1.720120e+00
  1.689577e+01    1.685401e+00
  1.691164e+01    1.709709e+00
  1.692752e+01    1.702040e+00
  1.694339e+01    1.722166e+00
  1.695927e+01    1.679385e+00
  1.697514e+01    1.657473e+00
  1.699102e+01    1.678097e+00
  1.700690e+01    1.696186e+00
  1.702277e+01    1.666347e+00
  1.703865e+01    1.647511e+00
  1.705452e+01    1.653352e+00
  1.707040e+01    1.654101e+00
  1.708627e+01    1.641722e+00
  1.710215e+01    1.683182e+00
  1.711802e+01    1.684751e+00
  1.713390e+01    1.655142e+00
  1.714978e+01    1.642550e+00
  1.716565e+01    1.646603e+00
  1.718153e+01    1.647400e+00
  1.719740e+01    1.641711e+00
  1.721328e+01    1.643514e+00
  1.722915e+01    1.622463e+00
  1.724503e+01    1.614310e+00
  1.726091e+01    1.623411e+00
  1.727678e+01    1.635976e+00
  1.729266e+01    1.619433e+00
  1.730853e+01    1.623778e+00
  1.732441e+01    1.606311e+00
  1.734028e+01    1.615111e+00
  1.735616e+01    1.607511e+00
  1.737203e+01    1.595846e+00
  1.738791e+01    1.618849e+00
  1.740379e+01    1.598057e+00
  1.741966e+01    1.580564e+00
  1.743554e+01    1.618518e+00
  1.745141e+01    1.594122e+00
  1.746729e+01    1.570613e+00
  1.748316e+01    1.597774e+00
  1.749904e+01    1.564580e+00
  1.751491e+01    1.587752e+00
  1.753079e+01    1.584071e+00
  1.754667e+01    1.582185e+00
  1.756254e+01    1.542131e+00
  1.757842e+01    1.547118e+00
  1.759429e+01    1.567260e+00
  1.761017e+01    1.584865e+00
  1.762604e+01    1.572619e+00
  1.764192e+01    1.568710e+00
  1.765779e+01    1.598006e+00
  1.767367e+01    1.600968e+00
  1.768955e+01    1.555587e+00
  1.770542e+01    1.566491e+00
  1.772130e+01    1.567016e+00
  1.773717e+01    1.544110e+00
  1.775305e+01    1.562317e+00
  1.776892e+01    1.530733e+00
  1.778480e+01    1.527796e+00
  1.780067e+01    1.570464e+00
  1.781655e+01    1.568623e+00
  1.783243e+01    1.561880e+00
  1.784830e+01    1.549262e+00
  1.786418e+01    1.534230e+00
  1.788005e+01    1.537196e+00
  1.789593e+01    1.523061e+00
  1.791180e+01    1.521269e+00
  1.792768e+01    1.551625e+00
  1.794355e+01    1.548126e+00
  1.795943e+01    1.515278e+00
  1.797531e+01    1.543995e+00
  1.799118e+01    1.530295e+00
  1.800706e+01    1.527518e+00
  1.802293e+01    1.525005e+00
  1.803881e+01    1.532358e+00
  1.805468e+01    1.507771e+00
  1.807056e+01    1.514766e+00
  1.808643e+01    1.475415e+00
  1.810231e+01    1.509679e+00
  1.811819e+01    1.516927e+00
  1.813406e+01    1.508419e+00
  1.814994e+01    1.488408e+00
  1.816581e+01    1.493385e+00
  1.818169e+01    1.499121e+00
  1.819756e+01    1.475095e+00
  1.821344e+01    1.482602e+00
  1.822932e+01    1.487717e+00
  1.824519e+01    1.494341e+00
  1.826107e+01    1.498096e+00
  1.827694e+01    1.470284e+00
  1.829282e+01    1.474977e+00
  1.830869e+01    1.488224e+00
  1.832457e+01    1.478630e+00
  1.834044e+01    1.469105e+00
  1.835632e+01    1.474210e+00
  1.837220e+01    1.492970e+00
  1.838807e+01    1.500144e+00
  1.840395e+01    1.461261e+00
  1.841982e+01    1.488877e+00
  1.843570e+01    1.467072e+00
  1.845157e+01    1.446600e+00
  1.846745e+01    1.468032e+00
  1.848332e+01    1.471369e+00
  1.849920e+01    1.466750e+00
  1.851508e+01    1.464627e+00
  1.853095e+01    1.448824e+00
  1.854683e+01    1.465749e+00
  1.856270e+01    1.456189e+00
  1.857858e+01    1.442465e+00
  1.859445e+01    1.455140e+00
  1.861033e+01    1.444836e+00
  1.862620e+01    1.456160e+00
  1.864208e+01    1.444698e+00
  1.865796e+01    1.437567e+00
  1.867383e+01    1.397863e+00
  1.868971e+01    1.412743e+00
  1.870558e+01    1.413563e+00
  1.872146e+01    1.428700e+00
  1.873733e+01    1.426503e+00
  1.875321e+01    1.389509e+00
  1.876908e+01    1.402671e+00
  1.878496e+01    1.458764e+00
  1.880084e+01    1.434125e+00
  1.881671e+01    1.424832e+00
  1.883259e+01    1.397157e+00
  1.884846e+01    1.401908e+00
  1.886434e+01    1.421319e+00
  1.888021e+01    1.401588e+00
  1.889609e+01    1.398200e+00
  1.891196e+01    1.419324e+00
  1.892784e+01    1.419441e+00
  1.894372e+01    1.413395e+00
  1.895959e+01    1.390930e+00
  1.897547e+01    1.406428e+00
  1.899134e+01    1.417849e+00
  1.900722e+01    1.404215e+00
  1.902309e+01    1.415189e+00
  1.903897e+01    1.414521e+00
  1.905484e+01    1.363427e+00
  1.907072e+01    1.356097e+00
  1.908660e+01    1.367877e+00
  1.910247e+01    1.391433e+00
  1.911835e+01    1.375148e+00
  1.913422e+01    1.392319e+00
  1.915010e+01    1.371574e+00
  1.916597e+01    1.367042e+00
  1.918185e+01    1.368670e+00
  1.919773e+01    1.369358e+00
  1.921360e+01    1.363241e+00
  1.922948e+01    1.354742e+00
  1.924535e+01    1.350212e+00
  1.926123e+01    1.342410e+00
  1.927710e+01    1.342265e+00
  1.929298e+01    1.346323e+00
  1.930885e+01    1.344369e+00
  1.932473e+01    1.373478e+00
  1.934061e+01    1.372191e+00
  1.935648e+01    1.367137e+00
  1.937236e+01    1.359216e+00
  1.938823e+01    1.342321e+00
  1.940411e+01    1.331424e+00
  1.941998e+01    1.362550e+00
  1.943586e+01    1.370871e+00
  1.945173e+01    1.353194e+00
  1.946761e+01    1.355961e+00
  1.948349e+01    1.320642e+00
  1.949936e+01    1.318953e+00
  1.951524e+01    1.331239e+00
  1.953111e+01    1.348753e+00
  1.954699e+01    1.333923e+00
  1.956286e+01    1.340446e+00
  1.957874e+01    1.329252e+00
  1.959461e+01    1.313271e+00
  1.961049e+01    1.328599e+00
  1.962637e+01    1.349507e+00
  1.964224e+01    1.352274e+00
  1.965812e+01    1.327036e+00
  1.967399e+01    1.320728e+00
  1.968987e+01    1.305767e+00
  1.970574e+01    1.313721e+00
  1.972162e+01    1.323231e+00
  1.973749e+01    1.293911e+00
  1.975337e+01    1.299631e+00
  1.976925e+01    1.295021e+00
  1.978512e+01    1.305495e+00
  1.980100e+01    1.328391e+00
  1.981687e+01    1.319820e+00
  1.983275e+01    1.330038e+00
  1.984862e+01    1.319791e+00
  1.986450e+01    1.296946e+00
  1.988037e+01    1.284931e+00
  1.989625e+01    1.272776e+00
  1.991213e+01    1.292010e+00
  1.992800e+01    1.308054e+00
  1.994388e+01    1.297017e+00
  1.995975e+01    1.302225e+00
  1.997563e+01    1.307209e+00
  1.999150e+01    1.287771e+00
  2.000738e+01    1.277443e+00
  2.002325e+01    1.275038e+00
  2.003913e+01    1.286003e+00
  2.005501e+01    1.288872e+00
  2.007088e+01    1.281671e+00
  2.008676e+01    1.235768e+00
  2.010263e+01    1.258711e+00
  2.011851e+01    1.279130e+00
  2.013438e+01    1.271848e+00
  2.015026e+01    1.284654e+00
  2.016614e+01    1.251951e+00
  2.018201e+01    1.257230e+00
  2.019789e+01    1.282483e+00
  2.021376e+01    1.270229e+00
  2.022964e+01    1.255710e+00
  2.024551e+01    1.259507e+00
  2.026139e+01    1.266565e+00
  2.027726e+01    1.273811e+00
  2.029314e+01    1.273047e+00
  2.030902e+01    1.265546e+00
  2.032489e+01    1.248842e+00
  2.034077e+01    1.256914e+00
  2.035664e+01    1.288550e+00
  2.037252e+01    1.269412e+00
  2.038839e+01    1.240794e+00
  2.040427e+01    1.271254e+00
  2.042014e+01    1.258249e+00
  2.043602e+01    1.271155e+00
  2.045190e+01    1.272862e+00
  2.046777e+01    1.253996e+00
  2.048365e+01    1.247091e+00
  2.049952e+01    1.244713e+00
  2.051540e+01    1.230027e+00
  2.053127e+01    1.238559e+00
  2.054715e+01    1.254946e+00
  2.056302e+01    1.259799e+00
  2.057890e+01    1.257315e+00
  2.059478e+01    1.271473e+00
  2.061065e+01    1.246547e+00
  2.062653e+01    1.229790e+00
  2.064240e+01    1.218850e+00
  2.065828e+01    1.250228e+00
  2.067415e+01    1.233648e+00
  2.069003e+01    1.243514e+00
  2.070590e+01    1.247395e+00
  2.072178e+01    1.231344e+00
  2.073766e+01    1.243605e+00
  2.075353e+01    1.262371e+00
  2.076941e+01    1.240602e+00
  2.078528e+01    1.226329e+00
  2.080116e+01    1.238142e+00
  2.081703e+01    1.241393e+00
  2.083291e+01    1.238457e+00
  2.084878e+01    1.243439e+00
  2.086466e+01    1.226943e+00
  2.088054e+01    1.228569e+00
  2.089641e+01    1.239946e+00
  2.091229e+01    1.248315e+00
  2.092816e+01    1.244636e+00
  2.094404e+01    1.226785e+00
  2.095991e+01    1.225489e+00
  2.097579e+01    1.241906e+00
  2.099166e+01    1.221215e+00
  2.100754e+01    1.218535e+00
  2.102342e+01    1.231934e+00
  2.103929e+01    1.223825e+00
  2.105517e+01    1.233613e+00
  2.107104e+01    1.250457e+00
  2.108692e+01    1.240938e+00
  2.110279e+01    1.232030e+00
  2.111867e+01    1.248152e+00
  2.113455e+01    1.240387e+00
  2.115042e+01    1.243562e+00
  2.116630e+01    1.210951e+00
  2.118217e+01    1.246302e+00
  2.119805e+01    1.268801e+00
  2.121392e+01    1.264445e+00
  2.122980e+01    1.252215e+00
  2.124567e+01    1.268218e+00
  2.126155e+01    1.277892e+00
  2.127743e+01    1.276833e+00
  2.129330e+01    1.246258e+00
  2.130918e+01    1.254248e+00
  2.132505e+01    1.264564e+00
  2.134093e+01    1.283429e+00
  2.135680e+01    1.310686e+00
  2.137268e+01    1.330524e+00
  2.138855e+01    1.313877e+00
  2.140443e+01    1.309288e+00
  2.142031e+01    1.325316e+00
  2.143618e+01    1.340490e+00
  2.145206e+01    1.379964e+00
  2.146793e+01    1.389258e+00
  2.148381e+01    1.394263e+00
  2.149968e+01    1.405962e+00
  2.151556e+01    1.454599e+00
  2.153143e+01    1.487709e+00
  2.154731e+01    1.538949e+00
  2.156319e+01    1.608101e+00
  2.157906e+01    1.639693e+00
  2.159494e+01    1.653283e+00
  2.161081e+01    1.755867e+00
  2.162669e+01    1.870266e+00
  2.164256e+01    1.998515e+00
  2.165844e+01    2.148846e+00
  2.167431e+01    2.321074e+00
  2.169019e+01    2.557371e+00
  2.170607e+01    2.871752e+00
  2.172194e+01    3.225506e+00
  2.173782e+01    3.650267e+00
  2.175369e+01    4.035732e+00
  2.176957e+01    4.589656e+00
  2.178544e+01    5.252913e+00
  2.180132e+01    5.903164e+00
  2.181719e+01    6.664624e+00
  2.183307e+01    7.351870e+00
  2.184895e+01    7.942141e+00
  2.186482e+01    8.527474e+00
  2.188070e+01    8.885581e+00
  2.189657e+01    9.010852e+00
  2.191245e+01    8.843335e+00
  2.192832e+01    8.262735e+00
  2.194420e+01    7.501925e+00
  2.196007e+01    6.596099e+00
  2.197595e+01    5.686783e+00
  2.199183e+01    4.844160e+00
  2.200770e+01    4.154286e+00
  2.202358e+01    3.637391e+00
  2.203945e+01    3.229012e+00
  2.205533e+01    2.888597e+00
  2.207120e+01    2.550561e+00
  2.208708e+01    2.331774e+00
  2.210296e+01    2.148487e+00
  2.211883e+01    2.000925e+00
  2.213471e+01    1.845059e+00
  2.215058e+01    1.765190e+00
  2.216646e+01    1.688322e+00
  2.218233e+01    1.627399e+00
  2.219821e+01    1.551094e+00
  2.221408e+01    1.493622e+00
  2.222996e+01    1.457056e+00
  2.224584e+01    1.427995e+00
  2.226171e+01    1.385422e+00
  2.227759e+01    1.354369e+00
  2.229346e+01    1.312098e+00
  2.230934e+01    1.309494e+00
  2.232521e+01    1.286659e+00
  2.234109e+01    1.275780e+00
  2.235696e+01    1.253238e+00
  2.237284e+01    1.211809e+00
  2.238872e+01    1.218566e+00
  2.240459e+01    1.213455e+00
  2.242047e+01    1.207491e+00
  2.243634e+01    1.174753e+00
  2.245222e+01    1.168216e+00
  2.246809e+01    1.160181e+00
  2.248397e+01    1.146752e+00
  2.249984e+01    1.148439e+00
  2.251572e+01    1.157062e+00
  2.253160e+01    1.162831e+00
  2.254747e+01    1.139357e+00
  2.256335e+01    1.128719e+00
  2.257922e+01    1.116024e+00
  2.259510e+01    1.111081e+00
  2.261097e+01    1.101980e+00
  2.262685e+01    1.103563e+00
  2.264272e+01    1.081283e+00
  2.265860e+01    1.084416e+00
  2.267448e+01    1.081957e+00
  2.269035e+01    1.097415e+00
  2.270623e+01    1.092889e+00
  2.272210e+01    1.070444e+00
  2.273798e+01    1.087324e+00
  2.275385e+01    1.082900e+00
  2.276973e+01    1.055955e+00
  2.278560e+01    1.064262e+00
  2.280148e+01    1.055874e+00
  2.281736e+01    1.058209e+00
  2.283323e+01    1.047290e+00
  2.284911e+01    1.035411e+00
  2.286498e+01    1.060877e+00
  2.288086e+01    1.070526e+00
  2.289673e+01    1.050326e+00
  2.291261e+01    1.033460e+00
  2.292848e+01    1.039065e+00
  2.294436e+01    1.027013e+00
  2.296024e+01    1.023493e+00
  2.297611e+01    1.028674e+00
  2.299199e+01    1.024352e+00
  2.300786e+01    1.006863e+00
  2.302374e+01    1.014808e+00
  2.303961e+01    1.033664e+00
  2.305549e+01    1.017118e+00
  2.307137e+01    1.024831e+00
  2.308724e+01    1.009734e+00
  2.310312e+01    1.013530e+00
  2.311899e+01    1.028698e+00
  2.313487e+01    1.008605e+00
  2.315074e+01    9.869488e-01
  2.316662e+01    9.967861e-01
  2.318249e+01    1.022004e+00
  2.319837e+01    1.013054e+00
  2.321425e+01    9.873685e-01
  2.323012e+01    1.005304e+00
  2.324600e+01    9.843081e-01
  2.326187e+01    9.906411e-01
  2.327775e+01    1.000843e+00
  2.329362e+01    9.937785e-01
  2.330950e+01    9.983699e-01
  2.332537e+01    1.001773e+00
  2.334125e+01    9.816490e-01
  2.335713e+01    9.775455e-01
  2.337300e+01    9.951608e-01
  2.338888e+01    9.946672e-01
  2.340475e+01    9.967753e-01
  2.342063e+01    9.932402e-01
  2.343650e+01    9.874650e-01
  2.345238e+01    9.666522e-01
  2.346825e+01    9.745818e-01
  2.348413e+01    9.781867e-01
  2.350001e+01    9.682660e-01
  2.351588e+01    9.684725e-01
  2.353176e+01    9.635707e-01
  2.354763e+01    9.638786e-01
  2.356351e+01    9.619415e-01
  2.357938e+01    9.565423e-01
  2.359526e+01    9.344673e-01
  2.361113e+01    9.624173e-01
  2.362701e+01    9.742817e-01
  2.364289e+01    9.686691e-01
  2.365876e+01    9.696805e-01
  2.367464e+01    9.589440e-01
  2.369051e+01    9.360930e-01
  2.370639e+01    9.274355e-01
  2.372226e+01    9.384199e-01
  2.373814e+01    9.302041e-01
  2.375401e+01    9.344468e-01
  2.376989e+01    9.363860e-01
  2.378577e+01    9.207461e-01
  2.380164e+01    9.289953e-01
  2.381752e+01    9.389604e-01
  2.383339e+01    9.251746e-01
  2.384927e+01    9.187765e-01
  2.386514e+01    9.162694e-01
  2.388102e+01    9.012962e-01
  2.389689e+01    9.023398e-01
  2.391277e+01    9.303743e-01
  2.392865e+01    9.281948e-01
  2.394452e+01    9.058358e-01
  2.396040e+01    9.316591e-01
  2.397627e+01    9.267395e-01
  2.399215e+01    9.056538e-01
  2.400802e+01    8.985429e-01
  2.402390e+01    9.022484e-01
  2.403978e+01    8.852179e-01
  2.405565e+01    9.016345e-01
  2.407153e+01    8.938272e-01
  2.408740e+01    8.878902e-01
  2.410328e+01    8.955753e-01
  2.411915e+01    8.835846e-01
  2.413503e+01    8.802295e-01
  2.415090e+01    8.815986e-01
  2.416678e+01    8.884962e-01
  2.418266e+01    9.069740e-01
  2.419853e+01    8.980114e-01
  2.421441e+01    8.692464e-01
  2.423028e+01    8.685926e-01
  2.424616e+01    8.650040e-01
  2.426203e+01    8.984531e-01
  2.427791e+01    8.949960e-01
  2.429378e+01    8.956124e-01
  2.430966e+01    8.989076e-01
  2.432554e+01    9.033635e-01
  2.434141e+01    9.083482e-01
  2.435729e+01    8.819019e-01
  2.437316e+01    8.718213e-01
  2.438904e+01    8.874165e-01
  2.440491e+01    8.771234e-01
  2.442079e+01    8.957577e-01
  2.443666e+01    9.071910e-01
  2.445254e+01    9.113001e-01
  2.446842e+01    9.159130e-01
  2.448429e+01    9.038019e-01
  2.450017e+01    9.240317e-01
  2.451604e+01    9.194261e-01
  2.453192e+01    9.029015e-01
  2.454779e+01    9.006667e-01
  2.456367e+01    9.088457e-01
  2.457954e+01    9.032994e-01
  2.459542e+01    9.101142e-01
  2.461130e+01    8.899308e-01
  2.462717e+01    8.716040e-01
  2.464305e+01    8.910236e-01
  2.465892e+01    8.877122e-01
  2.467480e+01    8.858038e-01
  2.469067e+01    9.098393e-01
  2.470655e+01    9.083089e-01
  2.472242e+01    8.854550e-01
  2.473830e+01    9.180104e-01
  2.475418e+01    9.132318e-01
  2.477005e+01    8.998242e-01
  2.478593e+01    8.951433e-01
  2.480180e+01    8.932559e-01
  2.481768e+01    8.791733e-01
  2.483355e+01    8.833118e-01
  2.484943e+01    9.024903e-01
  2.486530e+01    8.952555e-01
  2.488118e+01    8.865476e-01
  2.489706e+01    8.874452e-01
  2.491293e+01    8.911859e-01
  2.492881e+01    9.092439e-01
  2.494468e+01    9.041862e-01
  2.496056e+01    8.905380e-01
  2.497643e+01    8.988456e-01
  2.499231e+01    9.212364e-01
  2.500819e+01    9.146814e-01
  2.502406e+01    8.961843e-01
  2.503994e+01    8.903133e-01
  2.505581e+01    8.933499e-01
  2.507169e+01    9.065982e-01
  2.508756e+01    9.153102e-01
  2.510344e+01    9.178253e-01
  2.511931e+01    9.093290e-01
  2.513519e+01    9.045652e-01
  2.515107e+01    8.889743e-01
  2.516694e+01    9.004478e-01
  2.518282e+01    9.141282e-01
  2.519869e+01    9.219504e-01
  2.521457e+01    9.377847e-01
  2.523044e+01    9.556928e-01
  2.524632e+01    9.532253e-01
  2.526219e+01    9.325613e-01
  2.527807e+01    9.183061e-01
  2.529395e+01    9.452698e-01
  2.530982e+01    9.654312e-01
  2.532570e+01    9.562463e-01
  2.534157e+01    9.547324e-01
  2.535745e+01    1.002264e+00
  2.537332e+01    1.000749e+00
  2.538920e+01    9.978201e-01
  2.540507e+01    1.017082e+00
  2.542095e+01    1.015873e+00
  2.543683e+01    1.024881e+00
  2.545270e+01    1.038011e+00
  2.546858e+01    1.030826e+00
  2.548445e+01    1.043595e+00
  2.550033e+01    1.045198e+00
  2.551620e+01    1.084864e+00
  2.553208e+01    1.097464e+00
  2.554795e+01    1.110502e+00
  2.556383e+01    1.125031e+00
  2.557971e+01    1.173463e+00
  2.559558e+01    1.181006e+00
  2.561146e+01    1.220657e+00
  2.562733e+01    1.273710e+00
  2.564321e+01    1.313694e+00
  2.565908e+01    1.372719e+00
  2.567496e+01    1.436129e+00
  2.569083e+01    1.516303e+00
  2.570671e+01    1.619722e+00
  2.572259e+01    1.717071e+00
  2.573846e+01    1.884804e+00
  2.575434e+01    2.098592e+00
  2.577021e+01    2.288018e+00
  2.578609e+01    2.579775e+00
  2.580196e+01    2.833400e+00
  2.581784e+01    3.231926e+00
  2.583371e+01    3.710253e+00
  2.584959e+01    4.225387e+00
  2.586547e+01    4.754904e+00
  2.588134e+01    5.315738e+00
  2.589722e+01    5.920670e+00
  2.591309e+01    6.458148e+00
  2.592897e+01    6.851266e+00
  2.594484e+01    7.089835e+00
  2.596072e+01    7.223666e+00
  2.597660e+01    6.989663e+00
  2.599247e+01    6.574947e+00
  2.600835e+01    5.942539e+00
  2.602422e+01    5.290525e+00
  2.604010e+01    4.615237e+00
  2.605597e+01    3.949305e+00
  2.607185e+01    3.395152e+00
  2.608772e+01    2.997228e+00
  2.610360e+01    2.656507e+00
  2.611948e+01    2.357673e+00
  2.613535e+01    2.159409e+00
  2.615123e+01    1.952657e+00
  2.616710e+01    1.791072e+00
  2.618298e+01    1.689582e+00
  2.619885e+01    1.575400e+00
  2.621473e+01    1.493202e+00
  2.623060e+01    1.424046e+00
  2.624648e+01    1.351481e+00
  2.626236e+01    1.307309e+00
  2.627823e+01    1.265574e+00
  2.629411e+01    1.210602e+00
  2.630998e+01    1.183058e+00
  2.632586e+01    1.156397e+00
  2.634173e+01    1.127344e+00
  2.635761e+01    1.074244e+00
  2.637348e+01    1.088534e+00
  2.638936e+01    1.059246e+00
  2.640524e+01    1.041043e+00
  2.642111e+01    1.054582e+00
  2.643699e+01    1.040763e+00
  2.645286e+01    1.040016e+00
  2.646874e+01    1.018036e+00
  2.648461e+01    1.024291e+00
  2.650049e+01    1.015133e+00
  2.651636e+01    1.012780e+00
  2.653224e+01    9.994698e-01
  2.654812e+01    1.005302e+00
  2.656399e+01    1.003669e+00
  2.657987e+01    9.923811e-01
  2.659574e+01    9.981872e-01
  2.661162e+01    9.760718e-01
  2.662749e+01    9.620887e-01
  2.664337e+01    9.674943e-01
  2.665924e+01    9.897999e-01
  2.667512e+01    9.760382e-01
  2.669100e+01    9.689125e-01
  2.670687e+01    9.888946e-01
  2.672275e+01    9.681682e-01
  2.673862e+01    9.573802e-01
  2.675450e+01    9.840063e-01
  2.677037e+01    9.933811e-01
  2.678625e+01    9.663330e-01
  2.680212e+01    9.691809e-01
  2.681800e+01    1.014509e+00
  2.683388e+01    1.000698e+00
  2.684975e+01    9.736711e-01
  2.686563e+01    9.970607e-01
  2.688150e+01    1.008659e+00
  2.689738e+01    9.960783e-01
  2.691325e+01    1.016995e+00
  2.692913e+01    1.024465e+00
  2.694501e+01    1.047711e+00
  2.696088e+01    1.057162e+00
  2.697676e+01    1.048814e+00
  2.699263e+01    1.075089e+00
  2.700851e+01    1.140698e+00
  2.702438e+01    1.165619e+00
  2.704026e+01    1.202942e+00
  2.705613e+01    1.255718e+00
  2.707201e+01    1.316222e+00
  2.708789e+01    1.395208e+00
  2.710376e+01    1.529003e+00
  2.711964e+01    1.640236e+00
  2.713551e+01    1.743052e+00
  2.715139e+01    1.864295e+00
  2.716726e+01    2.013617e+00
  2.718314e+01    2.101264e+00
  2.719901e+01    2.203759e+00
  2.721489e+01    2.232649e+00
  2.723077e+01    2.196696e+00
  2.724664e+01    2.090852e+00
  2.726252e+01    1.977073e+00
  2.727839e+01    1.821636e+00
  2.729427e+01    1.680402e+00
  2.731014e+01    1.562663e+00
  2.732602e+01    1.447649e+00
  2.734189e+01    1.354839e+00
  2.735777e+01    1.286800e+00
  2.737365e+01    1.209536e+00
  2.738952e+01    1.138954e+00
  2.740540e+01    1.120962e+00
  2.742127e+01    1.104924e+00
  2.743715e+01    1.077654e+00
  2.745302e+01    1.026721e+00
  2.746890e+01    1.018899e+00
  2.748477e+01    9.902644e-01
  2.750065e+01    9.861924e-01
  2.751653e+01    9.678708e-01
  2.753240e+01    9.471260e-01
  2.754828e+01    9.608839e-01
  2.756415e+01    9.529924e-01
  2.758003e+01    9.291817e-01
  2.759590e+01    9.407371e-01
  2.761178e+01    9.183682e-01
  2.762765e+01    9.279302e-01
  2.764353e+01    9.297420e-01
  2.765941e+01    9.208007e-01
  2.767528e+01    9.298114e-01
  2.769116e+01    9.420444e-01
  2.770703e+01    9.199126e-01
  2.772291e+01    8.728615e-01
  2.773878e+01    8.846438e-01
  2.775466e+01    8.972327e-01
  2.777054e+01    8.883485e-01
  2.778641e+01    8.915878e-01
  2.780229e+01    8.826569e-01
  2.781816e+01    8.863329e-01
  2.783404e+01    8.666672e-01
  2.784991e+01    8.949444e-01
  2.786579e+01    8.983383e-01
  2.788166e+01    8.811250e-01
  2.789754e+01    8.702245e-01
  2.791342e+01    8.741325e-01
  2.792929e+01    8.927345e-01
  2.794517e+01    8.719009e-01
  2.796104e+01    8.694291e-01
  2.797692e+01    8.766178e-01
  2.799279e+01    8.871262e-01
  2.800867e+01    8.783661e-01
  2.802454e+01    8.703962e-01
  2.804042e+01    8.686629e-01
  2.805630e+01    8.507228e-01
  2.807217e+01    8.792529e-01
  2.808805e+01    8.888699e-01
  2.810392e+01    8.679776e-01
  2.811980e+01    8.463874e-01
  2.813567e+01    8.547397e-01
  2.815155e+01    8.434562e-01
  2.816742e+01    8.484892e-01
  2.818330e+01    8.488029e-01
  2.819918e+01    8.602011e-01
  2.821505e+01    8.584913e-01
  2.823093e+01    8.606927e-01
  2.824680e+01    8.414548e-01
  2.826268e+01    8.507622e-01
  2.827855e+01    8.733398e-01
  2.829443e+01    8.598391e-01
  2.831030e+01    8.441448e-01
  2.832618e+01    8.363686e-01
  2.834206e+01    8.676685e-01
  2.835793e+01    8.799310e-01
  2.837381e+01    8.578081e-01
  2.838968e+01    8.688331e-01
  2.840556e+01    8.616184e-01
  2.842143e+01    8.606415e-01
  2.843731e+01    8.737192e-01
  2.845318e+01    8.646684e-01
  2.846906e+01    8.447621e-01
  2.848494e+01    8.521994e-01
  2.850081e+01    8.321977e-01
  2.851669e+01    8.311832e-01
  2.853256e+01    8.609000e-01
  2.854844e+01    8.521772e-01
  2.856431e+01    8.512205e-01
  2.858019e+01    8.301563e-01
  2.859606e+01    8.487611e-01
  2.861194e+01    8.667058e-01
  2.862782e+01    8.489940e-01
  2.864369e+01    8.424848e-01
  2.865957e+01    8.478535e-01
  2.867544e+01    8.534403e-01
  2.869132e+01    8.347701e-01
  2.870719e+01    8.358608e-01
  2.872307e+01    8.525259e-01
  2.873895e+01    8.439488e-01
  2.875482e+01    8.271024e-01
  2.877070e+01    8.510473e-01
  2.878657e+01    8.507556e-01
  2.880245e+01    8.222426e-01
  2.881832e+01    8.188870e-01
  2.883420e+01    8.201705e-01
  2.885007e+01    8.334675e-01
  2.886595e+01    7.985552e-01
  2.888183e+01    8.190111e-01
  2.889770e+01    8.219023e-01
  2.891358e+01    8.354905e-01
  2.892945e+01    8.208188e-01
  2.894533e+01    8.259221e-01
  2.896120e+01    8.289824e-01
  2.897708e+01    8.246863e-01
  2.899295e+01    8.155659e-01
  2.900883e+01    8.375795e-01
  2.902471e+01    8.333970e-01
  2.904058e+01    8.263606e-01
  2.905646e+01    8.128540e-01
  2.907233e+01    8.259552e-01
  2.908821e+01    8.156970e-01
  2.910408e+01    7.963187e-01
  2.911996e+01    8.283842e-01
  2.913583e+01    8.315150e-01
  2.915171e+01    8.080503e-01
  2.916759e+01    8.198485e-01
  2.918346e+01    8.275390e-01
  2.919934e+01    8.135735e-01
  2.921521e+01    7.963123e-01
  2.923109e+01    8.179671e-01
  2.924696e+01    8.148194e-01
  2.926284e+01    8.306022e-01
  2.927871e+01    8.125520e-01
  2.929459e+01    8.045483e-01
  2.931047e+01    8.241276e-01
  2.932634e+01    8.311555e-01
  2.934222e+01    8.050743e-01
  2.935809e+01    7.994222e-01
  2.937397e+01    8.389052e-01
  2.938984e+01    8.319871e-01
  2.940572e+01    8.158706e-01
  2.942159e+01    8.089898e-01
  2.943747e+01    8.068872e-01
  2.945335e+01    8.035659e-01
  2.946922e+01    8.076101e-01
  2.948510e+01    8.024696e-01
  2.950097e+01    7.896945e-01
  2.951685e+01    8.070860e-01
  2.953272e+01    8.099278e-01
  2.954860e+01    7.997108e-01
  2.956447e+01    8.151299e-01
  2.958035e+01    7.766244e-01
  2.959623e+01    7.778584e-01
  2.961210e+01    8.268011e-01
  2.962798e+01    7.968528e-01
  2.964385e+01    7.963278e-01
  2.965973e+01    8.108861e-01
  2.967560e+01    8.078675e-01
  2.969148e+01    8.031465e-01
  2.970736e+01    7.979641e-01
  2.972323e+01    7.975813e-01
  2.973911e+01    8.130164e-01
  2.975498e+01    8.101784e-01
  2.977086e+01    8.201855e-01
  2.978673e+01    8.110439e-01
  2.980261e+01    8.212387e-01
  2.981848e+01    7.997925e-01
  2.983436e+01    7.814813e-01
  2.985024e+01    7.980977e-01
  2.986611e+01    7.955189e-01
  2.988199e+01    7.862638e-01
  2.989786e+01    7.820814e-01
  2.991374e+01    7.801574e-01
  2.992961e+01    7.932927e-01
  2.994549e+01    7.854371e-01
  2.996136e+01    7.930222e-01
  2.997724e+01    8.065786e-01
  2.999312e+01    7.986719e-01
  3.000899e+01    8.106921e-01
  3.002487e+01    8.042237e-01
  3.004074e+01    8.209987e-01
  3.005662e+01    8.194351e-01
  3.007249e+01    8.192723e-01
  3.008837e+01    8.154674e-01
  3.010424e+01    8.083994e-01
  3.012012e+01    7.929146e-01
  3.013600e+01    7.992742e-01
  3.015187e+01    7.830956e-01
  3.016775e+01    8.010526e-01
  3.018362e+01    7.952178e-01
  3.019950e+01    8.086698e-01
  3.021537e+01    7.932335e-01
  3.023125e+01    7.702804e-01
  3.024712e+01    7.814711e-01
  3.026300e+01    8.135211e-01
  3.027888e+01    8.076620e-01
  3.029475e+01    8.030868e-01
  3.031063e+01    7.950165e-01
  3.032650e+01    7.797816e-01
  3.034238e+01    7.887830e-01
  3.035825e+01    8.022717e-01
  3.037413e+01    8.018717e-01
  3.039000e+01    7.987370e-01
  3.040588e+01    7.936245e-01
  3.042176e+01    7.974291e-01
  3.043763e+01    7.816027e-01
  3.045351e+01    7.988299e-01
  3.046938e+01    8.056437e-01
  3.048526e+01    8.134330e-01
  3.050113e+01    8.009205e-01
  3.051701e+01    7.816839e-01
  3.053288e+01    7.840961e-01
  3.054876e+01    7.875935e-01
  3.056464e+01    7.871082e-01
  3.058051e+01    7.793493e-01
  3.059639e+01    7.669079e-01
  3.061226e+01    7.816460e-01
  3.062814e+01    7.846138e-01
  3.064401e+01    7.830934e-01
  3.065989e+01    7.839506e-01
  3.067577e+01    7.917359e-01
  3.069164e+01    7.884874e-01
  3.070752e+01    7.895195e-01
  3.072339e+01    7.830018e-01
  3.073927e+01    7.555533e-01
  3.075514e+01    7.549697e-01
  3.077102e+01    7.696021e-01
  3.078689e+01    7.745405e-01
  3.080277e+01    7.819343e-01
  3.081865e+01    7.971908e-01
  3.083452e+01    8.142186e-01
  3.085040e+01    8.025421e-01
  3.086627e+01    7.847650e-01
  3.088215e+01    7.867358e-01
  3.089802e+01    8.051051e-01
  3.091390e+01    8.006744e-01
  3.092977e+01    7.876000e-01
  3.094565e+01    7.856340e-01
  3.096153e+01    7.832034e-01
  3.097740e+01    7.879745e-01
  3.099328e+01    7.924905e-01
  3.100915e+01    7.708778e-01
  3.102503e+01    7.661508e-01
  3.104090e+01    7.941109e-01
  3.105678e+01    7.930984e-01
  3.107265e+01    8.040090e-01
  3.108853e+01    8.050849e-01
  3.110441e+01    7.926063e-01
  3.112028e+01    7.978840e-01
  3.113616e+01    8.016791e-01
  3.115203e+01    7.897250e-01
  3.116791e+01    8.031675e-01
  3.118378e+01    8.026931e-01
  3.119966e+01    7.881470e-01
  3.121553e+01    7.923291e-01
  3.123141e+01    7.890525e-01
  3.124729e+01    7.794522e-01
  3.126316e+01    7.988765e-01
  3.127904e+01    8.052351e-01
  3.129491e+01    8.131745e-01
  3.131079e+01    8.170204e-01
  3.132666e+01    7.853051e-01
  3.134254e+01    7.920593e-01
  3.135841e+01    8.097599e-01
  3.137429e+01    7.970592e-01
  3.139017e+01    7.954417e-01
  3.140604e+01    8.128833e-01
  3.142192e+01    8.126985e-01
  3.143779e+01    8.169984e-01
  3.145367e+01    7.876541e-01
  3.146954e+01    8.266725e-01
  3.148542e+01    8.301973e-01
  3.150129e+01    8.349318e-01
  3.151717e+01    8.620976e-01
  3.153305e+01    8.562479e-01
  3.154892e+01    8.622883e-01
  3.156480e+01    8.645611e-01
  3.158067e+01    8.950437e-01
  3.159655e+01    8.784262e-01
  3.161242e+01    8.761704e-01
  3.162830e+01    8.888326e-01
  3.164418e+01    9.234879e-01
  3.166005e+01    9.495759e-01
  3.167593e+01    9.571648e-01
  3.169180e+01    9.784577e-01
  3.170768e+01    1.023958e+00
  3.172355e+01    1.087844e+00
  3.173943e+01    1.129758e+00
  3.175530e+01    1.227353e+00
  3.177118e+01    1.285825e+00
  3.178706e+01    1.368995e+00
  3.180293e+01    1.485085e+00
  3.181881e+01    1.593923e+00
  3.183468e+01    1.747551e+00
  3.185056e+01    1.867478e+00
  3.186643e+01    1.985959e+00
  3.188231e+01    2.049928e+00
  3.189818e+01    2.103307e+00
  3.191406e+01    2.143069e+00
  3.192994e+01    2.079621e+00
  3.194581e+01    1.928701e+00
  3.196169e+01    1.827027e+00
  3.197756e+01    1.689142e+00
  3.199344e+01    1.567193e+00
  3.200931e+01    1.428577e+00
  3.202519e+01    1.332002e+00
  3.204106e+01    1.218855e+00
  3.205694e+01    1.152458e+00
  3.207282e+01    1.099927e+00
  3.208869e+01    1.041759e+00
  3.210457e+01    1.011102e+00
  3.212044e+01    9.969935e-01
  3.213632e+01    9.428566e-01
  3.215219e+01    9.144709e-01
  3.216807e+01    8.943163e-01
  3.218394e+01    9.077490e-01
  3.219982e+01    8.683999e-01
  3.221570e+01    8.486774e-01
  3.223157e+01    8.283538e-01
  3.224745e+01    8.383175e-01
  3.226332e+01    8.323925e-01
  3.227920e+01    8.483384e-01
  3.229507e+01    8.362078e-01
  3.231095e+01    8.309429e-01
  3.232682e+01    8.033849e-01
  3.234270e+01    8.012118e-01
  3.235858e+01    8.160104e-01
  3.237445e+01    8.196942e-01
  3.239033e+01    7.860968e-01
  3.240620e+01    7.573634e-01
  3.242208e+01    7.722918e-01
  3.243795e+01    7.937664e-01
  3.245383e+01    7.967511e-01
  3.246970e+01    7.913154e-01
  3.248558e+01    7.786866e-01
  3.250146e+01    7.744012e-01
  3.251733e+01    7.540693e-01
  3.253321e+01    7.682833e-01
  3.254908e+01    7.745257e-01
