# == pyFAI calibration ==
# Distance Sample to Detector: 0.3999999939076516 m
# PONI: 9.750e-02, 1.135e-01 m
# Rotations: -0.000175 0.000000 -0.000000 rad
# 
# == Fit2d calibration ==
# Distance Sample-beamCenter: 400.000 mm
# Center: x=1514.000, y=1300.000 pix
# Tilt: 0.010 deg  TiltPlanRot: 0.010 deg
# 
# Detector Detector	 Spline= None	 PixelSize= 7.500e-05, 7.500e-05 m
#    Detector has a mask: False 
#    Detector has a dark current: False 
#    detector has a flat field: False 
# 
# Wavelength: 6.888e-11 m
# Mask applied: user provided
# Dark current applied: False
# Flat field applied: False
# Polarization factor: 0.99
# Normalization factor: 1.0
# --> /home/myspot/data/2024_07_Rosario/Ru-CGO-ex/2024-07-27_003_Ru-CGO-ex_Reaction_dwell_000023_data_000148.dat
#       q_nm^-1             I 
  2.003187e-02    2.418543e-01
  3.590745e-02    2.962457e-01
  5.178302e-02    2.061078e-01
  6.765859e-02    1.449326e-01
  8.353417e-02    1.534332e-01
  9.940974e-02    3.949676e-02
  1.152853e-01    4.417604e-02
  1.311609e-01    1.285986e-01
  1.470365e-01    5.432060e-02
  1.629120e-01    2.801210e-02
  1.787876e-01    1.085904e-02
  1.946632e-01    3.439334e-02
  2.105388e-01    6.458192e-02
  2.264143e-01    5.233051e-02
  2.422899e-01    4.067328e-02
  2.581655e-01    5.369343e-02
  2.740411e-01    8.198438e-02
  2.899166e-01    3.422762e-02
  3.057922e-01    1.850600e-02
  3.216678e-01    3.583843e-02
  3.375433e-01    5.599621e-02
  3.534189e-01    5.449959e-02
  3.692945e-01    7.073207e-02
  3.851701e-01    3.598116e-02
  4.010456e-01    3.318771e-02
  4.169212e-01    1.735577e-02
  4.327968e-01    3.855093e-02
  4.486724e-01    4.879596e-02
  4.645479e-01    1.155779e-02
  4.804235e-01    1.799880e-02
  4.962991e-01    5.539967e-02
  5.121747e-01    1.251216e-01
  5.280502e-01    6.349242e-02
  5.439258e-01    6.481589e-02
  5.598014e-01    3.451189e-02
  5.756770e-01    3.214291e-02
  5.915525e-01    3.169158e-02
  6.074281e-01    5.468055e-02
  6.233037e-01    7.744146e-02
  6.391793e-01    6.145745e-02
  6.550548e-01    4.986168e-02
  6.709304e-01    3.845880e-02
  6.868060e-01    2.952388e-02
  7.026815e-01    3.862989e-02
  7.185571e-01    2.873798e-02
  7.344327e-01    2.989059e-02
  7.503083e-01    4.210945e-02
  7.661838e-01    7.221815e-02
  7.820594e-01    1.238133e-01
  7.979350e-01    1.940847e-01
  8.138106e-01    2.335019e-01
  8.296861e-01    2.329947e-01
  8.455617e-01    3.772602e-01
  8.614373e-01    4.469500e-01
  8.773129e-01    4.638825e-01
  8.931884e-01    5.746503e-01
  9.090640e-01    6.749971e-01
  9.249396e-01    7.010447e-01
  9.408152e-01    8.412397e-01
  9.566907e-01    9.524624e-01
  9.725663e-01    1.032697e+00
  9.884419e-01    1.154227e+00
  1.004317e+00    1.158623e+00
  1.020193e+00    1.283888e+00
  1.036069e+00    1.358466e+00
  1.051944e+00    1.422057e+00
  1.067820e+00    1.451778e+00
  1.083695e+00    1.509037e+00
  1.099571e+00    1.596220e+00
  1.115446e+00    1.585595e+00
  1.131322e+00    1.547920e+00
  1.147198e+00    1.640667e+00
  1.163073e+00    1.617641e+00
  1.178949e+00    1.623250e+00
  1.194824e+00    1.760754e+00
  1.210700e+00    2.039620e+00
  1.226575e+00    2.119686e+00
  1.242451e+00    2.137697e+00
  1.258327e+00    2.419987e+00
  1.274202e+00    2.601974e+00
  1.290078e+00    2.649899e+00
  1.305953e+00    2.801024e+00
  1.321829e+00    2.725890e+00
  1.337705e+00    2.614699e+00
  1.353580e+00    2.748426e+00
  1.369456e+00    2.745960e+00
  1.385331e+00    2.760401e+00
  1.401207e+00    2.730508e+00
  1.417082e+00    2.778200e+00
  1.432958e+00    2.807141e+00
  1.448834e+00    2.816335e+00
  1.464709e+00    2.920280e+00
  1.480585e+00    2.980371e+00
  1.496460e+00    2.930387e+00
  1.512336e+00    3.041091e+00
  1.528211e+00    3.131950e+00
  1.544087e+00    3.239960e+00
  1.559963e+00    3.139766e+00
  1.575838e+00    3.140726e+00
  1.591714e+00    3.058590e+00
  1.607589e+00    3.158855e+00
  1.623465e+00    3.216079e+00
  1.639340e+00    3.131018e+00
  1.655216e+00    3.119585e+00
  1.671092e+00    3.102020e+00
  1.686967e+00    3.087658e+00
  1.702843e+00    3.161897e+00
  1.718718e+00    3.152593e+00
  1.734594e+00    3.116320e+00
  1.750469e+00    3.071484e+00
  1.766345e+00    3.023723e+00
  1.782221e+00    3.056315e+00
  1.798096e+00    3.087183e+00
  1.813972e+00    3.033989e+00
  1.829847e+00    2.977047e+00
  1.845723e+00    3.103085e+00
  1.861598e+00    3.062552e+00
  1.877474e+00    3.132717e+00
  1.893350e+00    3.138547e+00
  1.909225e+00    3.041379e+00
  1.925101e+00    3.045972e+00
  1.940976e+00    3.010088e+00
  1.956852e+00    3.028973e+00
  1.972727e+00    3.058961e+00
  1.988603e+00    3.024321e+00
  2.004479e+00    3.049311e+00
  2.020354e+00    3.063679e+00
  2.036230e+00    2.994071e+00
  2.052105e+00    3.025125e+00
  2.067981e+00    3.102930e+00
  2.083856e+00    3.077439e+00
  2.099732e+00    3.068619e+00
  2.115608e+00    3.117227e+00
  2.131483e+00    3.120975e+00
  2.147359e+00    3.043262e+00
  2.163234e+00    3.127599e+00
  2.179110e+00    3.134750e+00
  2.194985e+00    3.105340e+00
  2.210861e+00    3.101413e+00
  2.226737e+00    3.064437e+00
  2.242612e+00    3.016995e+00
  2.258488e+00    3.017587e+00
  2.274363e+00    3.052702e+00
  2.290239e+00    3.116804e+00
  2.306115e+00    3.093486e+00
  2.321990e+00    3.206358e+00
  2.337866e+00    3.194318e+00
  2.353741e+00    3.179720e+00
  2.369617e+00    3.152390e+00
  2.385492e+00    3.104208e+00
  2.401368e+00    3.164330e+00
  2.417244e+00    3.181530e+00
  2.433119e+00    3.225924e+00
  2.448995e+00    3.160335e+00
  2.464870e+00    3.210473e+00
  2.480746e+00    3.234004e+00
  2.496621e+00    3.352625e+00
  2.512497e+00    3.278769e+00
  2.528373e+00    3.137873e+00
  2.544248e+00    3.165478e+00
  2.560124e+00    3.237599e+00
  2.575999e+00    3.327900e+00
  2.591875e+00    3.289073e+00
  2.607750e+00    3.191746e+00
  2.623626e+00    3.085286e+00
  2.639502e+00    3.113698e+00
  2.655377e+00    3.193949e+00
  2.671253e+00    3.253570e+00
  2.687128e+00    3.289372e+00
  2.703004e+00    3.263936e+00
  2.718879e+00    3.305314e+00
  2.734755e+00    3.259270e+00
  2.750631e+00    3.275484e+00
  2.766506e+00    3.240206e+00
  2.782382e+00    3.314234e+00
  2.798257e+00    3.253570e+00
  2.814133e+00    3.193798e+00
  2.830008e+00    3.296712e+00
  2.845884e+00    3.226512e+00
  2.861760e+00    3.273193e+00
  2.877635e+00    3.385698e+00
  2.893511e+00    3.319508e+00
  2.909386e+00    3.332701e+00
  2.925262e+00    3.327683e+00
  2.941137e+00    3.289122e+00
  2.957013e+00    3.365077e+00
  2.972889e+00    3.301774e+00
  2.988764e+00    3.275733e+00
  3.004640e+00    3.430979e+00
  3.020515e+00    3.411833e+00
  3.036391e+00    3.463375e+00
  3.052266e+00    3.379920e+00
  3.068142e+00    3.295811e+00
  3.084018e+00    3.283421e+00
  3.099893e+00    3.473015e+00
  3.115769e+00    3.467514e+00
  3.131644e+00    3.356715e+00
  3.147520e+00    3.334069e+00
  3.163395e+00    3.309255e+00
  3.179271e+00    3.446639e+00
  3.195147e+00    3.347109e+00
  3.211022e+00    3.395733e+00
  3.226898e+00    3.427169e+00
  3.242773e+00    3.414850e+00
  3.258649e+00    3.409817e+00
  3.274525e+00    3.295558e+00
  3.290400e+00    3.408273e+00
  3.306276e+00    3.327703e+00
  3.322151e+00    3.281503e+00
  3.338027e+00    3.416053e+00
  3.353902e+00    3.450857e+00
  3.369778e+00    3.412024e+00
  3.385654e+00    3.315709e+00
  3.401529e+00    3.322718e+00
  3.417405e+00    3.432628e+00
  3.433280e+00    3.460634e+00
  3.449156e+00    3.364304e+00
  3.465031e+00    3.401847e+00
  3.480907e+00    3.364066e+00
  3.496783e+00    3.414784e+00
  3.512658e+00    3.435229e+00
  3.528534e+00    3.436248e+00
  3.544409e+00    3.476587e+00
  3.560285e+00    3.450390e+00
  3.576160e+00    3.513107e+00
  3.592036e+00    3.525840e+00
  3.607912e+00    3.501189e+00
  3.623787e+00    3.504370e+00
  3.639663e+00    3.553645e+00
  3.655538e+00    3.500548e+00
  3.671414e+00    3.421219e+00
  3.687289e+00    3.521717e+00
  3.703165e+00    3.490433e+00
  3.719041e+00    3.489251e+00
  3.734916e+00    3.472827e+00
  3.750792e+00    3.502661e+00
  3.766667e+00    3.492477e+00
  3.782543e+00    3.466030e+00
  3.798418e+00    3.497098e+00
  3.814294e+00    3.473721e+00
  3.830170e+00    3.465050e+00
  3.846045e+00    3.435214e+00
  3.861921e+00    3.478431e+00
  3.877796e+00    3.469965e+00
  3.893672e+00    3.494653e+00
  3.909547e+00    3.505575e+00
  3.925423e+00    3.518764e+00
  3.941299e+00    3.575159e+00
  3.957174e+00    3.506417e+00
  3.973050e+00    3.485870e+00
  3.988925e+00    3.455171e+00
  4.004801e+00    3.505389e+00
  4.020676e+00    3.627448e+00
  4.036552e+00    3.593566e+00
  4.052428e+00    3.590761e+00
  4.068303e+00    3.607618e+00
  4.084179e+00    3.612065e+00
  4.100054e+00    3.586909e+00
  4.115930e+00    3.541031e+00
  4.131806e+00    3.499973e+00
  4.147681e+00    3.490405e+00
  4.163557e+00    3.497080e+00
  4.179432e+00    3.461482e+00
  4.195308e+00    3.562529e+00
  4.211183e+00    3.604758e+00
  4.227059e+00    3.503503e+00
  4.242935e+00    3.455747e+00
  4.258810e+00    3.557103e+00
  4.274686e+00    3.552868e+00
  4.290561e+00    3.552463e+00
  4.306437e+00    3.601834e+00
  4.322312e+00    3.607649e+00
  4.338188e+00    3.574196e+00
  4.354064e+00    3.572302e+00
  4.369939e+00    3.607692e+00
  4.385815e+00    3.612790e+00
  4.401690e+00    3.573810e+00
  4.417566e+00    3.575908e+00
  4.433441e+00    3.579976e+00
  4.449317e+00    3.522042e+00
  4.465193e+00    3.569489e+00
  4.481068e+00    3.582731e+00
  4.496944e+00    3.603092e+00
  4.512819e+00    3.680704e+00
  4.528695e+00    3.580899e+00
  4.544570e+00    3.566086e+00
  4.560446e+00    3.605150e+00
  4.576322e+00    3.562511e+00
  4.592197e+00    3.651693e+00
  4.608073e+00    3.583647e+00
  4.623948e+00    3.645296e+00
  4.639824e+00    3.661521e+00
  4.655699e+00    3.622481e+00
  4.671575e+00    3.626944e+00
  4.687451e+00    3.631132e+00
  4.703326e+00    3.628235e+00
  4.719202e+00    3.631913e+00
  4.735077e+00    3.674876e+00
  4.750953e+00    3.707086e+00
  4.766828e+00    3.631392e+00
  4.782704e+00    3.615949e+00
  4.798580e+00    3.537566e+00
  4.814455e+00    3.614377e+00
  4.830331e+00    3.652289e+00
  4.846206e+00    3.635891e+00
  4.862082e+00    3.643648e+00
  4.877957e+00    3.705685e+00
  4.893833e+00    3.678510e+00
  4.909709e+00    3.655117e+00
  4.925584e+00    3.595740e+00
  4.941460e+00    3.619579e+00
  4.957335e+00    3.651022e+00
  4.973211e+00    3.621552e+00
  4.989086e+00    3.623253e+00
  5.004962e+00    3.625332e+00
  5.020838e+00    3.663303e+00
  5.036713e+00    3.685948e+00
  5.052589e+00    3.603624e+00
  5.068464e+00    3.675073e+00
  5.084340e+00    3.606797e+00
  5.100216e+00    3.604769e+00
  5.116091e+00    3.589281e+00
  5.131967e+00    3.644800e+00
  5.147842e+00    3.730511e+00
  5.163718e+00    3.723450e+00
  5.179593e+00    3.675392e+00
  5.195469e+00    3.710883e+00
  5.211345e+00    3.658112e+00
  5.227220e+00    3.701971e+00
  5.243096e+00    3.633200e+00
  5.258971e+00    3.644914e+00
  5.274847e+00    3.612583e+00
  5.290722e+00    3.619900e+00
  5.306598e+00    3.606170e+00
  5.322474e+00    3.605023e+00
  5.338349e+00    3.665600e+00
  5.354225e+00    3.708503e+00
  5.370100e+00    3.645234e+00
  5.385976e+00    3.662734e+00
  5.401851e+00    3.708342e+00
  5.417727e+00    3.649477e+00
  5.433603e+00    3.627627e+00
  5.449478e+00    3.593604e+00
  5.465354e+00    3.592144e+00
  5.481229e+00    3.588491e+00
  5.497105e+00    3.536966e+00
  5.512980e+00    3.526885e+00
  5.528856e+00    3.557405e+00
  5.544732e+00    3.593249e+00
  5.560607e+00    3.655608e+00
  5.576483e+00    3.586082e+00
  5.592358e+00    3.506505e+00
  5.608234e+00    3.609471e+00
  5.624109e+00    3.667665e+00
  5.639985e+00    3.675839e+00
  5.655861e+00    3.569423e+00
  5.671736e+00    3.502029e+00
  5.687612e+00    3.570732e+00
  5.703487e+00    3.605666e+00
  5.719363e+00    3.564584e+00
  5.735238e+00    3.603061e+00
  5.751114e+00    3.582856e+00
  5.766990e+00    3.582695e+00
  5.782865e+00    3.570579e+00
  5.798741e+00    3.595027e+00
  5.814616e+00    3.557156e+00
  5.830492e+00    3.519507e+00
  5.846367e+00    3.597326e+00
  5.862243e+00    3.533043e+00
  5.878119e+00    3.525580e+00
  5.893994e+00    3.559182e+00
  5.909870e+00    3.539052e+00
  5.925745e+00    3.538841e+00
  5.941621e+00    3.598327e+00
  5.957497e+00    3.606606e+00
  5.973372e+00    3.638585e+00
  5.989248e+00    3.562112e+00
  6.005123e+00    3.471313e+00
  6.020999e+00    3.449716e+00
  6.036874e+00    3.562438e+00
  6.052750e+00    3.616733e+00
  6.068626e+00    3.533928e+00
  6.084501e+00    3.551003e+00
  6.100377e+00    3.567223e+00
  6.116252e+00    3.590351e+00
  6.132128e+00    3.681919e+00
  6.148003e+00    3.564629e+00
  6.163879e+00    3.635835e+00
  6.179755e+00    3.601326e+00
  6.195630e+00    3.531773e+00
  6.211506e+00    3.556953e+00
  6.227381e+00    3.538122e+00
  6.243257e+00    3.467442e+00
  6.259132e+00    3.479794e+00
  6.275008e+00    3.587737e+00
  6.290884e+00    3.653059e+00
  6.306759e+00    3.629847e+00
  6.322635e+00    3.563319e+00
  6.338510e+00    3.561539e+00
  6.354386e+00    3.525041e+00
  6.370261e+00    3.519658e+00
  6.386137e+00    3.575472e+00
  6.402013e+00    3.623566e+00
  6.417888e+00    3.618141e+00
  6.433764e+00    3.578850e+00
  6.449639e+00    3.551508e+00
  6.465515e+00    3.616843e+00
  6.481390e+00    3.591385e+00
  6.497266e+00    3.544498e+00
  6.513142e+00    3.567191e+00
  6.529017e+00    3.611454e+00
  6.544893e+00    3.588714e+00
  6.560768e+00    3.597809e+00
  6.576644e+00    3.528517e+00
  6.592519e+00    3.518729e+00
  6.608395e+00    3.572227e+00
  6.624271e+00    3.512144e+00
  6.640146e+00    3.534485e+00
  6.656022e+00    3.617699e+00
  6.671897e+00    3.546641e+00
  6.687773e+00    3.587292e+00
  6.703648e+00    3.560847e+00
  6.719524e+00    3.445203e+00
  6.735400e+00    3.547615e+00
  6.751275e+00    3.538891e+00
  6.767151e+00    3.513370e+00
  6.783026e+00    3.443909e+00
  6.798902e+00    3.573023e+00
  6.814777e+00    3.586065e+00
  6.830653e+00    3.587033e+00
  6.846529e+00    3.658864e+00
  6.862404e+00    3.529640e+00
  6.878280e+00    3.532821e+00
  6.894155e+00    3.561829e+00
  6.910031e+00    3.466616e+00
  6.925907e+00    3.468840e+00
  6.941782e+00    3.473829e+00
  6.957658e+00    3.486238e+00
  6.973533e+00    3.577485e+00
  6.989409e+00    3.591677e+00
  7.005284e+00    3.525670e+00
  7.021160e+00    3.554578e+00
  7.037036e+00    3.555365e+00
  7.052911e+00    3.505631e+00
  7.068787e+00    3.509182e+00
  7.084662e+00    3.533935e+00
  7.100538e+00    3.548360e+00
  7.116413e+00    3.492907e+00
  7.132289e+00    3.472344e+00
  7.148165e+00    3.491436e+00
  7.164040e+00    3.507559e+00
  7.179916e+00    3.504472e+00
  7.195791e+00    3.533075e+00
  7.211667e+00    3.518061e+00
  7.227542e+00    3.549022e+00
  7.243418e+00    3.507180e+00
  7.259294e+00    3.473162e+00
  7.275169e+00    3.495310e+00
  7.291045e+00    3.478750e+00
  7.306920e+00    3.561965e+00
  7.322796e+00    3.550279e+00
  7.338671e+00    3.475735e+00
  7.354547e+00    3.525346e+00
  7.370423e+00    3.514837e+00
  7.386298e+00    3.500020e+00
  7.402174e+00    3.486778e+00
  7.418049e+00    3.477262e+00
  7.433925e+00    3.430033e+00
  7.449800e+00    3.424739e+00
  7.465676e+00    3.492073e+00
  7.481552e+00    3.480344e+00
  7.497427e+00    3.460281e+00
  7.513303e+00    3.404881e+00
  7.529178e+00    3.461388e+00
  7.545054e+00    3.388103e+00
  7.560929e+00    3.453576e+00
  7.576805e+00    3.533535e+00
  7.592681e+00    3.498226e+00
  7.608556e+00    3.482700e+00
  7.624432e+00    3.501141e+00
  7.640307e+00    3.528193e+00
  7.656183e+00    3.486334e+00
  7.672058e+00    3.455892e+00
  7.687934e+00    3.362303e+00
  7.703810e+00    3.456212e+00
  7.719685e+00    3.455431e+00
  7.735561e+00    3.427990e+00
  7.751436e+00    3.393147e+00
  7.767312e+00    3.429419e+00
  7.783187e+00    3.351748e+00
  7.799063e+00    3.396461e+00
  7.814939e+00    3.434159e+00
  7.830814e+00    3.458654e+00
  7.846690e+00    3.478423e+00
  7.862565e+00    3.428860e+00
  7.878441e+00    3.404171e+00
  7.894317e+00    3.400460e+00
  7.910192e+00    3.437618e+00
  7.926068e+00    3.511982e+00
  7.941943e+00    3.488546e+00
  7.957819e+00    3.451063e+00
  7.973694e+00    3.437312e+00
  7.989570e+00    3.387962e+00
  8.005446e+00    3.401562e+00
  8.021321e+00    3.412614e+00
  8.037197e+00    3.405869e+00
  8.053072e+00    3.397194e+00
  8.068948e+00    3.410266e+00
  8.084823e+00    3.421479e+00
  8.100699e+00    3.444504e+00
  8.116575e+00    3.483227e+00
  8.132450e+00    3.450935e+00
  8.148326e+00    3.375132e+00
  8.164201e+00    3.418656e+00
  8.180077e+00    3.446770e+00
  8.195952e+00    3.507192e+00
  8.211828e+00    3.453658e+00
  8.227704e+00    3.441754e+00
  8.243579e+00    3.508142e+00
  8.259455e+00    3.444945e+00
  8.275330e+00    3.391842e+00
  8.291206e+00    3.434754e+00
  8.307081e+00    3.409455e+00
  8.322957e+00    3.408525e+00
  8.338833e+00    3.379368e+00
  8.354708e+00    3.342127e+00
  8.370584e+00    3.376901e+00
  8.386459e+00    3.351239e+00
  8.402335e+00    3.380417e+00
  8.418210e+00    3.346292e+00
  8.434086e+00    3.339618e+00
  8.449962e+00    3.333398e+00
  8.465837e+00    3.349012e+00
  8.481713e+00    3.351751e+00
  8.497588e+00    3.364373e+00
  8.513464e+00    3.415283e+00
  8.529339e+00    3.374674e+00
  8.545215e+00    3.381725e+00
  8.561091e+00    3.343694e+00
  8.576966e+00    3.307628e+00
  8.592842e+00    3.297605e+00
  8.608717e+00    3.382459e+00
  8.624593e+00    3.381981e+00
  8.640468e+00    3.329321e+00
  8.656344e+00    3.362092e+00
  8.672220e+00    3.377627e+00
  8.688095e+00    3.340137e+00
  8.703971e+00    3.273803e+00
  8.719846e+00    3.334664e+00
  8.735722e+00    3.359816e+00
  8.751598e+00    3.332110e+00
  8.767473e+00    3.360393e+00
  8.783349e+00    3.296139e+00
  8.799224e+00    3.224673e+00
  8.815100e+00    3.315628e+00
  8.830975e+00    3.324650e+00
  8.846851e+00    3.290783e+00
  8.862727e+00    3.290395e+00
  8.878602e+00    3.287103e+00
  8.894478e+00    3.306474e+00
  8.910353e+00    3.312768e+00
  8.926229e+00    3.244679e+00
  8.942104e+00    3.242789e+00
  8.957980e+00    3.256436e+00
  8.973856e+00    3.221964e+00
  8.989731e+00    3.250052e+00
  9.005607e+00    3.296115e+00
  9.021482e+00    3.335852e+00
  9.037358e+00    3.287948e+00
  9.053233e+00    3.352263e+00
  9.069109e+00    3.369792e+00
  9.084985e+00    3.314290e+00
  9.100860e+00    3.230904e+00
  9.116736e+00    3.260767e+00
  9.132611e+00    3.277040e+00
  9.148487e+00    3.239701e+00
  9.164362e+00    3.284366e+00
  9.180238e+00    3.280506e+00
  9.196114e+00    3.236415e+00
  9.211989e+00    3.207412e+00
  9.227865e+00    3.256658e+00
  9.243740e+00    3.203795e+00
  9.259616e+00    3.234288e+00
  9.275491e+00    3.259046e+00
  9.291367e+00    3.273089e+00
  9.307243e+00    3.245457e+00
  9.323118e+00    3.161907e+00
  9.338994e+00    3.189822e+00
  9.354869e+00    3.266443e+00
  9.370745e+00    3.230608e+00
  9.386620e+00    3.238536e+00
  9.402496e+00    3.213456e+00
  9.418372e+00    3.244004e+00
  9.434247e+00    3.211181e+00
  9.450123e+00    3.216537e+00
  9.465998e+00    3.220322e+00
  9.481874e+00    3.173823e+00
  9.497749e+00    3.195779e+00
  9.513625e+00    3.177502e+00
  9.529501e+00    3.206479e+00
  9.545376e+00    3.211425e+00
  9.561252e+00    3.228804e+00
  9.577127e+00    3.206264e+00
  9.593003e+00    3.232463e+00
  9.608878e+00    3.165669e+00
  9.624754e+00    3.124656e+00
  9.640630e+00    3.186028e+00
  9.656505e+00    3.168523e+00
  9.672381e+00    3.101569e+00
  9.688256e+00    3.158983e+00
  9.704132e+00    3.137008e+00
  9.720008e+00    3.214654e+00
  9.735883e+00    3.237450e+00
  9.751759e+00    3.154696e+00
  9.767634e+00    3.173886e+00
  9.783510e+00    3.155328e+00
  9.799385e+00    3.134795e+00
  9.815261e+00    3.114290e+00
  9.831137e+00    3.117215e+00
  9.847012e+00    3.122142e+00
  9.862888e+00    3.122092e+00
  9.878763e+00    3.119263e+00
  9.894639e+00    3.104220e+00
  9.910514e+00    3.122433e+00
  9.926390e+00    3.108334e+00
  9.942266e+00    3.134467e+00
  9.958141e+00    3.092765e+00
  9.974017e+00    3.108804e+00
  9.989892e+00    3.117234e+00
  1.000577e+01    3.089868e+00
  1.002164e+01    3.072034e+00
  1.003752e+01    3.109609e+00
  1.005339e+01    3.086374e+00
  1.006927e+01    3.126526e+00
  1.008515e+01    3.084909e+00
  1.010102e+01    3.138646e+00
  1.011690e+01    3.092725e+00
  1.013277e+01    3.041427e+00
  1.014865e+01    3.077234e+00
  1.016452e+01    3.078030e+00
  1.018040e+01    3.034658e+00
  1.019627e+01    3.071051e+00
  1.021215e+01    3.044260e+00
  1.022803e+01    3.035331e+00
  1.024390e+01    3.042313e+00
  1.025978e+01    3.057278e+00
  1.027565e+01    3.051764e+00
  1.029153e+01    3.078900e+00
  1.030740e+01    3.076220e+00
  1.032328e+01    3.101643e+00
  1.033915e+01    3.053729e+00
  1.035503e+01    3.075355e+00
  1.037091e+01    3.078911e+00
  1.038678e+01    3.121858e+00
  1.040266e+01    3.070563e+00
  1.041853e+01    2.988658e+00
  1.043441e+01    2.997353e+00
  1.045028e+01    3.043476e+00
  1.046616e+01    3.020662e+00
  1.048204e+01    2.969532e+00
  1.049791e+01    2.968689e+00
  1.051379e+01    3.016860e+00
  1.052966e+01    2.957159e+00
  1.054554e+01    2.964026e+00
  1.056141e+01    3.007087e+00
  1.057729e+01    3.021310e+00
  1.059316e+01    3.032205e+00
  1.060904e+01    2.990093e+00
  1.062492e+01    2.980242e+00
  1.064079e+01    2.968484e+00
  1.065667e+01    2.972012e+00
  1.067254e+01    2.954309e+00
  1.068842e+01    2.908965e+00
  1.070429e+01    2.949130e+00
  1.072017e+01    2.988057e+00
  1.073604e+01    2.990719e+00
  1.075192e+01    2.947040e+00
  1.076780e+01    2.911587e+00
  1.078367e+01    2.953513e+00
  1.079955e+01    3.002633e+00
  1.081542e+01    2.977944e+00
  1.083130e+01    2.970768e+00
  1.084717e+01    2.913382e+00
  1.086305e+01    2.971342e+00
  1.087892e+01    2.928632e+00
  1.089480e+01    2.929501e+00
  1.091068e+01    2.920494e+00
  1.092655e+01    2.895770e+00
  1.094243e+01    2.882876e+00
  1.095830e+01    2.915125e+00
  1.097418e+01    2.915890e+00
  1.099005e+01    2.901128e+00
  1.100593e+01    2.897046e+00
  1.102180e+01    2.857382e+00
  1.103768e+01    2.864708e+00
  1.105356e+01    2.909710e+00
  1.106943e+01    2.944874e+00
  1.108531e+01    2.891504e+00
  1.110118e+01    2.869525e+00
  1.111706e+01    2.840741e+00
  1.113293e+01    2.818644e+00
  1.114881e+01    2.864771e+00
  1.116468e+01    2.881669e+00
  1.118056e+01    2.833714e+00
  1.119644e+01    2.852867e+00
  1.121231e+01    2.830254e+00
  1.122819e+01    2.831329e+00
  1.124406e+01    2.908587e+00
  1.125994e+01    2.859673e+00
  1.127581e+01    2.836902e+00
  1.129169e+01    2.799934e+00
  1.130756e+01    2.862917e+00
  1.132344e+01    2.857885e+00
  1.133932e+01    2.835832e+00
  1.135519e+01    2.831457e+00
  1.137107e+01    2.804254e+00
  1.138694e+01    2.829551e+00
  1.140282e+01    2.804338e+00
  1.141869e+01    2.824602e+00
  1.143457e+01    2.809914e+00
  1.145045e+01    2.809953e+00
  1.146632e+01    2.845079e+00
  1.148220e+01    2.825970e+00
  1.149807e+01    2.735810e+00
  1.151395e+01    2.801397e+00
  1.152982e+01    2.781273e+00
  1.154570e+01    2.736772e+00
  1.156157e+01    2.757639e+00
  1.157745e+01    2.752251e+00
  1.159333e+01    2.760520e+00
  1.160920e+01    2.774673e+00
  1.162508e+01    2.806031e+00
  1.164095e+01    2.756589e+00
  1.165683e+01    2.747745e+00
  1.167270e+01    2.801765e+00
  1.168858e+01    2.802638e+00
  1.170445e+01    2.729654e+00
  1.172033e+01    2.750177e+00
  1.173621e+01    2.766797e+00
  1.175208e+01    2.763863e+00
  1.176796e+01    2.716789e+00
  1.178383e+01    2.694642e+00
  1.179971e+01    2.717237e+00
  1.181558e+01    2.714777e+00
  1.183146e+01    2.738695e+00
  1.184733e+01    2.703016e+00
  1.186321e+01    2.718718e+00
  1.187909e+01    2.761111e+00
  1.189496e+01    2.744249e+00
  1.191084e+01    2.721423e+00
  1.192671e+01    2.708325e+00
  1.194259e+01    2.726359e+00
  1.195846e+01    2.696677e+00
  1.197434e+01    2.663615e+00
  1.199021e+01    2.699369e+00
  1.200609e+01    2.712260e+00
  1.202197e+01    2.715181e+00
  1.203784e+01    2.736924e+00
  1.205372e+01    2.700453e+00
  1.206959e+01    2.663621e+00
  1.208547e+01    2.710420e+00
  1.210134e+01    2.651727e+00
  1.211722e+01    2.630062e+00
  1.213309e+01    2.670090e+00
  1.214897e+01    2.681737e+00
  1.216485e+01    2.681634e+00
  1.218072e+01    2.725837e+00
  1.219660e+01    2.659023e+00
  1.221247e+01    2.688075e+00
  1.222835e+01    2.721373e+00
  1.224422e+01    2.687081e+00
  1.226010e+01    2.675111e+00
  1.227597e+01    2.690023e+00
  1.229185e+01    2.713087e+00
  1.230773e+01    2.651651e+00
  1.232360e+01    2.662731e+00
  1.233948e+01    2.729754e+00
  1.235535e+01    2.708447e+00
  1.237123e+01    2.694453e+00
  1.238710e+01    2.695416e+00
  1.240298e+01    2.647913e+00
  1.241886e+01    2.684577e+00
  1.243473e+01    2.701989e+00
  1.245061e+01    2.684389e+00
  1.246648e+01    2.721393e+00
  1.248236e+01    2.710536e+00
  1.249823e+01    2.706110e+00
  1.251411e+01    2.690546e+00
  1.252998e+01    2.669145e+00
  1.254586e+01    2.636704e+00
  1.256174e+01    2.649669e+00
  1.257761e+01    2.718630e+00
  1.259349e+01    2.704164e+00
  1.260936e+01    2.753929e+00
  1.262524e+01    2.756579e+00
  1.264111e+01    2.767764e+00
  1.265699e+01    2.771428e+00
  1.267286e+01    2.765521e+00
  1.268874e+01    2.825988e+00
  1.270462e+01    2.864318e+00
  1.272049e+01    2.850786e+00
  1.273637e+01    2.866285e+00
  1.275224e+01    2.880682e+00
  1.276812e+01    2.897510e+00
  1.278399e+01    2.930930e+00
  1.279987e+01    3.018585e+00
  1.281574e+01    3.041899e+00
  1.283162e+01    3.085933e+00
  1.284750e+01    3.164519e+00
  1.286337e+01    3.285877e+00
  1.287925e+01    3.346777e+00
  1.289512e+01    3.511540e+00
  1.291100e+01    3.628768e+00
  1.292687e+01    3.841267e+00
  1.294275e+01    4.139570e+00
  1.295862e+01    4.403434e+00
  1.297450e+01    4.717151e+00
  1.299038e+01    5.198585e+00
  1.300625e+01    5.843285e+00
  1.302213e+01    6.656537e+00
  1.303800e+01    7.670110e+00
  1.305388e+01    8.877904e+00
  1.306975e+01    1.010526e+01
  1.308563e+01    1.130492e+01
  1.310150e+01    1.255073e+01
  1.311738e+01    1.371706e+01
  1.313326e+01    1.478547e+01
  1.314913e+01    1.557812e+01
  1.316501e+01    1.616190e+01
  1.318088e+01    1.639427e+01
  1.319676e+01    1.566413e+01
  1.321263e+01    1.417655e+01
  1.322851e+01    1.243482e+01
  1.324438e+01    1.064828e+01
  1.326026e+01    9.088156e+00
  1.327614e+01    7.808378e+00
  1.329201e+01    6.799329e+00
  1.330789e+01    5.960239e+00
  1.332376e+01    5.311165e+00
  1.333964e+01    4.822747e+00
  1.335551e+01    4.424857e+00
  1.337139e+01    4.092015e+00
  1.338727e+01    3.816890e+00
  1.340314e+01    3.604349e+00
  1.341902e+01    3.457169e+00
  1.343489e+01    3.308302e+00
  1.345077e+01    3.200974e+00
  1.346664e+01    3.077332e+00
  1.348252e+01    3.059449e+00
  1.349839e+01    3.020271e+00
  1.351427e+01    2.927534e+00
  1.353015e+01    2.869590e+00
  1.354602e+01    2.874901e+00
  1.356190e+01    2.803684e+00
  1.357777e+01    2.699787e+00
  1.359365e+01    2.710825e+00
  1.360952e+01    2.648795e+00
  1.362540e+01    2.614991e+00
  1.364127e+01    2.590562e+00
  1.365715e+01    2.605491e+00
  1.367303e+01    2.560848e+00
  1.368890e+01    2.538738e+00
  1.370478e+01    2.532756e+00
  1.372065e+01    2.531384e+00
  1.373653e+01    2.536888e+00
  1.375240e+01    2.520831e+00
  1.376828e+01    2.515049e+00
  1.378415e+01    2.542743e+00
  1.380003e+01    2.484908e+00
  1.381591e+01    2.497073e+00
  1.383178e+01    2.507101e+00
  1.384766e+01    2.473633e+00
  1.386353e+01    2.433145e+00
  1.387941e+01    2.438767e+00
  1.389528e+01    2.404998e+00
  1.391116e+01    2.425658e+00
  1.392703e+01    2.422102e+00
  1.394291e+01    2.407705e+00
  1.395879e+01    2.356929e+00
  1.397466e+01    2.358763e+00
  1.399054e+01    2.368190e+00
  1.400641e+01    2.374663e+00
  1.402229e+01    2.321798e+00
  1.403816e+01    2.348572e+00
  1.405404e+01    2.340546e+00
  1.406991e+01    2.346144e+00
  1.408579e+01    2.358301e+00
  1.410167e+01    2.279842e+00
  1.411754e+01    2.276629e+00
  1.413342e+01    2.315654e+00
  1.414929e+01    2.351229e+00
  1.416517e+01    2.319118e+00
  1.418104e+01    2.296485e+00
  1.419692e+01    2.275797e+00
  1.421279e+01    2.304280e+00
  1.422867e+01    2.286805e+00
  1.424455e+01    2.318844e+00
  1.426042e+01    2.244255e+00
  1.427630e+01    2.213874e+00
  1.429217e+01    2.269757e+00
  1.430805e+01    2.265630e+00
  1.432392e+01    2.265727e+00
  1.433980e+01    2.262084e+00
  1.435568e+01    2.241113e+00
  1.437155e+01    2.219536e+00
  1.438743e+01    2.209523e+00
  1.440330e+01    2.230859e+00
  1.441918e+01    2.211719e+00
  1.443505e+01    2.216861e+00
  1.445093e+01    2.239020e+00
  1.446680e+01    2.193578e+00
  1.448268e+01    2.158430e+00
  1.449856e+01    2.215638e+00
  1.451443e+01    2.213331e+00
  1.453031e+01    2.219982e+00
  1.454618e+01    2.209599e+00
  1.456206e+01    2.208266e+00
  1.457793e+01    2.222918e+00
  1.459381e+01    2.232919e+00
  1.460968e+01    2.205833e+00
  1.462556e+01    2.215997e+00
  1.464144e+01    2.231464e+00
  1.465731e+01    2.241145e+00
  1.467319e+01    2.199433e+00
  1.468906e+01    2.134825e+00
  1.470494e+01    2.140082e+00
  1.472081e+01    2.149837e+00
  1.473669e+01    2.157835e+00
  1.475256e+01    2.183841e+00
  1.476844e+01    2.186610e+00
  1.478432e+01    2.167355e+00
  1.480019e+01    2.210067e+00
  1.481607e+01    2.192314e+00
  1.483194e+01    2.217591e+00
  1.484782e+01    2.262412e+00
  1.486369e+01    2.215460e+00
  1.487957e+01    2.193070e+00
  1.489544e+01    2.209156e+00
  1.491132e+01    2.282502e+00
  1.492720e+01    2.274240e+00
  1.494307e+01    2.279505e+00
  1.495895e+01    2.291883e+00
  1.497482e+01    2.279822e+00
  1.499070e+01    2.353008e+00
  1.500657e+01    2.408194e+00
  1.502245e+01    2.463682e+00
  1.503832e+01    2.548415e+00
  1.505420e+01    2.634969e+00
  1.507008e+01    2.838453e+00
  1.508595e+01    2.968298e+00
  1.510183e+01    3.210107e+00
  1.511770e+01    3.480797e+00
  1.513358e+01    3.798740e+00
  1.514945e+01    4.099959e+00
  1.516533e+01    4.502821e+00
  1.518120e+01    4.851131e+00
  1.519708e+01    5.140321e+00
  1.521296e+01    5.433627e+00
  1.522883e+01    5.588713e+00
  1.524471e+01    5.694134e+00
  1.526058e+01    5.730957e+00
  1.527646e+01    5.625308e+00
  1.529233e+01    5.366949e+00
  1.530821e+01    5.084348e+00
  1.532409e+01    4.676221e+00
  1.533996e+01    4.173151e+00
  1.535584e+01    3.696517e+00
  1.537171e+01    3.382204e+00
  1.538759e+01    3.150112e+00
  1.540346e+01    2.894298e+00
  1.541934e+01    2.699862e+00
  1.543521e+01    2.613499e+00
  1.545109e+01    2.488389e+00
  1.546697e+01    2.405244e+00
  1.548284e+01    2.380090e+00
  1.549872e+01    2.345188e+00
  1.551459e+01    2.266499e+00
  1.553047e+01    2.227497e+00
  1.554634e+01    2.174654e+00
  1.556222e+01    2.144865e+00
  1.557809e+01    2.101034e+00
  1.559397e+01    2.118998e+00
  1.560985e+01    2.130605e+00
  1.562572e+01    2.082115e+00
  1.564160e+01    2.042684e+00
  1.565747e+01    2.009176e+00
  1.567335e+01    1.977469e+00
  1.568922e+01    1.959997e+00
  1.570510e+01    2.006470e+00
  1.572097e+01    1.985743e+00
  1.573685e+01    1.968545e+00
  1.575273e+01    1.950509e+00
  1.576860e+01    1.946474e+00
  1.578448e+01    1.912380e+00
  1.580035e+01    1.931396e+00
  1.581623e+01    1.912141e+00
  1.583210e+01    1.898492e+00
  1.584798e+01    1.913753e+00
  1.586385e+01    1.906540e+00
  1.587973e+01    1.936333e+00
  1.589561e+01    1.925724e+00
  1.591148e+01    1.900752e+00
  1.592736e+01    1.882271e+00
  1.594323e+01    1.869769e+00
  1.595911e+01    1.885378e+00
  1.597498e+01    1.880523e+00
  1.599086e+01    1.874217e+00
  1.600673e+01    1.862904e+00
  1.602261e+01    1.852795e+00
  1.603849e+01    1.872089e+00
  1.605436e+01    1.890052e+00
  1.607024e+01    1.888743e+00
  1.608611e+01    1.853247e+00
  1.610199e+01    1.836107e+00
  1.611786e+01    1.832639e+00
  1.613374e+01    1.852137e+00
  1.614961e+01    1.862215e+00
  1.616549e+01    1.804088e+00
  1.618137e+01    1.831311e+00
  1.619724e+01    1.825156e+00
  1.621312e+01    1.837774e+00
  1.622899e+01    1.835590e+00
  1.624487e+01    1.837148e+00
  1.626074e+01    1.782063e+00
  1.627662e+01    1.790677e+00
  1.629250e+01    1.818551e+00
  1.630837e+01    1.812931e+00
  1.632425e+01    1.821181e+00
  1.634012e+01    1.796333e+00
  1.635600e+01    1.814847e+00
  1.637187e+01    1.760839e+00
  1.638775e+01    1.768184e+00
  1.640362e+01    1.779533e+00
  1.641950e+01    1.781708e+00
  1.643538e+01    1.799089e+00
  1.645125e+01    1.795063e+00
  1.646713e+01    1.766260e+00
  1.648300e+01    1.752341e+00
  1.649888e+01    1.737443e+00
  1.651475e+01    1.720056e+00
  1.653063e+01    1.753602e+00
  1.654650e+01    1.725098e+00
  1.656238e+01    1.732592e+00
  1.657826e+01    1.732245e+00
  1.659413e+01    1.692766e+00
  1.661001e+01    1.758858e+00
  1.662588e+01    1.746680e+00
  1.664176e+01    1.706483e+00
  1.665763e+01    1.726664e+00
  1.667351e+01    1.734308e+00
  1.668938e+01    1.707426e+00
  1.670526e+01    1.711960e+00
  1.672114e+01    1.699506e+00
  1.673701e+01    1.696286e+00
  1.675289e+01    1.719681e+00
  1.676876e+01    1.722773e+00
  1.678464e+01    1.693669e+00
  1.680051e+01    1.690995e+00
  1.681639e+01    1.689390e+00
  1.683226e+01    1.700957e+00
  1.684814e+01    1.718677e+00
  1.686402e+01    1.710861e+00
  1.687989e+01    1.693722e+00
  1.689577e+01    1.686175e+00
  1.691164e+01    1.686553e+00
  1.692752e+01    1.667019e+00
  1.694339e+01    1.670127e+00
  1.695927e+01    1.659884e+00
  1.697514e+01    1.650379e+00
  1.699102e+01    1.633485e+00
  1.700690e+01    1.662040e+00
  1.702277e+01    1.649421e+00
  1.703865e+01    1.658999e+00
  1.705452e+01    1.665811e+00
  1.707040e+01    1.657960e+00
  1.708627e+01    1.660640e+00
  1.710215e+01    1.658101e+00
  1.711802e+01    1.651677e+00
  1.713390e+01    1.689760e+00
  1.714978e+01    1.677947e+00
  1.716565e+01    1.664123e+00
  1.718153e+01    1.657187e+00
  1.719740e+01    1.638873e+00
  1.721328e+01    1.656457e+00
  1.722915e+01    1.622528e+00
  1.724503e+01    1.596166e+00
  1.726091e+01    1.639386e+00
  1.727678e+01    1.604029e+00
  1.729266e+01    1.626480e+00
  1.730853e+01    1.604798e+00
  1.732441e+01    1.595625e+00
  1.734028e+01    1.611781e+00
  1.735616e+01    1.597713e+00
  1.737203e+01    1.566798e+00
  1.738791e+01    1.571084e+00
  1.740379e+01    1.582451e+00
  1.741966e+01    1.632703e+00
  1.743554e+01    1.608281e+00
  1.745141e+01    1.597935e+00
  1.746729e+01    1.587218e+00
  1.748316e+01    1.584009e+00
  1.749904e+01    1.583651e+00
  1.751491e+01    1.598201e+00
  1.753079e+01    1.576184e+00
  1.754667e+01    1.590425e+00
  1.756254e+01    1.586859e+00
  1.757842e+01    1.570997e+00
  1.759429e+01    1.586682e+00
  1.761017e+01    1.589937e+00
  1.762604e+01    1.558583e+00
  1.764192e+01    1.536617e+00
  1.765779e+01    1.559067e+00
  1.767367e+01    1.534310e+00
  1.768955e+01    1.525050e+00
  1.770542e+01    1.564545e+00
  1.772130e+01    1.510996e+00
  1.773717e+01    1.534910e+00
  1.775305e+01    1.580848e+00
  1.776892e+01    1.554939e+00
  1.778480e+01    1.523817e+00
  1.780067e+01    1.498483e+00
  1.781655e+01    1.539384e+00
  1.783243e+01    1.558283e+00
  1.784830e+01    1.557483e+00
  1.786418e+01    1.560037e+00
  1.788005e+01    1.536116e+00
  1.789593e+01    1.525163e+00
  1.791180e+01    1.528008e+00
  1.792768e+01    1.510216e+00
  1.794355e+01    1.515064e+00
  1.795943e+01    1.515750e+00
  1.797531e+01    1.512928e+00
  1.799118e+01    1.488240e+00
  1.800706e+01    1.474048e+00
  1.802293e+01    1.478135e+00
  1.803881e+01    1.483056e+00
  1.805468e+01    1.504462e+00
  1.807056e+01    1.480249e+00
  1.808643e+01    1.507514e+00
  1.810231e+01    1.517930e+00
  1.811819e+01    1.490859e+00
  1.813406e+01    1.473752e+00
  1.814994e+01    1.479190e+00
  1.816581e+01    1.482952e+00
  1.818169e+01    1.496255e+00
  1.819756e+01    1.477045e+00
  1.821344e+01    1.449219e+00
  1.822932e+01    1.492068e+00
  1.824519e+01    1.461234e+00
  1.826107e+01    1.438164e+00
  1.827694e+01    1.427436e+00
  1.829282e+01    1.482125e+00
  1.830869e+01    1.467129e+00
  1.832457e+01    1.494539e+00
  1.834044e+01    1.457788e+00
  1.835632e+01    1.429867e+00
  1.837220e+01    1.428469e+00
  1.838807e+01    1.464353e+00
  1.840395e+01    1.462752e+00
  1.841982e+01    1.448002e+00
  1.843570e+01    1.437276e+00
  1.845157e+01    1.443485e+00
  1.846745e+01    1.439125e+00
  1.848332e+01    1.392796e+00
  1.849920e+01    1.437514e+00
  1.851508e+01    1.431634e+00
  1.853095e+01    1.431704e+00
  1.854683e+01    1.447076e+00
  1.856270e+01    1.441068e+00
  1.857858e+01    1.407639e+00
  1.859445e+01    1.439142e+00
  1.861033e+01    1.465271e+00
  1.862620e+01    1.429707e+00
  1.864208e+01    1.399197e+00
  1.865796e+01    1.399029e+00
  1.867383e+01    1.418046e+00
  1.868971e+01    1.396292e+00
  1.870558e+01    1.397478e+00
  1.872146e+01    1.407749e+00
  1.873733e+01    1.408436e+00
  1.875321e+01    1.425628e+00
  1.876908e+01    1.433757e+00
  1.878496e+01    1.432438e+00
  1.880084e+01    1.415845e+00
  1.881671e+01    1.414692e+00
  1.883259e+01    1.410693e+00
  1.884846e+01    1.427608e+00
  1.886434e+01    1.400441e+00
  1.888021e+01    1.373130e+00
  1.889609e+01    1.388637e+00
  1.891196e+01    1.369669e+00
  1.892784e+01    1.368480e+00
  1.894372e+01    1.385353e+00
  1.895959e+01    1.365112e+00
  1.897547e+01    1.381570e+00
  1.899134e+01    1.400703e+00
  1.900722e+01    1.396137e+00
  1.902309e+01    1.372750e+00
  1.903897e+01    1.360648e+00
  1.905484e+01    1.365630e+00
  1.907072e+01    1.406327e+00
  1.908660e+01    1.382639e+00
  1.910247e+01    1.359083e+00
  1.911835e+01    1.337355e+00
  1.913422e+01    1.336196e+00
  1.915010e+01    1.361660e+00
  1.916597e+01    1.352611e+00
  1.918185e+01    1.328410e+00
  1.919773e+01    1.348829e+00
  1.921360e+01    1.345461e+00
  1.922948e+01    1.363017e+00
  1.924535e+01    1.362718e+00
  1.926123e+01    1.358450e+00
  1.927710e+01    1.347855e+00
  1.929298e+01    1.326374e+00
  1.930885e+01    1.363911e+00
  1.932473e+01    1.357256e+00
  1.934061e+01    1.330592e+00
  1.935648e+01    1.358774e+00
  1.937236e+01    1.322144e+00
  1.938823e+01    1.331388e+00
  1.940411e+01    1.348808e+00
  1.941998e+01    1.368536e+00
  1.943586e+01    1.350605e+00
  1.945173e+01    1.324717e+00
  1.946761e+01    1.320759e+00
  1.948349e+01    1.337267e+00
  1.949936e+01    1.337318e+00
  1.951524e+01    1.311873e+00
  1.953111e+01    1.310059e+00
  1.954699e+01    1.337430e+00
  1.956286e+01    1.350691e+00
  1.957874e+01    1.335821e+00
  1.959461e+01    1.315372e+00
  1.961049e+01    1.299401e+00
  1.962637e+01    1.295877e+00
  1.964224e+01    1.310003e+00
  1.965812e+01    1.309547e+00
  1.967399e+01    1.312790e+00
  1.968987e+01    1.306804e+00
  1.970574e+01    1.293055e+00
  1.972162e+01    1.325009e+00
  1.973749e+01    1.323647e+00
  1.975337e+01    1.296082e+00
  1.976925e+01    1.306264e+00
  1.978512e+01    1.312099e+00
  1.980100e+01    1.318458e+00
  1.981687e+01    1.316275e+00
  1.983275e+01    1.313419e+00
  1.984862e+01    1.308619e+00
  1.986450e+01    1.275468e+00
  1.988037e+01    1.256979e+00
  1.989625e+01    1.285184e+00
  1.991213e+01    1.293827e+00
  1.992800e+01    1.263532e+00
  1.994388e+01    1.259132e+00
  1.995975e+01    1.283418e+00
  1.997563e+01    1.312776e+00
  1.999150e+01    1.299539e+00
  2.000738e+01    1.279838e+00
  2.002325e+01    1.269104e+00
  2.003913e+01    1.271164e+00
  2.005501e+01    1.251463e+00
  2.007088e+01    1.258829e+00
  2.008676e+01    1.266402e+00
  2.010263e+01    1.280716e+00
  2.011851e+01    1.258821e+00
  2.013438e+01    1.284198e+00
  2.015026e+01    1.264604e+00
  2.016614e+01    1.245338e+00
  2.018201e+01    1.266745e+00
  2.019789e+01    1.272188e+00
  2.021376e+01    1.250346e+00
  2.022964e+01    1.243398e+00
  2.024551e+01    1.246658e+00
  2.026139e+01    1.266446e+00
  2.027726e+01    1.257105e+00
  2.029314e+01    1.237292e+00
  2.030902e+01    1.267959e+00
  2.032489e+01    1.266004e+00
  2.034077e+01    1.241907e+00
  2.035664e+01    1.267299e+00
  2.037252e+01    1.258940e+00
  2.038839e+01    1.250169e+00
  2.040427e+01    1.268536e+00
  2.042014e+01    1.253466e+00
  2.043602e+01    1.242220e+00
  2.045190e+01    1.244053e+00
  2.046777e+01    1.249772e+00
  2.048365e+01    1.241121e+00
  2.049952e+01    1.231923e+00
  2.051540e+01    1.234043e+00
  2.053127e+01    1.259338e+00
  2.054715e+01    1.254095e+00
  2.056302e+01    1.267480e+00
  2.057890e+01    1.257870e+00
  2.059478e+01    1.264812e+00
  2.061065e+01    1.249335e+00
  2.062653e+01    1.228477e+00
  2.064240e+01    1.236809e+00
  2.065828e+01    1.238408e+00
  2.067415e+01    1.219032e+00
  2.069003e+01    1.241084e+00
  2.070590e+01    1.221759e+00
  2.072178e+01    1.214980e+00
  2.073766e+01    1.226894e+00
  2.075353e+01    1.248927e+00
  2.076941e+01    1.216768e+00
  2.078528e+01    1.236120e+00
  2.080116e+01    1.223962e+00
  2.081703e+01    1.214785e+00
  2.083291e+01    1.223610e+00
  2.084878e+01    1.212012e+00
  2.086466e+01    1.221371e+00
  2.088054e+01    1.223762e+00
  2.089641e+01    1.236699e+00
  2.091229e+01    1.212631e+00
  2.092816e+01    1.204990e+00
  2.094404e+01    1.238713e+00
  2.095991e+01    1.219967e+00
  2.097579e+01    1.191926e+00
  2.099166e+01    1.186930e+00
  2.100754e+01    1.206381e+00
  2.102342e+01    1.232116e+00
  2.103929e+01    1.235608e+00
  2.105517e+01    1.247526e+00
  2.107104e+01    1.231335e+00
  2.108692e+01    1.218136e+00
  2.110279e+01    1.218437e+00
  2.111867e+01    1.197076e+00
  2.113455e+01    1.219311e+00
  2.115042e+01    1.228213e+00
  2.116630e+01    1.240842e+00
  2.118217e+01    1.227934e+00
  2.119805e+01    1.217926e+00
  2.121392e+01    1.230054e+00
  2.122980e+01    1.238301e+00
  2.124567e+01    1.228904e+00
  2.126155e+01    1.252383e+00
  2.127743e+01    1.265520e+00
  2.129330e+01    1.265155e+00
  2.130918e+01    1.286299e+00
  2.132505e+01    1.305352e+00
  2.134093e+01    1.282068e+00
  2.135680e+01    1.282511e+00
  2.137268e+01    1.287217e+00
  2.138855e+01    1.303625e+00
  2.140443e+01    1.314536e+00
  2.142031e+01    1.333242e+00
  2.143618e+01    1.343439e+00
  2.145206e+01    1.337769e+00
  2.146793e+01    1.333571e+00
  2.148381e+01    1.369756e+00
  2.149968e+01    1.399259e+00
  2.151556e+01    1.436270e+00
  2.153143e+01    1.457620e+00
  2.154731e+01    1.498996e+00
  2.156319e+01    1.553668e+00
  2.157906e+01    1.601209e+00
  2.159494e+01    1.679430e+00
  2.161081e+01    1.769934e+00
  2.162669e+01    1.835746e+00
  2.164256e+01    1.942856e+00
  2.165844e+01    2.084209e+00
  2.167431e+01    2.259391e+00
  2.169019e+01    2.497757e+00
  2.170607e+01    2.729617e+00
  2.172194e+01    3.081617e+00
  2.173782e+01    3.497230e+00
  2.175369e+01    3.997117e+00
  2.176957e+01    4.549229e+00
  2.178544e+01    5.140987e+00
  2.180132e+01    5.770561e+00
  2.181719e+01    6.472535e+00
  2.183307e+01    7.126889e+00
  2.184895e+01    7.789944e+00
  2.186482e+01    8.354360e+00
  2.188070e+01    8.750635e+00
  2.189657e+01    8.811673e+00
  2.191245e+01    8.642964e+00
  2.192832e+01    8.258245e+00
  2.194420e+01    7.475306e+00
  2.196007e+01    6.536952e+00
  2.197595e+01    5.645139e+00
  2.199183e+01    4.863812e+00
  2.200770e+01    4.179260e+00
  2.202358e+01    3.645262e+00
  2.203945e+01    3.213467e+00
  2.205533e+01    2.854630e+00
  2.207120e+01    2.549128e+00
  2.208708e+01    2.342026e+00
  2.210296e+01    2.136805e+00
  2.211883e+01    1.938842e+00
  2.213471e+01    1.836723e+00
  2.215058e+01    1.783575e+00
  2.216646e+01    1.678761e+00
  2.218233e+01    1.616591e+00
  2.219821e+01    1.542777e+00
  2.221408e+01    1.507021e+00
  2.222996e+01    1.473623e+00
  2.224584e+01    1.421701e+00
  2.226171e+01    1.391981e+00
  2.227759e+01    1.348015e+00
  2.229346e+01    1.333659e+00
  2.230934e+01    1.295841e+00
  2.232521e+01    1.264515e+00
  2.234109e+01    1.254341e+00
  2.235696e+01    1.232443e+00
  2.237284e+01    1.249249e+00
  2.238872e+01    1.217057e+00
  2.240459e+01    1.191445e+00
  2.242047e+01    1.175497e+00
  2.243634e+01    1.192919e+00
  2.245222e+01    1.178602e+00
  2.246809e+01    1.163421e+00
  2.248397e+01    1.161891e+00
  2.249984e+01    1.163311e+00
  2.251572e+01    1.133234e+00
  2.253160e+01    1.136399e+00
  2.254747e+01    1.113477e+00
  2.256335e+01    1.132069e+00
  2.257922e+01    1.106637e+00
  2.259510e+01    1.098821e+00
  2.261097e+01    1.122640e+00
  2.262685e+01    1.089111e+00
  2.264272e+01    1.086481e+00
  2.265860e+01    1.097860e+00
  2.267448e+01    1.095282e+00
  2.269035e+01    1.081749e+00
  2.270623e+01    1.082291e+00
  2.272210e+01    1.069695e+00
  2.273798e+01    1.046258e+00
  2.275385e+01    1.045472e+00
  2.276973e+01    1.060609e+00
  2.278560e+01    1.054652e+00
  2.280148e+01    1.059548e+00
  2.281736e+01    1.049217e+00
  2.283323e+01    1.031410e+00
  2.284911e+01    1.045403e+00
  2.286498e+01    1.027170e+00
  2.288086e+01    1.015893e+00
  2.289673e+01    1.039113e+00
  2.291261e+01    1.037868e+00
  2.292848e+01    1.019856e+00
  2.294436e+01    1.029243e+00
  2.296024e+01    1.026031e+00
  2.297611e+01    1.036941e+00
  2.299199e+01    1.014840e+00
  2.300786e+01    1.019769e+00
  2.302374e+01    1.003117e+00
  2.303961e+01    9.808763e-01
  2.305549e+01    1.001866e+00
  2.307137e+01    1.003237e+00
  2.308724e+01    1.025635e+00
  2.310312e+01    1.013512e+00
  2.311899e+01    9.872616e-01
  2.313487e+01    1.006373e+00
  2.315074e+01    1.001624e+00
  2.316662e+01    1.007030e+00
  2.318249e+01    9.964775e-01
  2.319837e+01    9.899181e-01
  2.321425e+01    9.951883e-01
  2.323012e+01    9.915019e-01
  2.324600e+01    9.881321e-01
  2.326187e+01    9.981282e-01
  2.327775e+01    9.843107e-01
  2.329362e+01    9.779899e-01
  2.330950e+01    9.732943e-01
  2.332537e+01    9.826781e-01
  2.334125e+01    9.812260e-01
  2.335713e+01    9.683440e-01
  2.337300e+01    9.804120e-01
  2.338888e+01    9.979791e-01
  2.340475e+01    9.527988e-01
  2.342063e+01    9.742920e-01
  2.343650e+01    9.701300e-01
  2.345238e+01    9.794240e-01
  2.346825e+01    9.503365e-01
  2.348413e+01    9.668253e-01
  2.350001e+01    9.377252e-01
  2.351588e+01    9.371467e-01
  2.353176e+01    9.621836e-01
  2.354763e+01    9.857187e-01
  2.356351e+01    9.737115e-01
  2.357938e+01    9.727555e-01
  2.359526e+01    9.863939e-01
  2.361113e+01    9.807876e-01
  2.362701e+01    9.601259e-01
  2.364289e+01    9.407203e-01
  2.365876e+01    9.556801e-01
  2.367464e+01    9.540357e-01
  2.369051e+01    9.421452e-01
  2.370639e+01    9.511698e-01
  2.372226e+01    9.430704e-01
  2.373814e+01    9.371738e-01
  2.375401e+01    9.380835e-01
  2.376989e+01    9.403955e-01
  2.378577e+01    9.271622e-01
  2.380164e+01    9.293462e-01
  2.381752e+01    9.078478e-01
  2.383339e+01    9.060626e-01
  2.384927e+01    9.329192e-01
  2.386514e+01    9.251615e-01
  2.388102e+01    9.357269e-01
  2.389689e+01    9.352472e-01
  2.391277e+01    9.111404e-01
  2.392865e+01    8.974724e-01
  2.394452e+01    8.880918e-01
  2.396040e+01    9.040235e-01
  2.397627e+01    8.997356e-01
  2.399215e+01    8.911214e-01
  2.400802e+01    8.878800e-01
  2.402390e+01    8.946208e-01
  2.403978e+01    9.050916e-01
  2.405565e+01    8.852189e-01
  2.407153e+01    8.872437e-01
  2.408740e+01    8.719994e-01
  2.410328e+01    8.962158e-01
  2.411915e+01    8.880945e-01
  2.413503e+01    8.817173e-01
  2.415090e+01    9.077126e-01
  2.416678e+01    8.955509e-01
  2.418266e+01    8.770036e-01
  2.419853e+01    8.772115e-01
  2.421441e+01    8.791533e-01
  2.423028e+01    8.806725e-01
  2.424616e+01    8.783252e-01
  2.426203e+01    9.079377e-01
  2.427791e+01    8.926395e-01
  2.429378e+01    8.821946e-01
  2.430966e+01    8.792365e-01
  2.432554e+01    8.639950e-01
  2.434141e+01    9.023406e-01
  2.435729e+01    8.972753e-01
  2.437316e+01    8.813221e-01
  2.438904e+01    8.941681e-01
  2.440491e+01    8.788483e-01
  2.442079e+01    8.923556e-01
  2.443666e+01    8.930891e-01
  2.445254e+01    8.936960e-01
  2.446842e+01    9.013170e-01
  2.448429e+01    8.874567e-01
  2.450017e+01    8.794937e-01
  2.451604e+01    8.937566e-01
  2.453192e+01    8.973761e-01
  2.454779e+01    8.865659e-01
  2.456367e+01    8.881298e-01
  2.457954e+01    9.061732e-01
  2.459542e+01    8.948251e-01
  2.461130e+01    8.970425e-01
  2.462717e+01    8.983796e-01
  2.464305e+01    8.908633e-01
  2.465892e+01    9.079506e-01
  2.467480e+01    8.820673e-01
  2.469067e+01    8.800715e-01
  2.470655e+01    8.874092e-01
  2.472242e+01    8.928267e-01
  2.473830e+01    8.776199e-01
  2.475418e+01    8.944473e-01
  2.477005e+01    9.008936e-01
  2.478593e+01    8.926938e-01
  2.480180e+01    8.936082e-01
  2.481768e+01    8.838359e-01
  2.483355e+01    8.768596e-01
  2.484943e+01    8.963199e-01
  2.486530e+01    9.102744e-01
  2.488118e+01    8.941458e-01
  2.489706e+01    8.770862e-01
  2.491293e+01    8.715028e-01
  2.492881e+01    8.864819e-01
  2.494468e+01    8.704355e-01
  2.496056e+01    8.682245e-01
  2.497643e+01    8.756060e-01
  2.499231e+01    8.713976e-01
  2.500819e+01    8.852204e-01
  2.502406e+01    8.980432e-01
  2.503994e+01    8.941405e-01
  2.505581e+01    8.960012e-01
  2.507169e+01    8.990087e-01
  2.508756e+01    8.973557e-01
  2.510344e+01    8.956149e-01
  2.511931e+01    9.041195e-01
  2.513519e+01    9.190539e-01
  2.515107e+01    9.164418e-01
  2.516694e+01    9.142473e-01
  2.518282e+01    9.361888e-01
  2.519869e+01    9.331161e-01
  2.521457e+01    9.213495e-01
  2.523044e+01    9.293803e-01
  2.524632e+01    9.483566e-01
  2.526219e+01    9.587355e-01
  2.527807e+01    9.514954e-01
  2.529395e+01    9.531538e-01
  2.530982e+01    9.330316e-01
  2.532570e+01    9.659307e-01
  2.534157e+01    9.757725e-01
  2.535745e+01    9.565414e-01
  2.537332e+01    9.586326e-01
  2.538920e+01    9.831332e-01
  2.540507e+01    9.986410e-01
  2.542095e+01    1.016762e+00
  2.543683e+01    1.017415e+00
  2.545270e+01    1.003804e+00
  2.546858e+01    1.013352e+00
  2.548445e+01    1.032127e+00
  2.550033e+01    1.028083e+00
  2.551620e+01    1.058689e+00
  2.553208e+01    1.080684e+00
  2.554795e+01    1.109366e+00
  2.556383e+01    1.139066e+00
  2.557971e+01    1.144399e+00
  2.559558e+01    1.191162e+00
  2.561146e+01    1.202396e+00
  2.562733e+01    1.241015e+00
  2.564321e+01    1.290898e+00
  2.565908e+01    1.350565e+00
  2.567496e+01    1.423848e+00
  2.569083e+01    1.519457e+00
  2.570671e+01    1.602711e+00
  2.572259e+01    1.706151e+00
  2.573846e+01    1.806375e+00
  2.575434e+01    1.993168e+00
  2.577021e+01    2.221397e+00
  2.578609e+01    2.459454e+00
  2.580196e+01    2.753250e+00
  2.581784e+01    3.140376e+00
  2.583371e+01    3.602705e+00
  2.584959e+01    4.096360e+00
  2.586547e+01    4.619861e+00
  2.588134e+01    5.117845e+00
  2.589722e+01    5.771163e+00
  2.591309e+01    6.325553e+00
  2.592897e+01    6.693889e+00
  2.594484e+01    6.988183e+00
  2.596072e+01    7.129244e+00
  2.597660e+01    6.910724e+00
  2.599247e+01    6.447972e+00
  2.600835e+01    5.943949e+00
  2.602422e+01    5.291426e+00
  2.604010e+01    4.631159e+00
  2.605597e+01    4.013217e+00
  2.607185e+01    3.461113e+00
  2.608772e+01    2.990837e+00
  2.610360e+01    2.696852e+00
  2.611948e+01    2.372793e+00
  2.613535e+01    2.114095e+00
  2.615123e+01    1.958606e+00
  2.616710e+01    1.815418e+00
  2.618298e+01    1.701197e+00
  2.619885e+01    1.603177e+00
  2.621473e+01    1.496926e+00
  2.623060e+01    1.408187e+00
  2.624648e+01    1.367799e+00
  2.626236e+01    1.314709e+00
  2.627823e+01    1.232272e+00
  2.629411e+01    1.201362e+00
  2.630998e+01    1.176894e+00
  2.632586e+01    1.149811e+00
  2.634173e+01    1.114230e+00
  2.635761e+01    1.076178e+00
  2.637348e+01    1.083950e+00
  2.638936e+01    1.069758e+00
  2.640524e+01    1.055201e+00
  2.642111e+01    1.035198e+00
  2.643699e+01    1.015194e+00
  2.645286e+01    1.054942e+00
  2.646874e+01    1.051288e+00
  2.648461e+01    1.007642e+00
  2.650049e+01    9.995638e-01
  2.651636e+01    1.002069e+00
  2.653224e+01    1.006482e+00
  2.654812e+01    9.882478e-01
  2.656399e+01    9.879016e-01
  2.657987e+01    1.008180e+00
  2.659574e+01    9.848331e-01
  2.661162e+01    9.729416e-01
  2.662749e+01    9.916295e-01
  2.664337e+01    9.778091e-01
  2.665924e+01    9.950703e-01
  2.667512e+01    9.927766e-01
  2.669100e+01    9.740874e-01
  2.670687e+01    9.740601e-01
  2.672275e+01    9.762015e-01
  2.673862e+01    9.582940e-01
  2.675450e+01    9.569073e-01
  2.677037e+01    9.662309e-01
  2.678625e+01    9.801508e-01
  2.680212e+01    9.780004e-01
  2.681800e+01    9.770730e-01
  2.683388e+01    9.824882e-01
  2.684975e+01    9.818194e-01
  2.686563e+01    9.600207e-01
  2.688150e+01    9.685273e-01
  2.689738e+01    9.680666e-01
  2.691325e+01    9.897473e-01
  2.692913e+01    1.006739e+00
  2.694501e+01    1.016150e+00
  2.696088e+01    1.042833e+00
  2.697676e+01    1.053271e+00
  2.699263e+01    1.085764e+00
  2.700851e+01    1.099879e+00
  2.702438e+01    1.151177e+00
  2.704026e+01    1.192168e+00
  2.705613e+01    1.255989e+00
  2.707201e+01    1.327934e+00
  2.708789e+01    1.379718e+00
  2.710376e+01    1.477115e+00
  2.711964e+01    1.606763e+00
  2.713551e+01    1.712172e+00
  2.715139e+01    1.829066e+00
  2.716726e+01    1.958987e+00
  2.718314e+01    2.049953e+00
  2.719901e+01    2.118795e+00
  2.721489e+01    2.159157e+00
  2.723077e+01    2.156502e+00
  2.724664e+01    2.057727e+00
  2.726252e+01    1.971741e+00
  2.727839e+01    1.801172e+00
  2.729427e+01    1.707267e+00
  2.731014e+01    1.560548e+00
  2.732602e+01    1.467041e+00
  2.734189e+01    1.365643e+00
  2.735777e+01    1.273223e+00
  2.737365e+01    1.218913e+00
  2.738952e+01    1.156963e+00
  2.740540e+01    1.112606e+00
  2.742127e+01    1.082879e+00
  2.743715e+01    1.063583e+00
  2.745302e+01    1.024050e+00
  2.746890e+01    1.009382e+00
  2.748477e+01    1.007204e+00
  2.750065e+01    9.929095e-01
  2.751653e+01    9.616382e-01
  2.753240e+01    9.403867e-01
  2.754828e+01    9.459431e-01
  2.756415e+01    9.457290e-01
  2.758003e+01    9.200907e-01
  2.759590e+01    8.928775e-01
  2.761178e+01    9.195480e-01
  2.762765e+01    9.068643e-01
  2.764353e+01    9.076602e-01
  2.765941e+01    9.115848e-01
  2.767528e+01    9.184133e-01
  2.769116e+01    8.996210e-01
  2.770703e+01    8.969182e-01
  2.772291e+01    8.934525e-01
  2.773878e+01    8.858486e-01
  2.775466e+01    9.030865e-01
  2.777054e+01    9.152656e-01
  2.778641e+01    8.736463e-01
  2.780229e+01    8.723447e-01
  2.781816e+01    8.968152e-01
  2.783404e+01    8.853473e-01
  2.784991e+01    9.012812e-01
  2.786579e+01    8.578435e-01
  2.788166e+01    8.626059e-01
  2.789754e+01    8.719399e-01
  2.791342e+01    8.571265e-01
  2.792929e+01    8.544204e-01
  2.794517e+01    8.627889e-01
  2.796104e+01    8.507937e-01
  2.797692e+01    8.679512e-01
  2.799279e+01    8.529781e-01
  2.800867e+01    8.543943e-01
  2.802454e+01    8.627849e-01
  2.804042e+01    8.479190e-01
  2.805630e+01    8.393207e-01
  2.807217e+01    8.460458e-01
  2.808805e+01    8.493591e-01
  2.810392e+01    8.387380e-01
  2.811980e+01    8.452083e-01
  2.813567e+01    8.692703e-01
  2.815155e+01    8.695244e-01
  2.816742e+01    8.670162e-01
  2.818330e+01    8.526651e-01
  2.819918e+01    8.328903e-01
  2.821505e+01    8.432833e-01
  2.823093e+01    8.478953e-01
  2.824680e+01    8.398223e-01
  2.826268e+01    8.554958e-01
  2.827855e+01    8.585325e-01
  2.829443e+01    8.364643e-01
  2.831030e+01    8.349096e-01
  2.832618e+01    8.559172e-01
  2.834206e+01    8.545701e-01
  2.835793e+01    8.373488e-01
  2.837381e+01    8.462709e-01
  2.838968e+01    8.333839e-01
  2.840556e+01    8.395071e-01
  2.842143e+01    8.300563e-01
  2.843731e+01    8.263655e-01
  2.845318e+01    8.163038e-01
  2.846906e+01    8.087517e-01
  2.848494e+01    8.149192e-01
  2.850081e+01    8.221760e-01
  2.851669e+01    8.299586e-01
  2.853256e+01    8.309989e-01
  2.854844e+01    8.318860e-01
  2.856431e+01    8.267426e-01
  2.858019e+01    8.371898e-01
  2.859606e+01    8.427980e-01
  2.861194e+01    8.424324e-01
  2.862782e+01    8.456088e-01
  2.864369e+01    8.571953e-01
  2.865957e+01    8.543827e-01
  2.867544e+01    8.439248e-01
  2.869132e+01    8.361655e-01
  2.870719e+01    8.503485e-01
  2.872307e+01    8.411438e-01
  2.873895e+01    8.333885e-01
  2.875482e+01    8.235126e-01
  2.877070e+01    8.232432e-01
  2.878657e+01    8.286561e-01
  2.880245e+01    8.438781e-01
  2.881832e+01    8.203277e-01
  2.883420e+01    8.313547e-01
  2.885007e+01    8.202564e-01
  2.886595e+01    8.097307e-01
  2.888183e+01    8.377978e-01
  2.889770e+01    8.187523e-01
  2.891358e+01    8.085312e-01
  2.892945e+01    8.284146e-01
  2.894533e+01    8.267988e-01
  2.896120e+01    8.235881e-01
  2.897708e+01    8.394396e-01
  2.899295e+01    8.303529e-01
  2.900883e+01    8.016215e-01
  2.902471e+01    8.121719e-01
  2.904058e+01    8.003737e-01
  2.905646e+01    8.080374e-01
  2.907233e+01    8.081230e-01
  2.908821e+01    8.018617e-01
  2.910408e+01    8.119323e-01
  2.911996e+01    8.309977e-01
  2.913583e+01    8.066134e-01
  2.915171e+01    8.106968e-01
  2.916759e+01    8.121601e-01
  2.918346e+01    8.258657e-01
  2.919934e+01    8.136267e-01
  2.921521e+01    8.161390e-01
  2.923109e+01    7.935781e-01
  2.924696e+01    8.159069e-01
  2.926284e+01    8.129225e-01
  2.927871e+01    8.075607e-01
  2.929459e+01    7.987042e-01
  2.931047e+01    8.150187e-01
  2.932634e+01    8.153960e-01
  2.934222e+01    8.081484e-01
  2.935809e+01    8.192918e-01
  2.937397e+01    8.012807e-01
  2.938984e+01    8.077586e-01
  2.940572e+01    7.925853e-01
  2.942159e+01    8.142534e-01
  2.943747e+01    8.166234e-01
  2.945335e+01    8.189026e-01
  2.946922e+01    7.985158e-01
  2.948510e+01    7.879760e-01
  2.950097e+01    8.077154e-01
  2.951685e+01    8.142707e-01
  2.953272e+01    8.049127e-01
  2.954860e+01    7.959611e-01
  2.956447e+01    7.923687e-01
  2.958035e+01    7.893950e-01
  2.959623e+01    7.926509e-01
  2.961210e+01    7.866164e-01
  2.962798e+01    7.894166e-01
  2.964385e+01    7.947021e-01
  2.965973e+01    7.840167e-01
  2.967560e+01    7.729753e-01
  2.969148e+01    7.948238e-01
  2.970736e+01    7.927759e-01
  2.972323e+01    7.731582e-01
  2.973911e+01    7.979615e-01
  2.975498e+01    7.920130e-01
  2.977086e+01    7.963036e-01
  2.978673e+01    7.996843e-01
  2.980261e+01    7.942364e-01
  2.981848e+01    7.980891e-01
  2.983436e+01    7.916155e-01
  2.985024e+01    7.893226e-01
  2.986611e+01    7.899709e-01
  2.988199e+01    7.980391e-01
  2.989786e+01    7.910797e-01
  2.991374e+01    7.853228e-01
  2.992961e+01    7.975137e-01
  2.994549e+01    7.921934e-01
  2.996136e+01    7.864370e-01
  2.997724e+01    7.868461e-01
  2.999312e+01    7.914324e-01
  3.000899e+01    7.990136e-01
  3.002487e+01    7.918078e-01
  3.004074e+01    8.167922e-01
  3.005662e+01    8.212503e-01
  3.007249e+01    8.283677e-01
  3.008837e+01    8.050851e-01
  3.010424e+01    7.783453e-01
  3.012012e+01    7.773739e-01
  3.013600e+01    8.016499e-01
  3.015187e+01    8.004566e-01
  3.016775e+01    7.906520e-01
  3.018362e+01    8.031836e-01
  3.019950e+01    8.022358e-01
  3.021537e+01    7.887036e-01
  3.023125e+01    7.858051e-01
  3.024712e+01    7.759004e-01
  3.026300e+01    7.957377e-01
  3.027888e+01    7.885128e-01
  3.029475e+01    7.931416e-01
  3.031063e+01    7.742195e-01
  3.032650e+01    7.643399e-01
  3.034238e+01    7.738329e-01
  3.035825e+01    7.696204e-01
  3.037413e+01    7.946863e-01
  3.039000e+01    7.875554e-01
  3.040588e+01    7.882291e-01
  3.042176e+01    7.922431e-01
  3.043763e+01    7.986957e-01
  3.045351e+01    7.855303e-01
  3.046938e+01    7.934588e-01
  3.048526e+01    7.754903e-01
  3.050113e+01    7.775769e-01
  3.051701e+01    7.743582e-01
  3.053288e+01    7.800294e-01
  3.054876e+01    7.841273e-01
  3.056464e+01    7.807040e-01
  3.058051e+01    7.670948e-01
  3.059639e+01    7.766746e-01
  3.061226e+01    7.781693e-01
  3.062814e+01    7.855213e-01
  3.064401e+01    7.935872e-01
  3.065989e+01    8.007243e-01
  3.067577e+01    7.992492e-01
  3.069164e+01    7.684205e-01
  3.070752e+01    7.849409e-01
  3.072339e+01    7.844155e-01
  3.073927e+01    7.767566e-01
  3.075514e+01    7.759755e-01
  3.077102e+01    7.582265e-01
  3.078689e+01    7.487636e-01
  3.080277e+01    7.692092e-01
  3.081865e+01    7.571093e-01
  3.083452e+01    7.562871e-01
  3.085040e+01    7.575682e-01
  3.086627e+01    7.790812e-01
  3.088215e+01    7.696244e-01
  3.089802e+01    7.746591e-01
  3.091390e+01    7.758319e-01
  3.092977e+01    7.754623e-01
  3.094565e+01    7.813705e-01
  3.096153e+01    7.777272e-01
  3.097740e+01    7.901765e-01
  3.099328e+01    7.753587e-01
  3.100915e+01    7.836449e-01
  3.102503e+01    7.854435e-01
  3.104090e+01    7.585014e-01
  3.105678e+01    7.791584e-01
  3.107265e+01    7.721089e-01
  3.108853e+01    7.823529e-01
  3.110441e+01    7.789584e-01
  3.112028e+01    7.729008e-01
  3.113616e+01    7.827514e-01
  3.115203e+01    7.864332e-01
  3.116791e+01    7.813715e-01
  3.118378e+01    7.838535e-01
  3.119966e+01    7.924824e-01
  3.121553e+01    7.928272e-01
  3.123141e+01    7.886945e-01
  3.124729e+01    7.886134e-01
  3.126316e+01    8.145953e-01
  3.127904e+01    7.885483e-01
  3.129491e+01    7.916365e-01
  3.131079e+01    7.837122e-01
  3.132666e+01    7.926944e-01
  3.134254e+01    8.113485e-01
  3.135841e+01    8.152684e-01
  3.137429e+01    7.882245e-01
  3.139017e+01    7.886420e-01
  3.140604e+01    7.911351e-01
  3.142192e+01    8.090270e-01
  3.143779e+01    8.164611e-01
  3.145367e+01    8.210930e-01
  3.146954e+01    8.222940e-01
  3.148542e+01    8.076150e-01
  3.150129e+01    8.006578e-01
  3.151717e+01    8.168972e-01
  3.153305e+01    8.419349e-01
  3.154892e+01    8.421491e-01
  3.156480e+01    8.710137e-01
  3.158067e+01    8.574296e-01
  3.159655e+01    8.721508e-01
  3.161242e+01    8.721701e-01
  3.162830e+01    8.930500e-01
  3.164418e+01    9.264672e-01
  3.166005e+01    9.401633e-01
  3.167593e+01    9.719073e-01
  3.169180e+01    1.002906e+00
  3.170768e+01    1.022899e+00
  3.172355e+01    1.064049e+00
  3.173943e+01    1.122751e+00
  3.175530e+01    1.180010e+00
  3.177118e+01    1.247128e+00
  3.178706e+01    1.314935e+00
  3.180293e+01    1.437849e+00
  3.181881e+01    1.560783e+00
  3.183468e+01    1.715575e+00
  3.185056e+01    1.845295e+00
  3.186643e+01    1.916022e+00
  3.188231e+01    2.003845e+00
  3.189818e+01    2.070847e+00
  3.191406e+01    2.026555e+00
  3.192994e+01    1.992020e+00
  3.194581e+01    1.924144e+00
  3.196169e+01    1.799273e+00
  3.197756e+01    1.666127e+00
  3.199344e+01    1.574019e+00
  3.200931e+01    1.398078e+00
  3.202519e+01    1.319466e+00
  3.204106e+01    1.236193e+00
  3.205694e+01    1.140065e+00
  3.207282e+01    1.093845e+00
  3.208869e+01    1.046259e+00
  3.210457e+01    1.014137e+00
  3.212044e+01    9.825860e-01
  3.213632e+01    9.190271e-01
  3.215219e+01    8.963991e-01
  3.216807e+01    9.142438e-01
  3.218394e+01    8.837661e-01
  3.219982e+01    8.765813e-01
  3.221570e+01    8.836525e-01
  3.223157e+01    8.544528e-01
  3.224745e+01    7.978113e-01
  3.226332e+01    8.209984e-01
  3.227920e+01    8.189536e-01
  3.229507e+01    7.980939e-01
  3.231095e+01    8.045023e-01
  3.232682e+01    7.900363e-01
  3.234270e+01    8.008713e-01
  3.235858e+01    7.752212e-01
  3.237445e+01    7.869523e-01
  3.239033e+01    7.878933e-01
  3.240620e+01    7.830778e-01
  3.242208e+01    8.114042e-01
  3.243795e+01    8.052912e-01
  3.245383e+01    7.657720e-01
  3.246970e+01    7.648720e-01
  3.248558e+01    7.691557e-01
  3.250146e+01    7.442788e-01
  3.251733e+01    7.589110e-01
  3.253321e+01    7.682934e-01
  3.254908e+01    7.547859e-01
