# == pyFAI calibration ==
# Distance Sample to Detector: 0.3999999939076516 m
# PONI: 9.750e-02, 1.135e-01 m
# Rotations: -0.000175 0.000000 -0.000000 rad
# 
# == Fit2d calibration ==
# Distance Sample-beamCenter: 400.000 mm
# Center: x=1514.000, y=1300.000 pix
# Tilt: 0.010 deg  TiltPlanRot: 0.010 deg
# 
# Detector Detector	 Spline= None	 PixelSize= 7.500e-05, 7.500e-05 m
#    Detector has a mask: False 
#    Detector has a dark current: False 
#    detector has a flat field: False 
# 
# Wavelength: 6.888e-11 m
# Mask applied: user provided
# Dark current applied: False
# Flat field applied: False
# Polarization factor: 0.99
# Normalization factor: 1.0
# --> /home/myspot/data/2024_07_Rosario/Ru-CGO-ex/2024-07-27_003_Ru-CGO-ex_Reaction_dwell_000023_data_000158.dat
#       q_nm^-1             I 
  2.003187e-02    0.000000e+00
  3.590745e-02    0.000000e+00
  5.178302e-02    4.717781e-02
  6.765859e-02    8.989549e-02
  8.353417e-02    7.000563e-02
  9.940974e-02    1.980205e-02
  1.152853e-01    0.000000e+00
  1.311609e-01    8.627106e-03
  1.470365e-01    6.203445e-02
  1.629120e-01    7.861511e-02
  1.787876e-01    7.275528e-02
  1.946632e-01    4.320200e-02
  2.105388e-01    1.602668e-02
  2.264143e-01    3.604227e-02
  2.422899e-01    1.070595e-01
  2.581655e-01    9.599955e-02
  2.740411e-01    4.776624e-02
  2.899166e-01    2.951574e-02
  3.057922e-01    1.981372e-02
  3.216678e-01    3.574713e-02
  3.375433e-01    6.062987e-02
  3.534189e-01    2.839228e-02
  3.692945e-01    5.071953e-02
  3.851701e-01    2.906176e-02
  4.010456e-01    6.710528e-02
  4.169212e-01    4.508677e-02
  4.327968e-01    3.150459e-02
  4.486724e-01    3.859240e-02
  4.645479e-01    2.196978e-02
  4.804235e-01    2.963178e-02
  4.962991e-01    2.437638e-02
  5.121747e-01    2.788384e-02
  5.280502e-01    4.000417e-02
  5.439258e-01    9.841679e-02
  5.598014e-01    6.255434e-02
  5.756770e-01    3.781030e-02
  5.915525e-01    5.345930e-02
  6.074281e-01    7.681800e-02
  6.233037e-01    8.604500e-02
  6.391793e-01    5.775056e-02
  6.550548e-01    3.438509e-02
  6.709304e-01    2.349476e-02
  6.868060e-01    5.799245e-02
  7.026815e-01    5.666985e-02
  7.185571e-01    4.690551e-02
  7.344327e-01    5.103667e-02
  7.503083e-01    4.903154e-02
  7.661838e-01    5.288622e-02
  7.820594e-01    9.345469e-02
  7.979350e-01    1.566640e-01
  8.138106e-01    2.399872e-01
  8.296861e-01    2.589873e-01
  8.455617e-01    3.209790e-01
  8.614373e-01    4.296508e-01
  8.773129e-01    4.946668e-01
  8.931884e-01    5.093447e-01
  9.090640e-01    5.429722e-01
  9.249396e-01    6.953345e-01
  9.408152e-01    8.423861e-01
  9.566907e-01    9.312559e-01
  9.725663e-01    1.004389e+00
  9.884419e-01    1.055200e+00
  1.004317e+00    1.190872e+00
  1.020193e+00    1.335958e+00
  1.036069e+00    1.369694e+00
  1.051944e+00    1.308826e+00
  1.067820e+00    1.461463e+00
  1.083695e+00    1.558465e+00
  1.099571e+00    1.593666e+00
  1.115446e+00    1.546377e+00
  1.131322e+00    1.556195e+00
  1.147198e+00    1.611478e+00
  1.163073e+00    1.647163e+00
  1.178949e+00    1.631641e+00
  1.194824e+00    1.744225e+00
  1.210700e+00    2.055706e+00
  1.226575e+00    2.319613e+00
  1.242451e+00    2.472430e+00
  1.258327e+00    2.403851e+00
  1.274202e+00    2.474803e+00
  1.290078e+00    2.484663e+00
  1.305953e+00    2.715908e+00
  1.321829e+00    2.861955e+00
  1.337705e+00    2.810282e+00
  1.353580e+00    2.817635e+00
  1.369456e+00    2.856484e+00
  1.385331e+00    2.827667e+00
  1.401207e+00    2.860399e+00
  1.417082e+00    2.902450e+00
  1.432958e+00    2.874929e+00
  1.448834e+00    3.074642e+00
  1.464709e+00    3.059683e+00
  1.480585e+00    3.051094e+00
  1.496460e+00    3.096317e+00
  1.512336e+00    3.280812e+00
  1.528211e+00    3.382177e+00
  1.544087e+00    3.300744e+00
  1.559963e+00    3.087036e+00
  1.575838e+00    3.091321e+00
  1.591714e+00    3.199970e+00
  1.607589e+00    3.113301e+00
  1.623465e+00    3.118277e+00
  1.639340e+00    3.059253e+00
  1.655216e+00    3.038152e+00
  1.671092e+00    2.934309e+00
  1.686967e+00    2.916088e+00
  1.702843e+00    3.112017e+00
  1.718718e+00    3.066742e+00
  1.734594e+00    3.060950e+00
  1.750469e+00    3.146277e+00
  1.766345e+00    3.162474e+00
  1.782221e+00    3.140131e+00
  1.798096e+00    3.195025e+00
  1.813972e+00    3.130946e+00
  1.829847e+00    3.164841e+00
  1.845723e+00    3.124505e+00
  1.861598e+00    3.142804e+00
  1.877474e+00    3.152442e+00
  1.893350e+00    2.894421e+00
  1.909225e+00    2.831297e+00
  1.925101e+00    2.954279e+00
  1.940976e+00    2.960439e+00
  1.956852e+00    2.966438e+00
  1.972727e+00    2.996009e+00
  1.988603e+00    2.925017e+00
  2.004479e+00    2.974048e+00
  2.020354e+00    3.039697e+00
  2.036230e+00    3.036758e+00
  2.052105e+00    2.993911e+00
  2.067981e+00    3.072128e+00
  2.083856e+00    3.122789e+00
  2.099732e+00    3.147094e+00
  2.115608e+00    3.100588e+00
  2.131483e+00    3.137212e+00
  2.147359e+00    3.081550e+00
  2.163234e+00    3.072841e+00
  2.179110e+00    3.120435e+00
  2.194985e+00    3.003453e+00
  2.210861e+00    3.037208e+00
  2.226737e+00    3.013240e+00
  2.242612e+00    3.084125e+00
  2.258488e+00    3.085779e+00
  2.274363e+00    3.068764e+00
  2.290239e+00    3.145383e+00
  2.306115e+00    3.176494e+00
  2.321990e+00    3.138014e+00
  2.337866e+00    3.070884e+00
  2.353741e+00    3.070870e+00
  2.369617e+00    3.202842e+00
  2.385492e+00    3.166379e+00
  2.401368e+00    3.142644e+00
  2.417244e+00    3.013900e+00
  2.433119e+00    3.053495e+00
  2.448995e+00    3.147581e+00
  2.464870e+00    3.019665e+00
  2.480746e+00    3.103436e+00
  2.496621e+00    3.180978e+00
  2.512497e+00    3.271724e+00
  2.528373e+00    3.258090e+00
  2.544248e+00    3.223656e+00
  2.560124e+00    3.268253e+00
  2.575999e+00    3.153638e+00
  2.591875e+00    3.154825e+00
  2.607750e+00    3.112733e+00
  2.623626e+00    3.175913e+00
  2.639502e+00    3.214760e+00
  2.655377e+00    3.141449e+00
  2.671253e+00    3.177374e+00
  2.687128e+00    3.098107e+00
  2.703004e+00    3.178179e+00
  2.718879e+00    3.114772e+00
  2.734755e+00    3.097574e+00
  2.750631e+00    3.238379e+00
  2.766506e+00    3.223898e+00
  2.782382e+00    3.250924e+00
  2.798257e+00    3.250495e+00
  2.814133e+00    3.301461e+00
  2.830008e+00    3.318090e+00
  2.845884e+00    3.294475e+00
  2.861760e+00    3.221743e+00
  2.877635e+00    3.175202e+00
  2.893511e+00    3.217797e+00
  2.909386e+00    3.266179e+00
  2.925262e+00    3.298400e+00
  2.941137e+00    3.344070e+00
  2.957013e+00    3.330441e+00
  2.972889e+00    3.221582e+00
  2.988764e+00    3.319251e+00
  3.004640e+00    3.310115e+00
  3.020515e+00    3.201090e+00
  3.036391e+00    3.279600e+00
  3.052266e+00    3.298398e+00
  3.068142e+00    3.280957e+00
  3.084018e+00    3.358173e+00
  3.099893e+00    3.396807e+00
  3.115769e+00    3.364264e+00
  3.131644e+00    3.385240e+00
  3.147520e+00    3.350830e+00
  3.163395e+00    3.407716e+00
  3.179271e+00    3.342353e+00
  3.195147e+00    3.268698e+00
  3.211022e+00    3.352386e+00
  3.226898e+00    3.346316e+00
  3.242773e+00    3.342474e+00
  3.258649e+00    3.376156e+00
  3.274525e+00    3.455043e+00
  3.290400e+00    3.334571e+00
  3.306276e+00    3.309821e+00
  3.322151e+00    3.319591e+00
  3.338027e+00    3.377966e+00
  3.353902e+00    3.473935e+00
  3.369778e+00    3.408767e+00
  3.385654e+00    3.360910e+00
  3.401529e+00    3.412040e+00
  3.417405e+00    3.440053e+00
  3.433280e+00    3.536989e+00
  3.449156e+00    3.444907e+00
  3.465031e+00    3.371131e+00
  3.480907e+00    3.407295e+00
  3.496783e+00    3.305536e+00
  3.512658e+00    3.407300e+00
  3.528534e+00    3.440094e+00
  3.544409e+00    3.450414e+00
  3.560285e+00    3.333092e+00
  3.576160e+00    3.389990e+00
  3.592036e+00    3.427283e+00
  3.607912e+00    3.431010e+00
  3.623787e+00    3.483683e+00
  3.639663e+00    3.456926e+00
  3.655538e+00    3.539804e+00
  3.671414e+00    3.473131e+00
  3.687289e+00    3.411434e+00
  3.703165e+00    3.469052e+00
  3.719041e+00    3.532248e+00
  3.734916e+00    3.522337e+00
  3.750792e+00    3.528608e+00
  3.766667e+00    3.455902e+00
  3.782543e+00    3.407959e+00
  3.798418e+00    3.437328e+00
  3.814294e+00    3.455268e+00
  3.830170e+00    3.481591e+00
  3.846045e+00    3.507937e+00
  3.861921e+00    3.448509e+00
  3.877796e+00    3.457772e+00
  3.893672e+00    3.447589e+00
  3.909547e+00    3.544897e+00
  3.925423e+00    3.523943e+00
  3.941299e+00    3.456372e+00
  3.957174e+00    3.384305e+00
  3.973050e+00    3.469547e+00
  3.988925e+00    3.475894e+00
  4.004801e+00    3.542866e+00
  4.020676e+00    3.434291e+00
  4.036552e+00    3.519179e+00
  4.052428e+00    3.579535e+00
  4.068303e+00    3.571502e+00
  4.084179e+00    3.591657e+00
  4.100054e+00    3.559107e+00
  4.115930e+00    3.603281e+00
  4.131806e+00    3.598626e+00
  4.147681e+00    3.436092e+00
  4.163557e+00    3.451610e+00
  4.179432e+00    3.624767e+00
  4.195308e+00    3.590862e+00
  4.211183e+00    3.557508e+00
  4.227059e+00    3.535865e+00
  4.242935e+00    3.476202e+00
  4.258810e+00    3.451654e+00
  4.274686e+00    3.467119e+00
  4.290561e+00    3.500196e+00
  4.306437e+00    3.526066e+00
  4.322312e+00    3.552452e+00
  4.338188e+00    3.527093e+00
  4.354064e+00    3.533166e+00
  4.369939e+00    3.565168e+00
  4.385815e+00    3.578595e+00
  4.401690e+00    3.595898e+00
  4.417566e+00    3.654096e+00
  4.433441e+00    3.588985e+00
  4.449317e+00    3.654518e+00
  4.465193e+00    3.576467e+00
  4.481068e+00    3.531657e+00
  4.496944e+00    3.563514e+00
  4.512819e+00    3.572487e+00
  4.528695e+00    3.580932e+00
  4.544570e+00    3.569277e+00
  4.560446e+00    3.610821e+00
  4.576322e+00    3.588463e+00
  4.592197e+00    3.538528e+00
  4.608073e+00    3.479246e+00
  4.623948e+00    3.603740e+00
  4.639824e+00    3.644202e+00
  4.655699e+00    3.541378e+00
  4.671575e+00    3.579342e+00
  4.687451e+00    3.555284e+00
  4.703326e+00    3.549105e+00
  4.719202e+00    3.542412e+00
  4.735077e+00    3.637557e+00
  4.750953e+00    3.650015e+00
  4.766828e+00    3.677048e+00
  4.782704e+00    3.670459e+00
  4.798580e+00    3.629699e+00
  4.814455e+00    3.618408e+00
  4.830331e+00    3.604825e+00
  4.846206e+00    3.679782e+00
  4.862082e+00    3.700584e+00
  4.877957e+00    3.741109e+00
  4.893833e+00    3.652608e+00
  4.909709e+00    3.651165e+00
  4.925584e+00    3.604856e+00
  4.941460e+00    3.574563e+00
  4.957335e+00    3.602729e+00
  4.973211e+00    3.669892e+00
  4.989086e+00    3.682853e+00
  5.004962e+00    3.684840e+00
  5.020838e+00    3.612642e+00
  5.036713e+00    3.590179e+00
  5.052589e+00    3.686692e+00
  5.068464e+00    3.677880e+00
  5.084340e+00    3.600985e+00
  5.100216e+00    3.630460e+00
  5.116091e+00    3.660648e+00
  5.131967e+00    3.650683e+00
  5.147842e+00    3.574349e+00
  5.163718e+00    3.653143e+00
  5.179593e+00    3.731058e+00
  5.195469e+00    3.720052e+00
  5.211345e+00    3.660252e+00
  5.227220e+00    3.627789e+00
  5.243096e+00    3.653416e+00
  5.258971e+00    3.559566e+00
  5.274847e+00    3.561800e+00
  5.290722e+00    3.609622e+00
  5.306598e+00    3.567036e+00
  5.322474e+00    3.515502e+00
  5.338349e+00    3.566947e+00
  5.354225e+00    3.647001e+00
  5.370100e+00    3.665246e+00
  5.385976e+00    3.571106e+00
  5.401851e+00    3.611391e+00
  5.417727e+00    3.634667e+00
  5.433603e+00    3.576902e+00
  5.449478e+00    3.586971e+00
  5.465354e+00    3.517549e+00
  5.481229e+00    3.617944e+00
  5.497105e+00    3.618364e+00
  5.512980e+00    3.570895e+00
  5.528856e+00    3.596693e+00
  5.544732e+00    3.561734e+00
  5.560607e+00    3.568896e+00
  5.576483e+00    3.641783e+00
  5.592358e+00    3.514208e+00
  5.608234e+00    3.522646e+00
  5.624109e+00    3.539998e+00
  5.639985e+00    3.655430e+00
  5.655861e+00    3.617459e+00
  5.671736e+00    3.506429e+00
  5.687612e+00    3.532928e+00
  5.703487e+00    3.483382e+00
  5.719363e+00    3.494441e+00
  5.735238e+00    3.498715e+00
  5.751114e+00    3.480635e+00
  5.766990e+00    3.563775e+00
  5.782865e+00    3.557584e+00
  5.798741e+00    3.526999e+00
  5.814616e+00    3.578491e+00
  5.830492e+00    3.575644e+00
  5.846367e+00    3.521968e+00
  5.862243e+00    3.483386e+00
  5.878119e+00    3.527916e+00
  5.893994e+00    3.529533e+00
  5.909870e+00    3.593184e+00
  5.925745e+00    3.504510e+00
  5.941621e+00    3.428201e+00
  5.957497e+00    3.481169e+00
  5.973372e+00    3.486995e+00
  5.989248e+00    3.497303e+00
  6.005123e+00    3.513365e+00
  6.020999e+00    3.450117e+00
  6.036874e+00    3.503403e+00
  6.052750e+00    3.596113e+00
  6.068626e+00    3.526025e+00
  6.084501e+00    3.523184e+00
  6.100377e+00    3.502564e+00
  6.116252e+00    3.495653e+00
  6.132128e+00    3.692856e+00
  6.148003e+00    3.618822e+00
  6.163879e+00    3.601987e+00
  6.179755e+00    3.560492e+00
  6.195630e+00    3.541440e+00
  6.211506e+00    3.537124e+00
  6.227381e+00    3.560878e+00
  6.243257e+00    3.648905e+00
  6.259132e+00    3.579358e+00
  6.275008e+00    3.542770e+00
  6.290884e+00    3.584964e+00
  6.306759e+00    3.619914e+00
  6.322635e+00    3.560782e+00
  6.338510e+00    3.524104e+00
  6.354386e+00    3.491752e+00
  6.370261e+00    3.499286e+00
  6.386137e+00    3.512416e+00
  6.402013e+00    3.542720e+00
  6.417888e+00    3.543357e+00
  6.433764e+00    3.422938e+00
  6.449639e+00    3.502080e+00
  6.465515e+00    3.491302e+00
  6.481390e+00    3.561231e+00
  6.497266e+00    3.585010e+00
  6.513142e+00    3.499279e+00
  6.529017e+00    3.516496e+00
  6.544893e+00    3.560447e+00
  6.560768e+00    3.570715e+00
  6.576644e+00    3.530108e+00
  6.592519e+00    3.525034e+00
  6.608395e+00    3.572448e+00
  6.624271e+00    3.601691e+00
  6.640146e+00    3.489619e+00
  6.656022e+00    3.457227e+00
  6.671897e+00    3.487379e+00
  6.687773e+00    3.588496e+00
  6.703648e+00    3.531075e+00
  6.719524e+00    3.530441e+00
  6.735400e+00    3.538348e+00
  6.751275e+00    3.538903e+00
  6.767151e+00    3.521710e+00
  6.783026e+00    3.499532e+00
  6.798902e+00    3.469864e+00
  6.814777e+00    3.532605e+00
  6.830653e+00    3.510716e+00
  6.846529e+00    3.514323e+00
  6.862404e+00    3.638671e+00
  6.878280e+00    3.623882e+00
  6.894155e+00    3.535419e+00
  6.910031e+00    3.549009e+00
  6.925907e+00    3.530097e+00
  6.941782e+00    3.507999e+00
  6.957658e+00    3.472439e+00
  6.973533e+00    3.536824e+00
  6.989409e+00    3.478691e+00
  7.005284e+00    3.560682e+00
  7.021160e+00    3.522866e+00
  7.037036e+00    3.479021e+00
  7.052911e+00    3.563750e+00
  7.068787e+00    3.508051e+00
  7.084662e+00    3.454162e+00
  7.100538e+00    3.547469e+00
  7.116413e+00    3.537589e+00
  7.132289e+00    3.504436e+00
  7.148165e+00    3.509305e+00
  7.164040e+00    3.546074e+00
  7.179916e+00    3.563885e+00
  7.195791e+00    3.541751e+00
  7.211667e+00    3.467940e+00
  7.227542e+00    3.472558e+00
  7.243418e+00    3.456713e+00
  7.259294e+00    3.513236e+00
  7.275169e+00    3.467393e+00
  7.291045e+00    3.537844e+00
  7.306920e+00    3.549561e+00
  7.322796e+00    3.544085e+00
  7.338671e+00    3.521105e+00
  7.354547e+00    3.580379e+00
  7.370423e+00    3.564419e+00
  7.386298e+00    3.563515e+00
  7.402174e+00    3.472206e+00
  7.418049e+00    3.497292e+00
  7.433925e+00    3.422982e+00
  7.449800e+00    3.433748e+00
  7.465676e+00    3.493906e+00
  7.481552e+00    3.498656e+00
  7.497427e+00    3.456978e+00
  7.513303e+00    3.453494e+00
  7.529178e+00    3.494402e+00
  7.545054e+00    3.507474e+00
  7.560929e+00    3.501743e+00
  7.576805e+00    3.391296e+00
  7.592681e+00    3.361967e+00
  7.608556e+00    3.477334e+00
  7.624432e+00    3.478077e+00
  7.640307e+00    3.420960e+00
  7.656183e+00    3.490642e+00
  7.672058e+00    3.490479e+00
  7.687934e+00    3.479433e+00
  7.703810e+00    3.417148e+00
  7.719685e+00    3.431593e+00
  7.735561e+00    3.428472e+00
  7.751436e+00    3.455255e+00
  7.767312e+00    3.426214e+00
  7.783187e+00    3.454011e+00
  7.799063e+00    3.407019e+00
  7.814939e+00    3.404437e+00
  7.830814e+00    3.475516e+00
  7.846690e+00    3.384465e+00
  7.862565e+00    3.399741e+00
  7.878441e+00    3.348010e+00
  7.894317e+00    3.340316e+00
  7.910192e+00    3.375308e+00
  7.926068e+00    3.400746e+00
  7.941943e+00    3.405237e+00
  7.957819e+00    3.412465e+00
  7.973694e+00    3.394015e+00
  7.989570e+00    3.414980e+00
  8.005446e+00    3.487061e+00
  8.021321e+00    3.420462e+00
  8.037197e+00    3.399827e+00
  8.053072e+00    3.385179e+00
  8.068948e+00    3.391700e+00
  8.084823e+00    3.341318e+00
  8.100699e+00    3.389847e+00
  8.116575e+00    3.525808e+00
  8.132450e+00    3.548503e+00
  8.148326e+00    3.457402e+00
  8.164201e+00    3.466449e+00
  8.180077e+00    3.455378e+00
  8.195952e+00    3.449423e+00
  8.211828e+00    3.362428e+00
  8.227704e+00    3.359642e+00
  8.243579e+00    3.388706e+00
  8.259455e+00    3.392916e+00
  8.275330e+00    3.483421e+00
  8.291206e+00    3.423762e+00
  8.307081e+00    3.423235e+00
  8.322957e+00    3.394310e+00
  8.338833e+00    3.403481e+00
  8.354708e+00    3.406687e+00
  8.370584e+00    3.402944e+00
  8.386459e+00    3.401711e+00
  8.402335e+00    3.401496e+00
  8.418210e+00    3.305853e+00
  8.434086e+00    3.404865e+00
  8.449962e+00    3.377630e+00
  8.465837e+00    3.356414e+00
  8.481713e+00    3.300983e+00
  8.497588e+00    3.302432e+00
  8.513464e+00    3.363400e+00
  8.529339e+00    3.312604e+00
  8.545215e+00    3.324104e+00
  8.561091e+00    3.344622e+00
  8.576966e+00    3.377807e+00
  8.592842e+00    3.326844e+00
  8.608717e+00    3.322684e+00
  8.624593e+00    3.376535e+00
  8.640468e+00    3.276136e+00
  8.656344e+00    3.267701e+00
  8.672220e+00    3.277380e+00
  8.688095e+00    3.256317e+00
  8.703971e+00    3.286849e+00
  8.719846e+00    3.246466e+00
  8.735722e+00    3.266283e+00
  8.751598e+00    3.292082e+00
  8.767473e+00    3.310486e+00
  8.783349e+00    3.323969e+00
  8.799224e+00    3.274837e+00
  8.815100e+00    3.249499e+00
  8.830975e+00    3.277491e+00
  8.846851e+00    3.368597e+00
  8.862727e+00    3.340306e+00
  8.878602e+00    3.296283e+00
  8.894478e+00    3.295055e+00
  8.910353e+00    3.287046e+00
  8.926229e+00    3.306161e+00
  8.942104e+00    3.280756e+00
  8.957980e+00    3.284627e+00
  8.973856e+00    3.285856e+00
  8.989731e+00    3.281484e+00
  9.005607e+00    3.244507e+00
  9.021482e+00    3.245744e+00
  9.037358e+00    3.311208e+00
  9.053233e+00    3.264280e+00
  9.069109e+00    3.233048e+00
  9.084985e+00    3.272819e+00
  9.100860e+00    3.299603e+00
  9.116736e+00    3.268359e+00
  9.132611e+00    3.233712e+00
  9.148487e+00    3.259233e+00
  9.164362e+00    3.288177e+00
  9.180238e+00    3.236149e+00
  9.196114e+00    3.277413e+00
  9.211989e+00    3.285200e+00
  9.227865e+00    3.270240e+00
  9.243740e+00    3.248562e+00
  9.259616e+00    3.180076e+00
  9.275491e+00    3.160672e+00
  9.291367e+00    3.210957e+00
  9.307243e+00    3.217228e+00
  9.323118e+00    3.196761e+00
  9.338994e+00    3.185909e+00
  9.354869e+00    3.215600e+00
  9.370745e+00    3.187398e+00
  9.386620e+00    3.231192e+00
  9.402496e+00    3.251304e+00
  9.418372e+00    3.190477e+00
  9.434247e+00    3.204813e+00
  9.450123e+00    3.204666e+00
  9.465998e+00    3.216924e+00
  9.481874e+00    3.199678e+00
  9.497749e+00    3.257188e+00
  9.513625e+00    3.227204e+00
  9.529501e+00    3.171287e+00
  9.545376e+00    3.138871e+00
  9.561252e+00    3.197594e+00
  9.577127e+00    3.229217e+00
  9.593003e+00    3.268491e+00
  9.608878e+00    3.234768e+00
  9.624754e+00    3.230331e+00
  9.640630e+00    3.221846e+00
  9.656505e+00    3.236123e+00
  9.672381e+00    3.192579e+00
  9.688256e+00    3.181206e+00
  9.704132e+00    3.158047e+00
  9.720008e+00    3.144058e+00
  9.735883e+00    3.188727e+00
  9.751759e+00    3.163499e+00
  9.767634e+00    3.081104e+00
  9.783510e+00    3.194460e+00
  9.799385e+00    3.199884e+00
  9.815261e+00    3.187831e+00
  9.831137e+00    3.145404e+00
  9.847012e+00    3.127835e+00
  9.862888e+00    3.162153e+00
  9.878763e+00    3.150394e+00
  9.894639e+00    3.105480e+00
  9.910514e+00    3.111017e+00
  9.926390e+00    3.110175e+00
  9.942266e+00    3.126076e+00
  9.958141e+00    3.117902e+00
  9.974017e+00    3.125679e+00
  9.989892e+00    3.140821e+00
  1.000577e+01    3.116748e+00
  1.002164e+01    3.059015e+00
  1.003752e+01    3.064903e+00
  1.005339e+01    3.058724e+00
  1.006927e+01    3.078586e+00
  1.008515e+01    3.047446e+00
  1.010102e+01    3.017539e+00
  1.011690e+01    3.017348e+00
  1.013277e+01    2.999007e+00
  1.014865e+01    3.003808e+00
  1.016452e+01    3.016417e+00
  1.018040e+01    3.065011e+00
  1.019627e+01    3.114763e+00
  1.021215e+01    3.043932e+00
  1.022803e+01    3.061796e+00
  1.024390e+01    2.987532e+00
  1.025978e+01    3.059548e+00
  1.027565e+01    3.087750e+00
  1.029153e+01    3.029036e+00
  1.030740e+01    3.015911e+00
  1.032328e+01    2.999119e+00
  1.033915e+01    3.008385e+00
  1.035503e+01    3.032600e+00
  1.037091e+01    2.969026e+00
  1.038678e+01    3.002258e+00
  1.040266e+01    3.034479e+00
  1.041853e+01    2.988713e+00
  1.043441e+01    2.983970e+00
  1.045028e+01    3.027339e+00
  1.046616e+01    3.031288e+00
  1.048204e+01    3.043117e+00
  1.049791e+01    3.014266e+00
  1.051379e+01    2.983050e+00
  1.052966e+01    3.014459e+00
  1.054554e+01    2.982235e+00
  1.056141e+01    2.991913e+00
  1.057729e+01    2.984756e+00
  1.059316e+01    2.978859e+00
  1.060904e+01    2.987023e+00
  1.062492e+01    2.993995e+00
  1.064079e+01    2.985984e+00
  1.065667e+01    2.936196e+00
  1.067254e+01    2.961972e+00
  1.068842e+01    2.977664e+00
  1.070429e+01    2.966467e+00
  1.072017e+01    2.974668e+00
  1.073604e+01    2.975664e+00
  1.075192e+01    2.931247e+00
  1.076780e+01    2.947470e+00
  1.078367e+01    2.995194e+00
  1.079955e+01    2.942339e+00
  1.081542e+01    2.900346e+00
  1.083130e+01    2.936541e+00
  1.084717e+01    2.910074e+00
  1.086305e+01    2.899227e+00
  1.087892e+01    2.872682e+00
  1.089480e+01    2.892995e+00
  1.091068e+01    2.921331e+00
  1.092655e+01    2.901915e+00
  1.094243e+01    2.823431e+00
  1.095830e+01    2.875527e+00
  1.097418e+01    2.935125e+00
  1.099005e+01    2.909927e+00
  1.100593e+01    2.887537e+00
  1.102180e+01    2.825553e+00
  1.103768e+01    2.870635e+00
  1.105356e+01    2.917362e+00
  1.106943e+01    2.876008e+00
  1.108531e+01    2.881707e+00
  1.110118e+01    2.872673e+00
  1.111706e+01    2.895548e+00
  1.113293e+01    2.893488e+00
  1.114881e+01    2.862528e+00
  1.116468e+01    2.813004e+00
  1.118056e+01    2.790497e+00
  1.119644e+01    2.821793e+00
  1.121231e+01    2.864174e+00
  1.122819e+01    2.875895e+00
  1.124406e+01    2.866372e+00
  1.125994e+01    2.867470e+00
  1.127581e+01    2.820376e+00
  1.129169e+01    2.801362e+00
  1.130756e+01    2.757045e+00
  1.132344e+01    2.814819e+00
  1.133932e+01    2.838982e+00
  1.135519e+01    2.835835e+00
  1.137107e+01    2.820805e+00
  1.138694e+01    2.820066e+00
  1.140282e+01    2.861226e+00
  1.141869e+01    2.835315e+00
  1.143457e+01    2.827563e+00
  1.145045e+01    2.800384e+00
  1.146632e+01    2.796011e+00
  1.148220e+01    2.772576e+00
  1.149807e+01    2.746036e+00
  1.151395e+01    2.777522e+00
  1.152982e+01    2.763838e+00
  1.154570e+01    2.758191e+00
  1.156157e+01    2.818255e+00
  1.157745e+01    2.821460e+00
  1.159333e+01    2.785890e+00
  1.160920e+01    2.764992e+00
  1.162508e+01    2.772834e+00
  1.164095e+01    2.784261e+00
  1.165683e+01    2.777658e+00
  1.167270e+01    2.751409e+00
  1.168858e+01    2.721315e+00
  1.170445e+01    2.713008e+00
  1.172033e+01    2.725841e+00
  1.173621e+01    2.742521e+00
  1.175208e+01    2.719765e+00
  1.176796e+01    2.754641e+00
  1.178383e+01    2.715000e+00
  1.179971e+01    2.723232e+00
  1.181558e+01    2.703726e+00
  1.183146e+01    2.693314e+00
  1.184733e+01    2.697161e+00
  1.186321e+01    2.676140e+00
  1.187909e+01    2.727418e+00
  1.189496e+01    2.695302e+00
  1.191084e+01    2.715582e+00
  1.192671e+01    2.697899e+00
  1.194259e+01    2.697762e+00
  1.195846e+01    2.709659e+00
  1.197434e+01    2.650251e+00
  1.199021e+01    2.680256e+00
  1.200609e+01    2.698829e+00
  1.202197e+01    2.748297e+00
  1.203784e+01    2.736629e+00
  1.205372e+01    2.692628e+00
  1.206959e+01    2.724648e+00
  1.208547e+01    2.696946e+00
  1.210134e+01    2.655090e+00
  1.211722e+01    2.683599e+00
  1.213309e+01    2.679265e+00
  1.214897e+01    2.692298e+00
  1.216485e+01    2.693467e+00
  1.218072e+01    2.636893e+00
  1.219660e+01    2.645780e+00
  1.221247e+01    2.644838e+00
  1.222835e+01    2.668595e+00
  1.224422e+01    2.718359e+00
  1.226010e+01    2.695026e+00
  1.227597e+01    2.674424e+00
  1.229185e+01    2.647481e+00
  1.230773e+01    2.656637e+00
  1.232360e+01    2.640378e+00
  1.233948e+01    2.645260e+00
  1.235535e+01    2.708241e+00
  1.237123e+01    2.755792e+00
  1.238710e+01    2.711032e+00
  1.240298e+01    2.701442e+00
  1.241886e+01    2.702891e+00
  1.243473e+01    2.713888e+00
  1.245061e+01    2.729375e+00
  1.246648e+01    2.638805e+00
  1.248236e+01    2.674255e+00
  1.249823e+01    2.729377e+00
  1.251411e+01    2.703171e+00
  1.252998e+01    2.703665e+00
  1.254586e+01    2.715543e+00
  1.256174e+01    2.718304e+00
  1.257761e+01    2.755947e+00
  1.259349e+01    2.788254e+00
  1.260936e+01    2.796243e+00
  1.262524e+01    2.782261e+00
  1.264111e+01    2.775561e+00
  1.265699e+01    2.706518e+00
  1.267286e+01    2.791951e+00
  1.268874e+01    2.830149e+00
  1.270462e+01    2.826679e+00
  1.272049e+01    2.800989e+00
  1.273637e+01    2.839065e+00
  1.275224e+01    2.885681e+00
  1.276812e+01    2.897638e+00
  1.278399e+01    2.944563e+00
  1.279987e+01    2.992480e+00
  1.281574e+01    3.042635e+00
  1.283162e+01    3.107562e+00
  1.284750e+01    3.200264e+00
  1.286337e+01    3.301827e+00
  1.287925e+01    3.377914e+00
  1.289512e+01    3.485271e+00
  1.291100e+01    3.614003e+00
  1.292687e+01    3.830321e+00
  1.294275e+01    4.041903e+00
  1.295862e+01    4.354847e+00
  1.297450e+01    4.744688e+00
  1.299038e+01    5.257444e+00
  1.300625e+01    5.822142e+00
  1.302213e+01    6.603514e+00
  1.303800e+01    7.613657e+00
  1.305388e+01    8.786615e+00
  1.306975e+01    1.000778e+01
  1.308563e+01    1.131703e+01
  1.310150e+01    1.254188e+01
  1.311738e+01    1.359605e+01
  1.313326e+01    1.461920e+01
  1.314913e+01    1.564071e+01
  1.316501e+01    1.609806e+01
  1.318088e+01    1.609613e+01
  1.319676e+01    1.541601e+01
  1.321263e+01    1.406217e+01
  1.322851e+01    1.242512e+01
  1.324438e+01    1.060145e+01
  1.326026e+01    8.979284e+00
  1.327614e+01    7.706367e+00
  1.329201e+01    6.743445e+00
  1.330789e+01    5.955193e+00
  1.332376e+01    5.310096e+00
  1.333964e+01    4.779499e+00
  1.335551e+01    4.365159e+00
  1.337139e+01    4.107348e+00
  1.338727e+01    3.816303e+00
  1.340314e+01    3.620813e+00
  1.341902e+01    3.518865e+00
  1.343489e+01    3.305536e+00
  1.345077e+01    3.188062e+00
  1.346664e+01    3.074298e+00
  1.348252e+01    2.959916e+00
  1.349839e+01    2.934981e+00
  1.351427e+01    2.890858e+00
  1.353015e+01    2.859056e+00
  1.354602e+01    2.799602e+00
  1.356190e+01    2.746297e+00
  1.357777e+01    2.687586e+00
  1.359365e+01    2.666867e+00
  1.360952e+01    2.643595e+00
  1.362540e+01    2.639802e+00
  1.364127e+01    2.599229e+00
  1.365715e+01    2.578521e+00
  1.367303e+01    2.528267e+00
  1.368890e+01    2.579439e+00
  1.370478e+01    2.585812e+00
  1.372065e+01    2.572361e+00
  1.373653e+01    2.548380e+00
  1.375240e+01    2.483266e+00
  1.376828e+01    2.416543e+00
  1.378415e+01    2.458972e+00
  1.380003e+01    2.454195e+00
  1.381591e+01    2.407840e+00
  1.383178e+01    2.400838e+00
  1.384766e+01    2.435278e+00
  1.386353e+01    2.401388e+00
  1.387941e+01    2.375909e+00
  1.389528e+01    2.399209e+00
  1.391116e+01    2.408696e+00
  1.392703e+01    2.385294e+00
  1.394291e+01    2.399129e+00
  1.395879e+01    2.359975e+00
  1.397466e+01    2.357097e+00
  1.399054e+01    2.347797e+00
  1.400641e+01    2.329264e+00
  1.402229e+01    2.313075e+00
  1.403816e+01    2.295843e+00
  1.405404e+01    2.303838e+00
  1.406991e+01    2.331778e+00
  1.408579e+01    2.305363e+00
  1.410167e+01    2.306183e+00
  1.411754e+01    2.327396e+00
  1.413342e+01    2.342683e+00
  1.414929e+01    2.326579e+00
  1.416517e+01    2.323360e+00
  1.418104e+01    2.292989e+00
  1.419692e+01    2.291565e+00
  1.421279e+01    2.258481e+00
  1.422867e+01    2.268603e+00
  1.424455e+01    2.272983e+00
  1.426042e+01    2.298833e+00
  1.427630e+01    2.266662e+00
  1.429217e+01    2.264397e+00
  1.430805e+01    2.255775e+00
  1.432392e+01    2.249653e+00
  1.433980e+01    2.217685e+00
  1.435568e+01    2.216208e+00
  1.437155e+01    2.240421e+00
  1.438743e+01    2.239993e+00
  1.440330e+01    2.221214e+00
  1.441918e+01    2.213334e+00
  1.443505e+01    2.227123e+00
  1.445093e+01    2.255378e+00
  1.446680e+01    2.215828e+00
  1.448268e+01    2.187766e+00
  1.449856e+01    2.179785e+00
  1.451443e+01    2.209900e+00
  1.453031e+01    2.227864e+00
  1.454618e+01    2.213237e+00
  1.456206e+01    2.206840e+00
  1.457793e+01    2.225122e+00
  1.459381e+01    2.226950e+00
  1.460968e+01    2.220982e+00
  1.462556e+01    2.229954e+00
  1.464144e+01    2.201220e+00
  1.465731e+01    2.200808e+00
  1.467319e+01    2.217321e+00
  1.468906e+01    2.248173e+00
  1.470494e+01    2.242522e+00
  1.472081e+01    2.173833e+00
  1.473669e+01    2.186001e+00
  1.475256e+01    2.168653e+00
  1.476844e+01    2.188700e+00
  1.478432e+01    2.200758e+00
  1.480019e+01    2.203665e+00
  1.481607e+01    2.187128e+00
  1.483194e+01    2.226619e+00
  1.484782e+01    2.233696e+00
  1.486369e+01    2.251920e+00
  1.487957e+01    2.203542e+00
  1.489544e+01    2.220285e+00
  1.491132e+01    2.249491e+00
  1.492720e+01    2.300478e+00
  1.494307e+01    2.306914e+00
  1.495895e+01    2.310356e+00
  1.497482e+01    2.356513e+00
  1.499070e+01    2.374988e+00
  1.500657e+01    2.431407e+00
  1.502245e+01    2.516213e+00
  1.503832e+01    2.583025e+00
  1.505420e+01    2.664818e+00
  1.507008e+01    2.813702e+00
  1.508595e+01    2.964055e+00
  1.510183e+01    3.105472e+00
  1.511770e+01    3.422570e+00
  1.513358e+01    3.744239e+00
  1.514945e+01    4.083741e+00
  1.516533e+01    4.440617e+00
  1.518120e+01    4.809003e+00
  1.519708e+01    5.116013e+00
  1.521296e+01    5.370650e+00
  1.522883e+01    5.510995e+00
  1.524471e+01    5.693335e+00
  1.526058e+01    5.822911e+00
  1.527646e+01    5.712234e+00
  1.529233e+01    5.500079e+00
  1.530821e+01    5.143440e+00
  1.532409e+01    4.663720e+00
  1.533996e+01    4.204060e+00
  1.535584e+01    3.806517e+00
  1.537171e+01    3.452603e+00
  1.538759e+01    3.159570e+00
  1.540346e+01    2.921226e+00
  1.541934e+01    2.748317e+00
  1.543521e+01    2.602340e+00
  1.545109e+01    2.493484e+00
  1.546697e+01    2.434492e+00
  1.548284e+01    2.378642e+00
  1.549872e+01    2.309117e+00
  1.551459e+01    2.259124e+00
  1.553047e+01    2.220197e+00
  1.554634e+01    2.183022e+00
  1.556222e+01    2.131667e+00
  1.557809e+01    2.134011e+00
  1.559397e+01    2.090255e+00
  1.560985e+01    2.081301e+00
  1.562572e+01    2.032527e+00
  1.564160e+01    1.979511e+00
  1.565747e+01    2.016877e+00
  1.567335e+01    2.025084e+00
  1.568922e+01    2.004879e+00
  1.570510e+01    1.998637e+00
  1.572097e+01    1.983046e+00
  1.573685e+01    1.968102e+00
  1.575273e+01    1.975595e+00
  1.576860e+01    1.934840e+00
  1.578448e+01    1.926146e+00
  1.580035e+01    1.914974e+00
  1.581623e+01    1.927741e+00
  1.583210e+01    1.913210e+00
  1.584798e+01    1.885330e+00
  1.586385e+01    1.886313e+00
  1.587973e+01    1.904962e+00
  1.589561e+01    1.903232e+00
  1.591148e+01    1.877171e+00
  1.592736e+01    1.901409e+00
  1.594323e+01    1.895877e+00
  1.595911e+01    1.905251e+00
  1.597498e+01    1.876790e+00
  1.599086e+01    1.905385e+00
  1.600673e+01    1.876538e+00
  1.602261e+01    1.866277e+00
  1.603849e+01    1.822956e+00
  1.605436e+01    1.859663e+00
  1.607024e+01    1.855368e+00
  1.608611e+01    1.858390e+00
  1.610199e+01    1.860977e+00
  1.611786e+01    1.839517e+00
  1.613374e+01    1.815166e+00
  1.614961e+01    1.818063e+00
  1.616549e+01    1.784490e+00
  1.618137e+01    1.776257e+00
  1.619724e+01    1.810542e+00
  1.621312e+01    1.808865e+00
  1.622899e+01    1.828061e+00
  1.624487e+01    1.842138e+00
  1.626074e+01    1.808123e+00
  1.627662e+01    1.807488e+00
  1.629250e+01    1.790162e+00
  1.630837e+01    1.787563e+00
  1.632425e+01    1.808080e+00
  1.634012e+01    1.777859e+00
  1.635600e+01    1.783802e+00
  1.637187e+01    1.814717e+00
  1.638775e+01    1.776892e+00
  1.640362e+01    1.775059e+00
  1.641950e+01    1.734443e+00
  1.643538e+01    1.762089e+00
  1.645125e+01    1.744723e+00
  1.646713e+01    1.721769e+00
  1.648300e+01    1.726031e+00
  1.649888e+01    1.737718e+00
  1.651475e+01    1.702702e+00
  1.653063e+01    1.719132e+00
  1.654650e+01    1.728834e+00
  1.656238e+01    1.749442e+00
  1.657826e+01    1.744088e+00
  1.659413e+01    1.752289e+00
  1.661001e+01    1.725587e+00
  1.662588e+01    1.764830e+00
  1.664176e+01    1.742652e+00
  1.665763e+01    1.709362e+00
  1.667351e+01    1.711620e+00
  1.668938e+01    1.725676e+00
  1.670526e+01    1.705747e+00
  1.672114e+01    1.713771e+00
  1.673701e+01    1.724147e+00
  1.675289e+01    1.750097e+00
  1.676876e+01    1.731118e+00
  1.678464e+01    1.697532e+00
  1.680051e+01    1.685378e+00
  1.681639e+01    1.700761e+00
  1.683226e+01    1.704502e+00
  1.684814e+01    1.727999e+00
  1.686402e+01    1.686974e+00
  1.687989e+01    1.685243e+00
  1.689577e+01    1.668812e+00
  1.691164e+01    1.660674e+00
  1.692752e+01    1.667494e+00
  1.694339e+01    1.672656e+00
  1.695927e+01    1.670251e+00
  1.697514e+01    1.700419e+00
  1.699102e+01    1.708924e+00
  1.700690e+01    1.634334e+00
  1.702277e+01    1.665310e+00
  1.703865e+01    1.659130e+00
  1.705452e+01    1.640032e+00
  1.707040e+01    1.646261e+00
  1.708627e+01    1.669800e+00
  1.710215e+01    1.631198e+00
  1.711802e+01    1.637517e+00
  1.713390e+01    1.615823e+00
  1.714978e+01    1.631046e+00
  1.716565e+01    1.661692e+00
  1.718153e+01    1.668429e+00
  1.719740e+01    1.637141e+00
  1.721328e+01    1.604993e+00
  1.722915e+01    1.607928e+00
  1.724503e+01    1.610000e+00
  1.726091e+01    1.589431e+00
  1.727678e+01    1.621595e+00
  1.729266e+01    1.597139e+00
  1.730853e+01    1.596374e+00
  1.732441e+01    1.577285e+00
  1.734028e+01    1.602839e+00
  1.735616e+01    1.580472e+00
  1.737203e+01    1.588985e+00
  1.738791e+01    1.583384e+00
  1.740379e+01    1.588682e+00
  1.741966e+01    1.550220e+00
  1.743554e+01    1.569289e+00
  1.745141e+01    1.610807e+00
  1.746729e+01    1.605282e+00
  1.748316e+01    1.597030e+00
  1.749904e+01    1.566951e+00
  1.751491e+01    1.575787e+00
  1.753079e+01    1.609171e+00
  1.754667e+01    1.600748e+00
  1.756254e+01    1.555669e+00
  1.757842e+01    1.558924e+00
  1.759429e+01    1.557467e+00
  1.761017e+01    1.595137e+00
  1.762604e+01    1.558473e+00
  1.764192e+01    1.528272e+00
  1.765779e+01    1.533483e+00
  1.767367e+01    1.552612e+00
  1.768955e+01    1.553970e+00
  1.770542e+01    1.573615e+00
  1.772130e+01    1.578413e+00
  1.773717e+01    1.536790e+00
  1.775305e+01    1.530296e+00
  1.776892e+01    1.554359e+00
  1.778480e+01    1.553589e+00
  1.780067e+01    1.502216e+00
  1.781655e+01    1.497098e+00
  1.783243e+01    1.517373e+00
  1.784830e+01    1.527615e+00
  1.786418e+01    1.520702e+00
  1.788005e+01    1.521289e+00
  1.789593e+01    1.524891e+00
  1.791180e+01    1.501355e+00
  1.792768e+01    1.485310e+00
  1.794355e+01    1.474238e+00
  1.795943e+01    1.495173e+00
  1.797531e+01    1.504076e+00
  1.799118e+01    1.505400e+00
  1.800706e+01    1.487260e+00
  1.802293e+01    1.472063e+00
  1.803881e+01    1.509108e+00
  1.805468e+01    1.532178e+00
  1.807056e+01    1.517462e+00
  1.808643e+01    1.493264e+00
  1.810231e+01    1.489583e+00
  1.811819e+01    1.511109e+00
  1.813406e+01    1.517491e+00
  1.814994e+01    1.472965e+00
  1.816581e+01    1.452395e+00
  1.818169e+01    1.473243e+00
  1.819756e+01    1.474769e+00
  1.821344e+01    1.478260e+00
  1.822932e+01    1.492489e+00
  1.824519e+01    1.479019e+00
  1.826107e+01    1.465622e+00
  1.827694e+01    1.445657e+00
  1.829282e+01    1.476537e+00
  1.830869e+01    1.486901e+00
  1.832457e+01    1.467210e+00
  1.834044e+01    1.485616e+00
  1.835632e+01    1.468579e+00
  1.837220e+01    1.457935e+00
  1.838807e+01    1.448766e+00
  1.840395e+01    1.442684e+00
  1.841982e+01    1.458837e+00
  1.843570e+01    1.474047e+00
  1.845157e+01    1.460034e+00
  1.846745e+01    1.429167e+00
  1.848332e+01    1.404851e+00
  1.849920e+01    1.430791e+00
  1.851508e+01    1.435785e+00
  1.853095e+01    1.395513e+00
  1.854683e+01    1.421402e+00
  1.856270e+01    1.416010e+00
  1.857858e+01    1.423439e+00
  1.859445e+01    1.414520e+00
  1.861033e+01    1.431606e+00
  1.862620e+01    1.420444e+00
  1.864208e+01    1.417460e+00
  1.865796e+01    1.406437e+00
  1.867383e+01    1.371234e+00
  1.868971e+01    1.432409e+00
  1.870558e+01    1.450201e+00
  1.872146e+01    1.405471e+00
  1.873733e+01    1.389458e+00
  1.875321e+01    1.413435e+00
  1.876908e+01    1.389691e+00
  1.878496e+01    1.403628e+00
  1.880084e+01    1.362667e+00
  1.881671e+01    1.366511e+00
  1.883259e+01    1.371851e+00
  1.884846e+01    1.380703e+00
  1.886434e+01    1.399052e+00
  1.888021e+01    1.380507e+00
  1.889609e+01    1.385353e+00
  1.891196e+01    1.358011e+00
  1.892784e+01    1.380512e+00
  1.894372e+01    1.381040e+00
  1.895959e+01    1.384479e+00
  1.897547e+01    1.426480e+00
  1.899134e+01    1.395071e+00
  1.900722e+01    1.364227e+00
  1.902309e+01    1.357386e+00
  1.903897e+01    1.390539e+00
  1.905484e+01    1.395370e+00
  1.907072e+01    1.385722e+00
  1.908660e+01    1.375024e+00
  1.910247e+01    1.369548e+00
  1.911835e+01    1.366269e+00
  1.913422e+01    1.365000e+00
  1.915010e+01    1.363329e+00
  1.916597e+01    1.355550e+00
  1.918185e+01    1.344012e+00
  1.919773e+01    1.349002e+00
  1.921360e+01    1.386040e+00
  1.922948e+01    1.327419e+00
  1.924535e+01    1.336500e+00
  1.926123e+01    1.379800e+00
  1.927710e+01    1.345884e+00
  1.929298e+01    1.329077e+00
  1.930885e+01    1.366481e+00
  1.932473e+01    1.358446e+00
  1.934061e+01    1.359646e+00
  1.935648e+01    1.361556e+00
  1.937236e+01    1.336384e+00
  1.938823e+01    1.309402e+00
  1.940411e+01    1.325384e+00
  1.941998e+01    1.305147e+00
  1.943586e+01    1.322756e+00
  1.945173e+01    1.341097e+00
  1.946761e+01    1.337688e+00
  1.948349e+01    1.328172e+00
  1.949936e+01    1.336823e+00
  1.951524e+01    1.319961e+00
  1.953111e+01    1.315805e+00
  1.954699e+01    1.343671e+00
  1.956286e+01    1.354120e+00
  1.957874e+01    1.342953e+00
  1.959461e+01    1.335082e+00
  1.961049e+01    1.331093e+00
  1.962637e+01    1.328159e+00
  1.964224e+01    1.307601e+00
  1.965812e+01    1.310670e+00
  1.967399e+01    1.314643e+00
  1.968987e+01    1.301197e+00
  1.970574e+01    1.286787e+00
  1.972162e+01    1.276019e+00
  1.973749e+01    1.313355e+00
  1.975337e+01    1.313745e+00
  1.976925e+01    1.298781e+00
  1.978512e+01    1.276813e+00
  1.980100e+01    1.292306e+00
  1.981687e+01    1.290729e+00
  1.983275e+01    1.301863e+00
  1.984862e+01    1.289907e+00
  1.986450e+01    1.279846e+00
  1.988037e+01    1.302048e+00
  1.989625e+01    1.289095e+00
  1.991213e+01    1.269328e+00
  1.992800e+01    1.291018e+00
  1.994388e+01    1.281246e+00
  1.995975e+01    1.290124e+00
  1.997563e+01    1.268252e+00
  1.999150e+01    1.262245e+00
  2.000738e+01    1.267260e+00
  2.002325e+01    1.276709e+00
  2.003913e+01    1.275504e+00
  2.005501e+01    1.278369e+00
  2.007088e+01    1.269006e+00
  2.008676e+01    1.268716e+00
  2.010263e+01    1.285184e+00
  2.011851e+01    1.286828e+00
  2.013438e+01    1.251857e+00
  2.015026e+01    1.238688e+00
  2.016614e+01    1.227536e+00
  2.018201e+01    1.236992e+00
  2.019789e+01    1.256801e+00
  2.021376e+01    1.262022e+00
  2.022964e+01    1.236504e+00
  2.024551e+01    1.246778e+00
  2.026139e+01    1.245460e+00
  2.027726e+01    1.256328e+00
  2.029314e+01    1.237754e+00
  2.030902e+01    1.229012e+00
  2.032489e+01    1.242555e+00
  2.034077e+01    1.235954e+00
  2.035664e+01    1.201858e+00
  2.037252e+01    1.244980e+00
  2.038839e+01    1.263579e+00
  2.040427e+01    1.260017e+00
  2.042014e+01    1.248767e+00
  2.043602e+01    1.233717e+00
  2.045190e+01    1.237574e+00
  2.046777e+01    1.242026e+00
  2.048365e+01    1.242041e+00
  2.049952e+01    1.243120e+00
  2.051540e+01    1.216668e+00
  2.053127e+01    1.227406e+00
  2.054715e+01    1.229119e+00
  2.056302e+01    1.233860e+00
  2.057890e+01    1.225640e+00
  2.059478e+01    1.202629e+00
  2.061065e+01    1.218005e+00
  2.062653e+01    1.219754e+00
  2.064240e+01    1.212170e+00
  2.065828e+01    1.222273e+00
  2.067415e+01    1.227607e+00
  2.069003e+01    1.212932e+00
  2.070590e+01    1.214492e+00
  2.072178e+01    1.226626e+00
  2.073766e+01    1.233630e+00
  2.075353e+01    1.211680e+00
  2.076941e+01    1.227016e+00
  2.078528e+01    1.232694e+00
  2.080116e+01    1.235194e+00
  2.081703e+01    1.241500e+00
  2.083291e+01    1.220295e+00
  2.084878e+01    1.230403e+00
  2.086466e+01    1.233572e+00
  2.088054e+01    1.225809e+00
  2.089641e+01    1.204471e+00
  2.091229e+01    1.214978e+00
  2.092816e+01    1.201546e+00
  2.094404e+01    1.206252e+00
  2.095991e+01    1.226501e+00
  2.097579e+01    1.227976e+00
  2.099166e+01    1.214794e+00
  2.100754e+01    1.211797e+00
  2.102342e+01    1.229741e+00
  2.103929e+01    1.220138e+00
  2.105517e+01    1.228131e+00
  2.107104e+01    1.235190e+00
  2.108692e+01    1.193229e+00
  2.110279e+01    1.209255e+00
  2.111867e+01    1.203373e+00
  2.113455e+01    1.226602e+00
  2.115042e+01    1.220949e+00
  2.116630e+01    1.210492e+00
  2.118217e+01    1.240654e+00
  2.119805e+01    1.250469e+00
  2.121392e+01    1.239452e+00
  2.122980e+01    1.261112e+00
  2.124567e+01    1.258559e+00
  2.126155e+01    1.251886e+00
  2.127743e+01    1.268725e+00
  2.129330e+01    1.262840e+00
  2.130918e+01    1.260708e+00
  2.132505e+01    1.242845e+00
  2.134093e+01    1.246081e+00
  2.135680e+01    1.246435e+00
  2.137268e+01    1.271073e+00
  2.138855e+01    1.283429e+00
  2.140443e+01    1.312879e+00
  2.142031e+01    1.325773e+00
  2.143618e+01    1.318877e+00
  2.145206e+01    1.347793e+00
  2.146793e+01    1.374253e+00
  2.148381e+01    1.378082e+00
  2.149968e+01    1.396717e+00
  2.151556e+01    1.451394e+00
  2.153143e+01    1.452432e+00
  2.154731e+01    1.495879e+00
  2.156319e+01    1.545683e+00
  2.157906e+01    1.591012e+00
  2.159494e+01    1.635661e+00
  2.161081e+01    1.739215e+00
  2.162669e+01    1.832671e+00
  2.164256e+01    1.937576e+00
  2.165844e+01    2.102049e+00
  2.167431e+01    2.245419e+00
  2.169019e+01    2.472158e+00
  2.170607e+01    2.718448e+00
  2.172194e+01    3.045706e+00
  2.173782e+01    3.451603e+00
  2.175369e+01    3.966047e+00
  2.176957e+01    4.511924e+00
  2.178544e+01    5.128671e+00
  2.180132e+01    5.721781e+00
  2.181719e+01    6.418769e+00
  2.183307e+01    7.147433e+00
  2.184895e+01    7.735678e+00
  2.186482e+01    8.228957e+00
  2.188070e+01    8.576101e+00
  2.189657e+01    8.833960e+00
  2.191245e+01    8.684938e+00
  2.192832e+01    8.193564e+00
  2.194420e+01    7.417192e+00
  2.196007e+01    6.553706e+00
  2.197595e+01    5.704229e+00
  2.199183e+01    4.885567e+00
  2.200770e+01    4.147871e+00
  2.202358e+01    3.610966e+00
  2.203945e+01    3.182480e+00
  2.205533e+01    2.818414e+00
  2.207120e+01    2.515893e+00
  2.208708e+01    2.299631e+00
  2.210296e+01    2.131034e+00
  2.211883e+01    1.987794e+00
  2.213471e+01    1.834899e+00
  2.215058e+01    1.757898e+00
  2.216646e+01    1.678338e+00
  2.218233e+01    1.595490e+00
  2.219821e+01    1.514995e+00
  2.221408e+01    1.463432e+00
  2.222996e+01    1.441807e+00
  2.224584e+01    1.403679e+00
  2.226171e+01    1.375870e+00
  2.227759e+01    1.346892e+00
  2.229346e+01    1.345906e+00
  2.230934e+01    1.285150e+00
  2.232521e+01    1.268469e+00
  2.234109e+01    1.249533e+00
  2.235696e+01    1.238011e+00
  2.237284e+01    1.229902e+00
  2.238872e+01    1.226402e+00
  2.240459e+01    1.219971e+00
  2.242047e+01    1.211356e+00
  2.243634e+01    1.191681e+00
  2.245222e+01    1.158318e+00
  2.246809e+01    1.171001e+00
  2.248397e+01    1.151308e+00
  2.249984e+01    1.148362e+00
  2.251572e+01    1.141126e+00
  2.253160e+01    1.154262e+00
  2.254747e+01    1.133798e+00
  2.256335e+01    1.123703e+00
  2.257922e+01    1.106776e+00
  2.259510e+01    1.095539e+00
  2.261097e+01    1.098516e+00
  2.262685e+01    1.100137e+00
  2.264272e+01    1.090321e+00
  2.265860e+01    1.092555e+00
  2.267448e+01    1.096510e+00
  2.269035e+01    1.087043e+00
  2.270623e+01    1.079532e+00
  2.272210e+01    1.082630e+00
  2.273798e+01    1.075501e+00
  2.275385e+01    1.057329e+00
  2.276973e+01    1.051531e+00
  2.278560e+01    1.051461e+00
  2.280148e+01    1.052683e+00
  2.281736e+01    1.047766e+00
  2.283323e+01    1.051984e+00
  2.284911e+01    1.034032e+00
  2.286498e+01    1.033914e+00
  2.288086e+01    1.032599e+00
  2.289673e+01    1.040344e+00
  2.291261e+01    1.033554e+00
  2.292848e+01    1.036349e+00
  2.294436e+01    1.042063e+00
  2.296024e+01    1.040315e+00
  2.297611e+01    1.027169e+00
  2.299199e+01    1.004732e+00
  2.300786e+01    9.968821e-01
  2.302374e+01    9.992623e-01
  2.303961e+01    1.003541e+00
  2.305549e+01    9.848353e-01
  2.307137e+01    1.016677e+00
  2.308724e+01    1.005532e+00
  2.310312e+01    9.678880e-01
  2.311899e+01    9.760051e-01
  2.313487e+01    9.838020e-01
  2.315074e+01    1.005249e+00
  2.316662e+01    9.901078e-01
  2.318249e+01    9.868453e-01
  2.319837e+01    9.823610e-01
  2.321425e+01    9.897799e-01
  2.323012e+01    9.954976e-01
  2.324600e+01    9.858206e-01
  2.326187e+01    9.764762e-01
  2.327775e+01    9.891778e-01
  2.329362e+01    9.922026e-01
  2.330950e+01    9.708179e-01
  2.332537e+01    9.689143e-01
  2.334125e+01    9.542924e-01
  2.335713e+01    9.632058e-01
  2.337300e+01    9.679275e-01
  2.338888e+01    9.861595e-01
  2.340475e+01    9.855409e-01
  2.342063e+01    9.471489e-01
  2.343650e+01    9.461789e-01
  2.345238e+01    9.571545e-01
  2.346825e+01    9.738985e-01
  2.348413e+01    9.577709e-01
  2.350001e+01    9.610720e-01
  2.351588e+01    9.388003e-01
  2.353176e+01    9.723397e-01
  2.354763e+01    9.784408e-01
  2.356351e+01    9.567077e-01
  2.357938e+01    9.470157e-01
  2.359526e+01    9.501113e-01
  2.361113e+01    9.647993e-01
  2.362701e+01    9.579051e-01
  2.364289e+01    9.588943e-01
  2.365876e+01    9.618648e-01
  2.367464e+01    9.456893e-01
  2.369051e+01    9.647361e-01
  2.370639e+01    9.526409e-01
  2.372226e+01    9.422342e-01
  2.373814e+01    9.611600e-01
  2.375401e+01    9.451821e-01
  2.376989e+01    9.316971e-01
  2.378577e+01    9.457302e-01
  2.380164e+01    9.405790e-01
  2.381752e+01    9.257739e-01
  2.383339e+01    9.239780e-01
  2.384927e+01    9.212758e-01
  2.386514e+01    9.090051e-01
  2.388102e+01    9.101136e-01
  2.389689e+01    9.196380e-01
  2.391277e+01    9.178590e-01
  2.392865e+01    8.993217e-01
  2.394452e+01    8.939713e-01
  2.396040e+01    8.846463e-01
  2.397627e+01    8.912628e-01
  2.399215e+01    8.876968e-01
  2.400802e+01    8.874952e-01
  2.402390e+01    8.964633e-01
  2.403978e+01    8.958731e-01
  2.405565e+01    9.052054e-01
  2.407153e+01    8.943886e-01
  2.408740e+01    8.952412e-01
  2.410328e+01    8.851316e-01
  2.411915e+01    8.713261e-01
  2.413503e+01    8.863409e-01
  2.415090e+01    8.935477e-01
  2.416678e+01    8.732588e-01
  2.418266e+01    8.814909e-01
  2.419853e+01    8.749467e-01
  2.421441e+01    8.707881e-01
  2.423028e+01    8.469434e-01
  2.424616e+01    8.689218e-01
  2.426203e+01    8.936822e-01
  2.427791e+01    8.920526e-01
  2.429378e+01    9.024669e-01
  2.430966e+01    8.767269e-01
  2.432554e+01    8.759989e-01
  2.434141e+01    8.769671e-01
  2.435729e+01    8.775226e-01
  2.437316e+01    8.824100e-01
  2.438904e+01    8.955169e-01
  2.440491e+01    9.013425e-01
  2.442079e+01    9.128631e-01
  2.443666e+01    8.955373e-01
  2.445254e+01    9.061821e-01
  2.446842e+01    8.806489e-01
  2.448429e+01    8.836797e-01
  2.450017e+01    8.804485e-01
  2.451604e+01    8.764935e-01
  2.453192e+01    8.887011e-01
  2.454779e+01    8.969889e-01
  2.456367e+01    8.973544e-01
  2.457954e+01    9.005405e-01
  2.459542e+01    8.838048e-01
  2.461130e+01    8.799502e-01
  2.462717e+01    8.784288e-01
  2.464305e+01    8.801513e-01
  2.465892e+01    8.565319e-01
  2.467480e+01    8.834925e-01
  2.469067e+01    8.822878e-01
  2.470655e+01    8.625457e-01
  2.472242e+01    8.761412e-01
  2.473830e+01    8.678871e-01
  2.475418e+01    8.817379e-01
  2.477005e+01    8.909271e-01
  2.478593e+01    8.850694e-01
  2.480180e+01    8.751745e-01
  2.481768e+01    8.650767e-01
  2.483355e+01    8.831754e-01
  2.484943e+01    8.866995e-01
  2.486530e+01    8.847293e-01
  2.488118e+01    9.067414e-01
  2.489706e+01    9.110955e-01
  2.491293e+01    8.915398e-01
  2.492881e+01    9.148144e-01
  2.494468e+01    8.769211e-01
  2.496056e+01    8.825127e-01
  2.497643e+01    8.957962e-01
  2.499231e+01    8.890452e-01
  2.500819e+01    8.857444e-01
  2.502406e+01    8.985270e-01
  2.503994e+01    8.923901e-01
  2.505581e+01    8.831221e-01
  2.507169e+01    8.823065e-01
  2.508756e+01    8.940362e-01
  2.510344e+01    9.013004e-01
  2.511931e+01    9.168571e-01
  2.513519e+01    9.140493e-01
  2.515107e+01    9.091063e-01
  2.516694e+01    8.997124e-01
  2.518282e+01    9.052303e-01
  2.519869e+01    9.089928e-01
  2.521457e+01    9.194328e-01
  2.523044e+01    9.211571e-01
  2.524632e+01    9.127102e-01
  2.526219e+01    9.273636e-01
  2.527807e+01    9.114292e-01
  2.529395e+01    9.341895e-01
  2.530982e+01    9.516234e-01
  2.532570e+01    9.540329e-01
  2.534157e+01    9.744377e-01
  2.535745e+01    9.966866e-01
  2.537332e+01    1.008137e+00
  2.538920e+01    9.955274e-01
  2.540507e+01    1.007983e+00
  2.542095e+01    1.009369e+00
  2.543683e+01    1.003848e+00
  2.545270e+01    1.035789e+00
  2.546858e+01    1.040511e+00
  2.548445e+01    1.044700e+00
  2.550033e+01    1.049044e+00
  2.551620e+01    1.057819e+00
  2.553208e+01    1.088779e+00
  2.554795e+01    1.106087e+00
  2.556383e+01    1.120132e+00
  2.557971e+01    1.153464e+00
  2.559558e+01    1.164924e+00
  2.561146e+01    1.198889e+00
  2.562733e+01    1.251277e+00
  2.564321e+01    1.284335e+00
  2.565908e+01    1.332015e+00
  2.567496e+01    1.403786e+00
  2.569083e+01    1.491647e+00
  2.570671e+01    1.557424e+00
  2.572259e+01    1.677933e+00
  2.573846e+01    1.814460e+00
  2.575434e+01    1.987547e+00
  2.577021e+01    2.177397e+00
  2.578609e+01    2.436607e+00
  2.580196e+01    2.753235e+00
  2.581784e+01    3.122532e+00
  2.583371e+01    3.562808e+00
  2.584959e+01    4.068808e+00
  2.586547e+01    4.576711e+00
  2.588134e+01    5.116328e+00
  2.589722e+01    5.695539e+00
  2.591309e+01    6.211780e+00
  2.592897e+01    6.695193e+00
  2.594484e+01    6.952580e+00
  2.596072e+01    7.066389e+00
  2.597660e+01    6.907173e+00
  2.599247e+01    6.541323e+00
  2.600835e+01    5.944771e+00
  2.602422e+01    5.280854e+00
  2.604010e+01    4.641372e+00
  2.605597e+01    3.955090e+00
  2.607185e+01    3.455210e+00
  2.608772e+01    3.013492e+00
  2.610360e+01    2.644204e+00
  2.611948e+01    2.372880e+00
  2.613535e+01    2.119797e+00
  2.615123e+01    1.943382e+00
  2.616710e+01    1.787120e+00
  2.618298e+01    1.668497e+00
  2.619885e+01    1.563612e+00
  2.621473e+01    1.493472e+00
  2.623060e+01    1.400491e+00
  2.624648e+01    1.320276e+00
  2.626236e+01    1.275885e+00
  2.627823e+01    1.238788e+00
  2.629411e+01    1.212503e+00
  2.630998e+01    1.176180e+00
  2.632586e+01    1.128200e+00
  2.634173e+01    1.130822e+00
  2.635761e+01    1.089786e+00
  2.637348e+01    1.086047e+00
  2.638936e+01    1.052025e+00
  2.640524e+01    1.065734e+00
  2.642111e+01    1.055470e+00
  2.643699e+01    1.042213e+00
  2.645286e+01    1.027982e+00
  2.646874e+01    1.001390e+00
  2.648461e+01    9.812906e-01
  2.650049e+01    9.836419e-01
  2.651636e+01    9.939552e-01
  2.653224e+01    1.000576e+00
  2.654812e+01    9.953683e-01
  2.656399e+01    9.763632e-01
  2.657987e+01    9.589752e-01
  2.659574e+01    9.563567e-01
  2.661162e+01    9.823819e-01
  2.662749e+01    1.008432e+00
  2.664337e+01    9.833435e-01
  2.665924e+01    9.573653e-01
  2.667512e+01    9.689004e-01
  2.669100e+01    9.636081e-01
  2.670687e+01    9.439315e-01
  2.672275e+01    9.453348e-01
  2.673862e+01    9.538800e-01
  2.675450e+01    9.697616e-01
  2.677037e+01    9.664071e-01
  2.678625e+01    9.642308e-01
  2.680212e+01    9.769490e-01
  2.681800e+01    9.680375e-01
  2.683388e+01    9.919836e-01
  2.684975e+01    9.795652e-01
  2.686563e+01    9.813235e-01
  2.688150e+01    9.942780e-01
  2.689738e+01    9.891571e-01
  2.691325e+01    9.763850e-01
  2.692913e+01    9.890223e-01
  2.694501e+01    1.017123e+00
  2.696088e+01    1.035404e+00
  2.697676e+01    1.029122e+00
  2.699263e+01    1.090521e+00
  2.700851e+01    1.119312e+00
  2.702438e+01    1.111749e+00
  2.704026e+01    1.180174e+00
  2.705613e+01    1.245926e+00
  2.707201e+01    1.309098e+00
  2.708789e+01    1.379923e+00
  2.710376e+01    1.471550e+00
  2.711964e+01    1.569370e+00
  2.713551e+01    1.687514e+00
  2.715139e+01    1.817659e+00
  2.716726e+01    1.930640e+00
  2.718314e+01    2.034847e+00
  2.719901e+01    2.121579e+00
  2.721489e+01    2.141461e+00
  2.723077e+01    2.128103e+00
  2.724664e+01    2.067514e+00
  2.726252e+01    1.969895e+00
  2.727839e+01    1.841159e+00
  2.729427e+01    1.699540e+00
  2.731014e+01    1.534892e+00
  2.732602e+01    1.431229e+00
  2.734189e+01    1.356765e+00
  2.735777e+01    1.281927e+00
  2.737365e+01    1.216464e+00
  2.738952e+01    1.176491e+00
  2.740540e+01    1.129091e+00
  2.742127e+01    1.076281e+00
  2.743715e+01    1.045530e+00
  2.745302e+01    1.033928e+00
  2.746890e+01    1.012971e+00
  2.748477e+01    1.008543e+00
  2.750065e+01    9.764792e-01
  2.751653e+01    9.704375e-01
  2.753240e+01    9.559084e-01
  2.754828e+01    9.589015e-01
  2.756415e+01    9.463465e-01
  2.758003e+01    9.283999e-01
  2.759590e+01    9.175575e-01
  2.761178e+01    9.331430e-01
  2.762765e+01    9.470170e-01
  2.764353e+01    9.188700e-01
  2.765941e+01    9.158117e-01
  2.767528e+01    8.905302e-01
  2.769116e+01    8.927473e-01
  2.770703e+01    9.163414e-01
  2.772291e+01    8.971700e-01
  2.773878e+01    8.984945e-01
  2.775466e+01    8.860908e-01
  2.777054e+01    8.857931e-01
  2.778641e+01    8.854235e-01
  2.780229e+01    8.881616e-01
  2.781816e+01    8.880965e-01
  2.783404e+01    8.809087e-01
  2.784991e+01    8.900672e-01
  2.786579e+01    8.795777e-01
  2.788166e+01    8.725075e-01
  2.789754e+01    8.622052e-01
  2.791342e+01    8.862762e-01
  2.792929e+01    8.878703e-01
  2.794517e+01    8.602338e-01
  2.796104e+01    8.521575e-01
  2.797692e+01    8.618144e-01
  2.799279e+01    8.584477e-01
  2.800867e+01    8.408931e-01
  2.802454e+01    8.204415e-01
  2.804042e+01    8.301956e-01
  2.805630e+01    8.428012e-01
  2.807217e+01    8.243186e-01
  2.808805e+01    8.398818e-01
  2.810392e+01    8.359191e-01
  2.811980e+01    8.538196e-01
  2.813567e+01    8.546245e-01
  2.815155e+01    8.277239e-01
  2.816742e+01    8.397377e-01
  2.818330e+01    8.660723e-01
  2.819918e+01    8.677819e-01
  2.821505e+01    8.683682e-01
  2.823093e+01    8.505147e-01
  2.824680e+01    8.457342e-01
  2.826268e+01    8.307873e-01
  2.827855e+01    8.429074e-01
  2.829443e+01    8.654104e-01
  2.831030e+01    8.382741e-01
  2.832618e+01    8.624802e-01
  2.834206e+01    8.442318e-01
  2.835793e+01    8.358513e-01
  2.837381e+01    8.446871e-01
  2.838968e+01    8.273789e-01
  2.840556e+01    8.234478e-01
  2.842143e+01    8.253207e-01
  2.843731e+01    8.336049e-01
  2.845318e+01    8.253759e-01
  2.846906e+01    8.453993e-01
  2.848494e+01    8.432060e-01
  2.850081e+01    8.565884e-01
  2.851669e+01    8.297383e-01
  2.853256e+01    8.395622e-01
  2.854844e+01    8.223603e-01
  2.856431e+01    8.494238e-01
  2.858019e+01    8.205072e-01
  2.859606e+01    8.143413e-01
  2.861194e+01    8.377166e-01
  2.862782e+01    8.502654e-01
  2.864369e+01    8.480460e-01
  2.865957e+01    8.430997e-01
  2.867544e+01    8.261811e-01
  2.869132e+01    8.178060e-01
  2.870719e+01    8.283608e-01
  2.872307e+01    8.235593e-01
  2.873895e+01    8.215145e-01
  2.875482e+01    8.398181e-01
  2.877070e+01    8.212612e-01
  2.878657e+01    8.058744e-01
  2.880245e+01    8.229439e-01
  2.881832e+01    8.347669e-01
  2.883420e+01    8.094562e-01
  2.885007e+01    8.065917e-01
  2.886595e+01    8.253417e-01
  2.888183e+01    8.175433e-01
  2.889770e+01    8.128047e-01
  2.891358e+01    8.379642e-01
  2.892945e+01    8.302693e-01
  2.894533e+01    8.296038e-01
  2.896120e+01    8.252422e-01
  2.897708e+01    8.047434e-01
  2.899295e+01    8.021780e-01
  2.900883e+01    8.075214e-01
  2.902471e+01    8.062176e-01
  2.904058e+01    8.217043e-01
  2.905646e+01    7.997670e-01
  2.907233e+01    8.063497e-01
  2.908821e+01    8.114728e-01
  2.910408e+01    8.288906e-01
  2.911996e+01    8.098651e-01
  2.913583e+01    8.059615e-01
  2.915171e+01    7.973129e-01
  2.916759e+01    7.845038e-01
  2.918346e+01    7.807489e-01
  2.919934e+01    8.067819e-01
  2.921521e+01    8.116392e-01
  2.923109e+01    7.977394e-01
  2.924696e+01    8.109514e-01
  2.926284e+01    8.109332e-01
  2.927871e+01    7.929528e-01
  2.929459e+01    8.018034e-01
  2.931047e+01    7.948769e-01
  2.932634e+01    8.130484e-01
  2.934222e+01    8.082216e-01
  2.935809e+01    8.010545e-01
  2.937397e+01    8.063396e-01
  2.938984e+01    8.008592e-01
  2.940572e+01    7.920871e-01
  2.942159e+01    7.947990e-01
  2.943747e+01    7.812933e-01
  2.945335e+01    7.940984e-01
  2.946922e+01    7.940142e-01
  2.948510e+01    8.015292e-01
  2.950097e+01    7.909705e-01
  2.951685e+01    7.910217e-01
  2.953272e+01    7.918473e-01
  2.954860e+01    7.847333e-01
  2.956447e+01    7.886317e-01
  2.958035e+01    8.175140e-01
  2.959623e+01    7.978826e-01
  2.961210e+01    7.975803e-01
  2.962798e+01    7.953319e-01
  2.964385e+01    7.854083e-01
  2.965973e+01    7.864749e-01
  2.967560e+01    8.113701e-01
  2.969148e+01    7.949230e-01
  2.970736e+01    7.914233e-01
  2.972323e+01    7.861105e-01
  2.973911e+01    7.912312e-01
  2.975498e+01    8.016289e-01
  2.977086e+01    8.158281e-01
  2.978673e+01    7.835037e-01
  2.980261e+01    7.706305e-01
  2.981848e+01    7.884600e-01
  2.983436e+01    8.037620e-01
  2.985024e+01    7.882058e-01
  2.986611e+01    7.717496e-01
  2.988199e+01    7.867296e-01
  2.989786e+01    7.938721e-01
  2.991374e+01    7.942919e-01
  2.992961e+01    7.702653e-01
  2.994549e+01    7.671519e-01
  2.996136e+01    7.795433e-01
  2.997724e+01    8.026215e-01
  2.999312e+01    7.901067e-01
  3.000899e+01    7.939634e-01
  3.002487e+01    8.003918e-01
  3.004074e+01    8.070396e-01
  3.005662e+01    8.124078e-01
  3.007249e+01    7.966653e-01
  3.008837e+01    8.027928e-01
  3.010424e+01    8.119698e-01
  3.012012e+01    8.033768e-01
  3.013600e+01    7.882504e-01
  3.015187e+01    7.838277e-01
  3.016775e+01    7.814844e-01
  3.018362e+01    7.818722e-01
  3.019950e+01    7.893100e-01
  3.021537e+01    8.015127e-01
  3.023125e+01    7.799541e-01
  3.024712e+01    7.740659e-01
  3.026300e+01    7.833112e-01
  3.027888e+01    7.775454e-01
  3.029475e+01    7.938844e-01
  3.031063e+01    7.902432e-01
  3.032650e+01    8.004677e-01
  3.034238e+01    7.839229e-01
  3.035825e+01    7.837159e-01
  3.037413e+01    7.934296e-01
  3.039000e+01    7.919981e-01
  3.040588e+01    7.971367e-01
  3.042176e+01    7.775707e-01
  3.043763e+01    7.664621e-01
  3.045351e+01    7.612907e-01
  3.046938e+01    7.627124e-01
  3.048526e+01    7.759673e-01
  3.050113e+01    7.723243e-01
  3.051701e+01    7.852571e-01
  3.053288e+01    7.833843e-01
  3.054876e+01    7.804157e-01
  3.056464e+01    7.837594e-01
  3.058051e+01    7.765892e-01
  3.059639e+01    7.807723e-01
  3.061226e+01    7.808459e-01
  3.062814e+01    7.863523e-01
  3.064401e+01    7.801046e-01
  3.065989e+01    7.752177e-01
  3.067577e+01    7.707011e-01
  3.069164e+01    7.839819e-01
  3.070752e+01    8.005406e-01
  3.072339e+01    7.862808e-01
  3.073927e+01    7.731651e-01
  3.075514e+01    7.845141e-01
  3.077102e+01    7.926722e-01
  3.078689e+01    7.844850e-01
  3.080277e+01    7.682706e-01
  3.081865e+01    7.613958e-01
  3.083452e+01    7.712855e-01
  3.085040e+01    7.854785e-01
  3.086627e+01    7.909674e-01
  3.088215e+01    7.883803e-01
  3.089802e+01    8.030812e-01
  3.091390e+01    7.706432e-01
  3.092977e+01    7.737500e-01
  3.094565e+01    7.676913e-01
  3.096153e+01    7.591969e-01
  3.097740e+01    7.710831e-01
  3.099328e+01    7.841560e-01
  3.100915e+01    7.961244e-01
  3.102503e+01    7.649385e-01
  3.104090e+01    7.956079e-01
  3.105678e+01    7.894292e-01
  3.107265e+01    7.763929e-01
  3.108853e+01    7.923077e-01
  3.110441e+01    7.933865e-01
  3.112028e+01    7.981001e-01
  3.113616e+01    7.753841e-01
  3.115203e+01    7.793773e-01
  3.116791e+01    7.801135e-01
  3.118378e+01    7.979609e-01
  3.119966e+01    7.796513e-01
  3.121553e+01    7.917851e-01
  3.123141e+01    7.733884e-01
  3.124729e+01    7.828877e-01
  3.126316e+01    7.819968e-01
  3.127904e+01    7.823822e-01
  3.129491e+01    7.643088e-01
  3.131079e+01    7.851988e-01
  3.132666e+01    7.932190e-01
  3.134254e+01    8.092488e-01
  3.135841e+01    8.164787e-01
  3.137429e+01    8.179900e-01
  3.139017e+01    8.088692e-01
  3.140604e+01    7.964563e-01
  3.142192e+01    7.834226e-01
  3.143779e+01    7.819369e-01
  3.145367e+01    7.912239e-01
  3.146954e+01    8.091311e-01
  3.148542e+01    8.165482e-01
  3.150129e+01    8.247756e-01
  3.151717e+01    8.225058e-01
  3.153305e+01    8.430552e-01
  3.154892e+01    8.343353e-01
  3.156480e+01    8.410863e-01
  3.158067e+01    8.405984e-01
  3.159655e+01    8.763996e-01
  3.161242e+01    8.634209e-01
  3.162830e+01    8.745424e-01
  3.164418e+01    8.947334e-01
  3.166005e+01    9.206320e-01
  3.167593e+01    9.556528e-01
  3.169180e+01    9.626619e-01
  3.170768e+01    9.842151e-01
  3.172355e+01    1.043041e+00
  3.173943e+01    1.099988e+00
  3.175530e+01    1.158027e+00
  3.177118e+01    1.242142e+00
  3.178706e+01    1.338583e+00
  3.180293e+01    1.425785e+00
  3.181881e+01    1.544750e+00
  3.183468e+01    1.672810e+00
  3.185056e+01    1.784300e+00
  3.186643e+01    1.918379e+00
  3.188231e+01    2.028233e+00
  3.189818e+01    2.066014e+00
  3.191406e+01    2.059007e+00
  3.192994e+01    2.037239e+00
  3.194581e+01    1.919108e+00
  3.196169e+01    1.788355e+00
  3.197756e+01    1.687174e+00
  3.199344e+01    1.537972e+00
  3.200931e+01    1.410146e+00
  3.202519e+01    1.325127e+00
  3.204106e+01    1.243055e+00
  3.205694e+01    1.163010e+00
  3.207282e+01    1.065940e+00
  3.208869e+01    1.036542e+00
  3.210457e+01    9.877636e-01
  3.212044e+01    9.480569e-01
  3.213632e+01    9.375454e-01
  3.215219e+01    9.022236e-01
  3.216807e+01    8.816664e-01
  3.218394e+01    8.572590e-01
  3.219982e+01    8.721442e-01
  3.221570e+01    8.585836e-01
  3.223157e+01    8.264256e-01
  3.224745e+01    8.278580e-01
  3.226332e+01    8.307579e-01
  3.227920e+01    7.973008e-01
  3.229507e+01    7.885583e-01
  3.231095e+01    8.227227e-01
  3.232682e+01    8.180301e-01
  3.234270e+01    7.999701e-01
  3.235858e+01    7.792237e-01
  3.237445e+01    7.807025e-01
  3.239033e+01    8.021672e-01
  3.240620e+01    7.777983e-01
  3.242208e+01    7.752962e-01
  3.243795e+01    7.727497e-01
  3.245383e+01    7.706181e-01
  3.246970e+01    7.645468e-01
  3.248558e+01    7.611673e-01
  3.250146e+01    7.722607e-01
  3.251733e+01    7.676069e-01
  3.253321e+01    7.759838e-01
  3.254908e+01    7.786986e-01
