# == pyFAI calibration ==
# Distance Sample to Detector: 0.3999999939076516 m
# PONI: 9.750e-02, 1.135e-01 m
# Rotations: -0.000175 0.000000 -0.000000 rad
# 
# == Fit2d calibration ==
# Distance Sample-beamCenter: 400.000 mm
# Center: x=1514.000, y=1300.000 pix
# Tilt: 0.010 deg  TiltPlanRot: 0.010 deg
# 
# Detector Detector	 Spline= None	 PixelSize= 7.500e-05, 7.500e-05 m
#    Detector has a mask: False 
#    Detector has a dark current: False 
#    detector has a flat field: False 
# 
# Wavelength: 6.888e-11 m
# Mask applied: user provided
# Dark current applied: False
# Flat field applied: False
# Polarization factor: 0.99
# Normalization factor: 1.0
# --> /home/myspot/data/2024_07_Rosario/Ru-CGO-ex/2024-07-27_003_Ru-CGO-ex_Reaction_dwell_000023_data_000109.dat
#       q_nm^-1             I 
  2.003187e-02    7.712225e-02
  3.590745e-02    6.421505e-02
  5.178302e-02    0.000000e+00
  6.765859e-02    4.685929e-02
  8.353417e-02    6.017690e-02
  9.940974e-02    8.392750e-02
  1.152853e-01    9.721219e-02
  1.311609e-01    7.755107e-02
  1.470365e-01    7.032244e-02
  1.629120e-01    6.154555e-02
  1.787876e-01    4.829203e-02
  1.946632e-01    3.649591e-02
  2.105388e-01    6.972704e-02
  2.264143e-01    7.101853e-02
  2.422899e-01    3.489761e-02
  2.581655e-01    1.218194e-02
  2.740411e-01    9.483862e-03
  2.899166e-01    1.636538e-02
  3.057922e-01    6.594566e-02
  3.216678e-01    6.369468e-02
  3.375433e-01    2.028477e-02
  3.534189e-01    1.500947e-02
  3.692945e-01    2.838259e-02
  3.851701e-01    4.587030e-02
  4.010456e-01    2.890451e-02
  4.169212e-01    5.211634e-02
  4.327968e-01    4.612963e-02
  4.486724e-01    1.808075e-02
  4.645479e-01    2.361181e-02
  4.804235e-01    3.490288e-02
  4.962991e-01    3.772801e-02
  5.121747e-01    2.508292e-02
  5.280502e-01    2.187096e-02
  5.439258e-01    1.703753e-02
  5.598014e-01    1.259132e-02
  5.756770e-01    4.277406e-02
  5.915525e-01    5.855414e-02
  6.074281e-01    4.611757e-02
  6.233037e-01    4.871560e-02
  6.391793e-01    3.086634e-02
  6.550548e-01    3.072674e-02
  6.709304e-01    3.182986e-02
  6.868060e-01    4.128529e-02
  7.026815e-01    5.340420e-02
  7.185571e-01    4.790503e-02
  7.344327e-01    4.334745e-02
  7.503083e-01    4.865315e-02
  7.661838e-01    9.309939e-02
  7.820594e-01    1.611712e-01
  7.979350e-01    1.828197e-01
  8.138106e-01    2.395690e-01
  8.296861e-01    2.835622e-01
  8.455617e-01    4.097577e-01
  8.614373e-01    4.835333e-01
  8.773129e-01    5.470748e-01
  8.931884e-01    6.502748e-01
  9.090640e-01    7.396750e-01
  9.249396e-01    7.660862e-01
  9.408152e-01    8.240761e-01
  9.566907e-01    8.908349e-01
  9.725663e-01    1.020577e+00
  9.884419e-01    1.093666e+00
  1.004317e+00    1.202582e+00
  1.020193e+00    1.314970e+00
  1.036069e+00    1.356972e+00
  1.051944e+00    1.361970e+00
  1.067820e+00    1.483844e+00
  1.083695e+00    1.456074e+00
  1.099571e+00    1.535369e+00
  1.115446e+00    1.590198e+00
  1.131322e+00    1.527126e+00
  1.147198e+00    1.582189e+00
  1.163073e+00    1.768035e+00
  1.178949e+00    1.721907e+00
  1.194824e+00    1.679795e+00
  1.210700e+00    1.952810e+00
  1.226575e+00    2.283155e+00
  1.242451e+00    2.333405e+00
  1.258327e+00    2.481497e+00
  1.274202e+00    2.588311e+00
  1.290078e+00    2.676040e+00
  1.305953e+00    2.669710e+00
  1.321829e+00    2.625629e+00
  1.337705e+00    2.783588e+00
  1.353580e+00    2.871037e+00
  1.369456e+00    2.840352e+00
  1.385331e+00    2.812599e+00
  1.401207e+00    2.811120e+00
  1.417082e+00    2.780327e+00
  1.432958e+00    2.888972e+00
  1.448834e+00    3.077819e+00
  1.464709e+00    3.131552e+00
  1.480585e+00    3.065037e+00
  1.496460e+00    3.091781e+00
  1.512336e+00    3.029048e+00
  1.528211e+00    3.139009e+00
  1.544087e+00    3.296994e+00
  1.559963e+00    3.143363e+00
  1.575838e+00    3.071882e+00
  1.591714e+00    3.171472e+00
  1.607589e+00    3.065002e+00
  1.623465e+00    3.066115e+00
  1.639340e+00    3.106344e+00
  1.655216e+00    3.196627e+00
  1.671092e+00    3.192559e+00
  1.686967e+00    3.115450e+00
  1.702843e+00    3.108762e+00
  1.718718e+00    3.034541e+00
  1.734594e+00    3.165632e+00
  1.750469e+00    3.203645e+00
  1.766345e+00    3.007998e+00
  1.782221e+00    2.984828e+00
  1.798096e+00    3.120636e+00
  1.813972e+00    3.077683e+00
  1.829847e+00    3.051270e+00
  1.845723e+00    3.059679e+00
  1.861598e+00    3.008741e+00
  1.877474e+00    3.058407e+00
  1.893350e+00    3.072128e+00
  1.909225e+00    3.131601e+00
  1.925101e+00    2.994835e+00
  1.940976e+00    3.032181e+00
  1.956852e+00    3.138037e+00
  1.972727e+00    2.930503e+00
  1.988603e+00    3.135924e+00
  2.004479e+00    3.108853e+00
  2.020354e+00    3.037064e+00
  2.036230e+00    3.049937e+00
  2.052105e+00    3.086483e+00
  2.067981e+00    3.064046e+00
  2.083856e+00    3.151053e+00
  2.099732e+00    3.133129e+00
  2.115608e+00    3.163083e+00
  2.131483e+00    2.972071e+00
  2.147359e+00    2.944780e+00
  2.163234e+00    3.048061e+00
  2.179110e+00    2.967295e+00
  2.194985e+00    3.057304e+00
  2.210861e+00    3.141170e+00
  2.226737e+00    3.088295e+00
  2.242612e+00    3.117308e+00
  2.258488e+00    3.122853e+00
  2.274363e+00    3.120516e+00
  2.290239e+00    3.146975e+00
  2.306115e+00    3.117420e+00
  2.321990e+00    3.138056e+00
  2.337866e+00    3.149197e+00
  2.353741e+00    3.114950e+00
  2.369617e+00    3.220108e+00
  2.385492e+00    3.189409e+00
  2.401368e+00    3.216966e+00
  2.417244e+00    3.373811e+00
  2.433119e+00    3.204912e+00
  2.448995e+00    3.202549e+00
  2.464870e+00    3.184890e+00
  2.480746e+00    3.178406e+00
  2.496621e+00    3.213265e+00
  2.512497e+00    3.241352e+00
  2.528373e+00    3.213795e+00
  2.544248e+00    3.218590e+00
  2.560124e+00    3.190474e+00
  2.575999e+00    3.162141e+00
  2.591875e+00    3.143936e+00
  2.607750e+00    3.129623e+00
  2.623626e+00    3.137179e+00
  2.639502e+00    3.224445e+00
  2.655377e+00    3.190817e+00
  2.671253e+00    3.290104e+00
  2.687128e+00    3.328917e+00
  2.703004e+00    3.329969e+00
  2.718879e+00    3.377400e+00
  2.734755e+00    3.352653e+00
  2.750631e+00    3.281733e+00
  2.766506e+00    3.324049e+00
  2.782382e+00    3.218206e+00
  2.798257e+00    3.218551e+00
  2.814133e+00    3.324284e+00
  2.830008e+00    3.252068e+00
  2.845884e+00    3.350705e+00
  2.861760e+00    3.374728e+00
  2.877635e+00    3.332000e+00
  2.893511e+00    3.357059e+00
  2.909386e+00    3.354692e+00
  2.925262e+00    3.273360e+00
  2.941137e+00    3.285158e+00
  2.957013e+00    3.391184e+00
  2.972889e+00    3.380939e+00
  2.988764e+00    3.405377e+00
  3.004640e+00    3.353937e+00
  3.020515e+00    3.364854e+00
  3.036391e+00    3.297843e+00
  3.052266e+00    3.314156e+00
  3.068142e+00    3.361993e+00
  3.084018e+00    3.426414e+00
  3.099893e+00    3.317867e+00
  3.115769e+00    3.293380e+00
  3.131644e+00    3.349874e+00
  3.147520e+00    3.352119e+00
  3.163395e+00    3.360809e+00
  3.179271e+00    3.407641e+00
  3.195147e+00    3.413160e+00
  3.211022e+00    3.511437e+00
  3.226898e+00    3.485822e+00
  3.242773e+00    3.390349e+00
  3.258649e+00    3.377380e+00
  3.274525e+00    3.442046e+00
  3.290400e+00    3.430675e+00
  3.306276e+00    3.465466e+00
  3.322151e+00    3.410948e+00
  3.338027e+00    3.429213e+00
  3.353902e+00    3.442364e+00
  3.369778e+00    3.440409e+00
  3.385654e+00    3.446382e+00
  3.401529e+00    3.412322e+00
  3.417405e+00    3.539554e+00
  3.433280e+00    3.514839e+00
  3.449156e+00    3.424103e+00
  3.465031e+00    3.415344e+00
  3.480907e+00    3.492455e+00
  3.496783e+00    3.463731e+00
  3.512658e+00    3.496418e+00
  3.528534e+00    3.438429e+00
  3.544409e+00    3.426186e+00
  3.560285e+00    3.465196e+00
  3.576160e+00    3.532840e+00
  3.592036e+00    3.573087e+00
  3.607912e+00    3.507406e+00
  3.623787e+00    3.435101e+00
  3.639663e+00    3.401732e+00
  3.655538e+00    3.464227e+00
  3.671414e+00    3.460974e+00
  3.687289e+00    3.444862e+00
  3.703165e+00    3.498318e+00
  3.719041e+00    3.518041e+00
  3.734916e+00    3.581207e+00
  3.750792e+00    3.512565e+00
  3.766667e+00    3.533295e+00
  3.782543e+00    3.496939e+00
  3.798418e+00    3.469341e+00
  3.814294e+00    3.528674e+00
  3.830170e+00    3.594096e+00
  3.846045e+00    3.565461e+00
  3.861921e+00    3.569185e+00
  3.877796e+00    3.577507e+00
  3.893672e+00    3.504564e+00
  3.909547e+00    3.585793e+00
  3.925423e+00    3.620333e+00
  3.941299e+00    3.518870e+00
  3.957174e+00    3.526706e+00
  3.973050e+00    3.545231e+00
  3.988925e+00    3.527075e+00
  4.004801e+00    3.522956e+00
  4.020676e+00    3.575765e+00
  4.036552e+00    3.576558e+00
  4.052428e+00    3.493519e+00
  4.068303e+00    3.530021e+00
  4.084179e+00    3.542842e+00
  4.100054e+00    3.554073e+00
  4.115930e+00    3.526858e+00
  4.131806e+00    3.489291e+00
  4.147681e+00    3.540287e+00
  4.163557e+00    3.644189e+00
  4.179432e+00    3.675271e+00
  4.195308e+00    3.495628e+00
  4.211183e+00    3.606095e+00
  4.227059e+00    3.663724e+00
  4.242935e+00    3.574146e+00
  4.258810e+00    3.495958e+00
  4.274686e+00    3.538431e+00
  4.290561e+00    3.587878e+00
  4.306437e+00    3.563286e+00
  4.322312e+00    3.676495e+00
  4.338188e+00    3.619352e+00
  4.354064e+00    3.575499e+00
  4.369939e+00    3.598771e+00
  4.385815e+00    3.656528e+00
  4.401690e+00    3.661577e+00
  4.417566e+00    3.653712e+00
  4.433441e+00    3.637329e+00
  4.449317e+00    3.592796e+00
  4.465193e+00    3.636748e+00
  4.481068e+00    3.646028e+00
  4.496944e+00    3.667819e+00
  4.512819e+00    3.579772e+00
  4.528695e+00    3.595715e+00
  4.544570e+00    3.581221e+00
  4.560446e+00    3.610012e+00
  4.576322e+00    3.676466e+00
  4.592197e+00    3.707638e+00
  4.608073e+00    3.615522e+00
  4.623948e+00    3.555791e+00
  4.639824e+00    3.634659e+00
  4.655699e+00    3.612673e+00
  4.671575e+00    3.562757e+00
  4.687451e+00    3.555640e+00
  4.703326e+00    3.632573e+00
  4.719202e+00    3.617400e+00
  4.735077e+00    3.624285e+00
  4.750953e+00    3.596668e+00
  4.766828e+00    3.589825e+00
  4.782704e+00    3.613542e+00
  4.798580e+00    3.611330e+00
  4.814455e+00    3.669338e+00
  4.830331e+00    3.714269e+00
  4.846206e+00    3.687167e+00
  4.862082e+00    3.667964e+00
  4.877957e+00    3.695800e+00
  4.893833e+00    3.723852e+00
  4.909709e+00    3.698958e+00
  4.925584e+00    3.637715e+00
  4.941460e+00    3.641279e+00
  4.957335e+00    3.624875e+00
  4.973211e+00    3.608006e+00
  4.989086e+00    3.651618e+00
  5.004962e+00    3.638304e+00
  5.020838e+00    3.739010e+00
  5.036713e+00    3.654751e+00
  5.052589e+00    3.609075e+00
  5.068464e+00    3.625475e+00
  5.084340e+00    3.663522e+00
  5.100216e+00    3.684520e+00
  5.116091e+00    3.714519e+00
  5.131967e+00    3.702236e+00
  5.147842e+00    3.723641e+00
  5.163718e+00    3.729536e+00
  5.179593e+00    3.750397e+00
  5.195469e+00    3.744205e+00
  5.211345e+00    3.765444e+00
  5.227220e+00    3.782562e+00
  5.243096e+00    3.706670e+00
  5.258971e+00    3.666326e+00
  5.274847e+00    3.608939e+00
  5.290722e+00    3.642328e+00
  5.306598e+00    3.622141e+00
  5.322474e+00    3.748027e+00
  5.338349e+00    3.719729e+00
  5.354225e+00    3.731808e+00
  5.370100e+00    3.724173e+00
  5.385976e+00    3.711221e+00
  5.401851e+00    3.647126e+00
  5.417727e+00    3.581839e+00
  5.433603e+00    3.619692e+00
  5.449478e+00    3.681077e+00
  5.465354e+00    3.665506e+00
  5.481229e+00    3.590352e+00
  5.497105e+00    3.612179e+00
  5.512980e+00    3.611381e+00
  5.528856e+00    3.663491e+00
  5.544732e+00    3.684043e+00
  5.560607e+00    3.685879e+00
  5.576483e+00    3.686890e+00
  5.592358e+00    3.752043e+00
  5.608234e+00    3.672205e+00
  5.624109e+00    3.605654e+00
  5.639985e+00    3.599321e+00
  5.655861e+00    3.488245e+00
  5.671736e+00    3.526073e+00
  5.687612e+00    3.635648e+00
  5.703487e+00    3.590892e+00
  5.719363e+00    3.610926e+00
  5.735238e+00    3.606526e+00
  5.751114e+00    3.618792e+00
  5.766990e+00    3.553456e+00
  5.782865e+00    3.553787e+00
  5.798741e+00    3.584606e+00
  5.814616e+00    3.594562e+00
  5.830492e+00    3.508799e+00
  5.846367e+00    3.535422e+00
  5.862243e+00    3.590847e+00
  5.878119e+00    3.566760e+00
  5.893994e+00    3.526880e+00
  5.909870e+00    3.541422e+00
  5.925745e+00    3.593388e+00
  5.941621e+00    3.534263e+00
  5.957497e+00    3.474590e+00
  5.973372e+00    3.511140e+00
  5.989248e+00    3.639127e+00
  6.005123e+00    3.607096e+00
  6.020999e+00    3.526289e+00
  6.036874e+00    3.505401e+00
  6.052750e+00    3.583225e+00
  6.068626e+00    3.536984e+00
  6.084501e+00    3.537248e+00
  6.100377e+00    3.577340e+00
  6.116252e+00    3.567665e+00
  6.132128e+00    3.465917e+00
  6.148003e+00    3.512648e+00
  6.163879e+00    3.613840e+00
  6.179755e+00    3.602340e+00
  6.195630e+00    3.565349e+00
  6.211506e+00    3.574853e+00
  6.227381e+00    3.561595e+00
  6.243257e+00    3.579705e+00
  6.259132e+00    3.602222e+00
  6.275008e+00    3.488463e+00
  6.290884e+00    3.539889e+00
  6.306759e+00    3.563560e+00
  6.322635e+00    3.551050e+00
  6.338510e+00    3.480392e+00
  6.354386e+00    3.540521e+00
  6.370261e+00    3.589276e+00
  6.386137e+00    3.525401e+00
  6.402013e+00    3.526023e+00
  6.417888e+00    3.543356e+00
  6.433764e+00    3.509634e+00
  6.449639e+00    3.556902e+00
  6.465515e+00    3.583847e+00
  6.481390e+00    3.617796e+00
  6.497266e+00    3.626694e+00
  6.513142e+00    3.566152e+00
  6.529017e+00    3.603076e+00
  6.544893e+00    3.557544e+00
  6.560768e+00    3.554734e+00
  6.576644e+00    3.548442e+00
  6.592519e+00    3.534270e+00
  6.608395e+00    3.644342e+00
  6.624271e+00    3.611100e+00
  6.640146e+00    3.524280e+00
  6.656022e+00    3.538778e+00
  6.671897e+00    3.555004e+00
  6.687773e+00    3.556149e+00
  6.703648e+00    3.572059e+00
  6.719524e+00    3.484560e+00
  6.735400e+00    3.514012e+00
  6.751275e+00    3.531462e+00
  6.767151e+00    3.553437e+00
  6.783026e+00    3.589183e+00
  6.798902e+00    3.609047e+00
  6.814777e+00    3.543602e+00
  6.830653e+00    3.591665e+00
  6.846529e+00    3.640389e+00
  6.862404e+00    3.589196e+00
  6.878280e+00    3.564604e+00
  6.894155e+00    3.533836e+00
  6.910031e+00    3.550501e+00
  6.925907e+00    3.525125e+00
  6.941782e+00    3.565931e+00
  6.957658e+00    3.621183e+00
  6.973533e+00    3.581276e+00
  6.989409e+00    3.560422e+00
  7.005284e+00    3.562988e+00
  7.021160e+00    3.514379e+00
  7.037036e+00    3.555013e+00
  7.052911e+00    3.459451e+00
  7.068787e+00    3.438392e+00
  7.084662e+00    3.427718e+00
  7.100538e+00    3.470141e+00
  7.116413e+00    3.552001e+00
  7.132289e+00    3.499611e+00
  7.148165e+00    3.492632e+00
  7.164040e+00    3.542359e+00
  7.179916e+00    3.608518e+00
  7.195791e+00    3.594737e+00
  7.211667e+00    3.512363e+00
  7.227542e+00    3.496342e+00
  7.243418e+00    3.551218e+00
  7.259294e+00    3.593805e+00
  7.275169e+00    3.532230e+00
  7.291045e+00    3.436220e+00
  7.306920e+00    3.477282e+00
  7.322796e+00    3.541826e+00
  7.338671e+00    3.525711e+00
  7.354547e+00    3.528968e+00
  7.370423e+00    3.587350e+00
  7.386298e+00    3.486513e+00
  7.402174e+00    3.485540e+00
  7.418049e+00    3.521416e+00
  7.433925e+00    3.539833e+00
  7.449800e+00    3.531264e+00
  7.465676e+00    3.616258e+00
  7.481552e+00    3.584226e+00
  7.497427e+00    3.476188e+00
  7.513303e+00    3.464203e+00
  7.529178e+00    3.511719e+00
  7.545054e+00    3.526381e+00
  7.560929e+00    3.516388e+00
  7.576805e+00    3.480814e+00
  7.592681e+00    3.495630e+00
  7.608556e+00    3.444660e+00
  7.624432e+00    3.462915e+00
  7.640307e+00    3.494323e+00
  7.656183e+00    3.505708e+00
  7.672058e+00    3.432643e+00
  7.687934e+00    3.478864e+00
  7.703810e+00    3.499951e+00
  7.719685e+00    3.530887e+00
  7.735561e+00    3.524248e+00
  7.751436e+00    3.515933e+00
  7.767312e+00    3.487715e+00
  7.783187e+00    3.528294e+00
  7.799063e+00    3.494432e+00
  7.814939e+00    3.490287e+00
  7.830814e+00    3.492106e+00
  7.846690e+00    3.455458e+00
  7.862565e+00    3.499108e+00
  7.878441e+00    3.470949e+00
  7.894317e+00    3.368431e+00
  7.910192e+00    3.416613e+00
  7.926068e+00    3.443992e+00
  7.941943e+00    3.386091e+00
  7.957819e+00    3.404354e+00
  7.973694e+00    3.448003e+00
  7.989570e+00    3.481564e+00
  8.005446e+00    3.439008e+00
  8.021321e+00    3.448599e+00
  8.037197e+00    3.480760e+00
  8.053072e+00    3.441053e+00
  8.068948e+00    3.440248e+00
  8.084823e+00    3.460764e+00
  8.100699e+00    3.477962e+00
  8.116575e+00    3.487551e+00
  8.132450e+00    3.459167e+00
  8.148326e+00    3.507859e+00
  8.164201e+00    3.415935e+00
  8.180077e+00    3.422346e+00
  8.195952e+00    3.492542e+00
  8.211828e+00    3.462263e+00
  8.227704e+00    3.473850e+00
  8.243579e+00    3.509536e+00
  8.259455e+00    3.499735e+00
  8.275330e+00    3.466970e+00
  8.291206e+00    3.430592e+00
  8.307081e+00    3.456215e+00
  8.322957e+00    3.472474e+00
  8.338833e+00    3.453991e+00
  8.354708e+00    3.465499e+00
  8.370584e+00    3.450444e+00
  8.386459e+00    3.480571e+00
  8.402335e+00    3.444308e+00
  8.418210e+00    3.431626e+00
  8.434086e+00    3.433061e+00
  8.449962e+00    3.458636e+00
  8.465837e+00    3.412039e+00
  8.481713e+00    3.406498e+00
  8.497588e+00    3.371124e+00
  8.513464e+00    3.369926e+00
  8.529339e+00    3.328535e+00
  8.545215e+00    3.381494e+00
  8.561091e+00    3.359454e+00
  8.576966e+00    3.355216e+00
  8.592842e+00    3.291636e+00
  8.608717e+00    3.298659e+00
  8.624593e+00    3.358835e+00
  8.640468e+00    3.412265e+00
  8.656344e+00    3.367244e+00
  8.672220e+00    3.350061e+00
  8.688095e+00    3.410941e+00
  8.703971e+00    3.378057e+00
  8.719846e+00    3.326797e+00
  8.735722e+00    3.317792e+00
  8.751598e+00    3.392478e+00
  8.767473e+00    3.346275e+00
  8.783349e+00    3.356115e+00
  8.799224e+00    3.383807e+00
  8.815100e+00    3.293617e+00
  8.830975e+00    3.264868e+00
  8.846851e+00    3.248842e+00
  8.862727e+00    3.273284e+00
  8.878602e+00    3.367226e+00
  8.894478e+00    3.307890e+00
  8.910353e+00    3.332411e+00
  8.926229e+00    3.352404e+00
  8.942104e+00    3.260599e+00
  8.957980e+00    3.277513e+00
  8.973856e+00    3.355659e+00
  8.989731e+00    3.277542e+00
  9.005607e+00    3.268528e+00
  9.021482e+00    3.239574e+00
  9.037358e+00    3.289733e+00
  9.053233e+00    3.282434e+00
  9.069109e+00    3.267534e+00
  9.084985e+00    3.296809e+00
  9.100860e+00    3.311097e+00
  9.116736e+00    3.290739e+00
  9.132611e+00    3.299587e+00
  9.148487e+00    3.300976e+00
  9.164362e+00    3.191818e+00
  9.180238e+00    3.267425e+00
  9.196114e+00    3.279985e+00
  9.211989e+00    3.265632e+00
  9.227865e+00    3.218817e+00
  9.243740e+00    3.267694e+00
  9.259616e+00    3.292948e+00
  9.275491e+00    3.275923e+00
  9.291367e+00    3.257010e+00
  9.307243e+00    3.259624e+00
  9.323118e+00    3.263909e+00
  9.338994e+00    3.267239e+00
  9.354869e+00    3.249138e+00
  9.370745e+00    3.230108e+00
  9.386620e+00    3.227550e+00
  9.402496e+00    3.199558e+00
  9.418372e+00    3.199202e+00
  9.434247e+00    3.242062e+00
  9.450123e+00    3.249883e+00
  9.465998e+00    3.248560e+00
  9.481874e+00    3.265673e+00
  9.497749e+00    3.217811e+00
  9.513625e+00    3.248995e+00
  9.529501e+00    3.238130e+00
  9.545376e+00    3.205598e+00
  9.561252e+00    3.196461e+00
  9.577127e+00    3.226311e+00
  9.593003e+00    3.213327e+00
  9.608878e+00    3.198070e+00
  9.624754e+00    3.227519e+00
  9.640630e+00    3.234304e+00
  9.656505e+00    3.214108e+00
  9.672381e+00    3.188998e+00
  9.688256e+00    3.151969e+00
  9.704132e+00    3.192186e+00
  9.720008e+00    3.213581e+00
  9.735883e+00    3.229147e+00
  9.751759e+00    3.190584e+00
  9.767634e+00    3.163342e+00
  9.783510e+00    3.119990e+00
  9.799385e+00    3.054490e+00
  9.815261e+00    3.146903e+00
  9.831137e+00    3.176863e+00
  9.847012e+00    3.208534e+00
  9.862888e+00    3.227683e+00
  9.878763e+00    3.189160e+00
  9.894639e+00    3.146377e+00
  9.910514e+00    3.109665e+00
  9.926390e+00    3.151546e+00
  9.942266e+00    3.165544e+00
  9.958141e+00    3.145633e+00
  9.974017e+00    3.132993e+00
  9.989892e+00    3.160829e+00
  1.000577e+01    3.120800e+00
  1.002164e+01    3.132746e+00
  1.003752e+01    3.152350e+00
  1.005339e+01    3.079800e+00
  1.006927e+01    3.117045e+00
  1.008515e+01    3.108913e+00
  1.010102e+01    3.102996e+00
  1.011690e+01    3.114939e+00
  1.013277e+01    3.120300e+00
  1.014865e+01    3.151976e+00
  1.016452e+01    3.103698e+00
  1.018040e+01    3.084785e+00
  1.019627e+01    3.084528e+00
  1.021215e+01    3.044836e+00
  1.022803e+01    3.064630e+00
  1.024390e+01    3.075870e+00
  1.025978e+01    3.051908e+00
  1.027565e+01    3.040950e+00
  1.029153e+01    3.046412e+00
  1.030740e+01    3.066449e+00
  1.032328e+01    3.040716e+00
  1.033915e+01    3.034478e+00
  1.035503e+01    3.056937e+00
  1.037091e+01    3.092834e+00
  1.038678e+01    3.101468e+00
  1.040266e+01    3.067066e+00
  1.041853e+01    3.005085e+00
  1.043441e+01    2.994596e+00
  1.045028e+01    3.003634e+00
  1.046616e+01    3.048729e+00
  1.048204e+01    3.052740e+00
  1.049791e+01    3.003668e+00
  1.051379e+01    2.998519e+00
  1.052966e+01    3.001908e+00
  1.054554e+01    3.025517e+00
  1.056141e+01    3.014837e+00
  1.057729e+01    3.004776e+00
  1.059316e+01    3.036350e+00
  1.060904e+01    3.023887e+00
  1.062492e+01    3.047624e+00
  1.064079e+01    2.996278e+00
  1.065667e+01    2.943859e+00
  1.067254e+01    2.976243e+00
  1.068842e+01    2.922317e+00
  1.070429e+01    2.956857e+00
  1.072017e+01    3.024899e+00
  1.073604e+01    3.011488e+00
  1.075192e+01    3.016124e+00
  1.076780e+01    2.976191e+00
  1.078367e+01    2.934476e+00
  1.079955e+01    2.952501e+00
  1.081542e+01    2.952853e+00
  1.083130e+01    2.968885e+00
  1.084717e+01    2.904561e+00
  1.086305e+01    2.948251e+00
  1.087892e+01    2.926697e+00
  1.089480e+01    2.935704e+00
  1.091068e+01    2.939927e+00
  1.092655e+01    2.919398e+00
  1.094243e+01    2.918564e+00
  1.095830e+01    2.945139e+00
  1.097418e+01    2.913974e+00
  1.099005e+01    2.895233e+00
  1.100593e+01    2.912555e+00
  1.102180e+01    2.905066e+00
  1.103768e+01    2.894872e+00
  1.105356e+01    2.929289e+00
  1.106943e+01    2.954821e+00
  1.108531e+01    2.909138e+00
  1.110118e+01    2.925683e+00
  1.111706e+01    2.881925e+00
  1.113293e+01    2.851247e+00
  1.114881e+01    2.917068e+00
  1.116468e+01    2.913323e+00
  1.118056e+01    2.864091e+00
  1.119644e+01    2.873302e+00
  1.121231e+01    2.879095e+00
  1.122819e+01    2.884341e+00
  1.124406e+01    2.847048e+00
  1.125994e+01    2.868134e+00
  1.127581e+01    2.837691e+00
  1.129169e+01    2.827954e+00
  1.130756e+01    2.789804e+00
  1.132344e+01    2.849784e+00
  1.133932e+01    2.814085e+00
  1.135519e+01    2.841061e+00
  1.137107e+01    2.859345e+00
  1.138694e+01    2.874208e+00
  1.140282e+01    2.879740e+00
  1.141869e+01    2.794038e+00
  1.143457e+01    2.811319e+00
  1.145045e+01    2.842249e+00
  1.146632e+01    2.763635e+00
  1.148220e+01    2.812949e+00
  1.149807e+01    2.867772e+00
  1.151395e+01    2.830382e+00
  1.152982e+01    2.801139e+00
  1.154570e+01    2.818869e+00
  1.156157e+01    2.803098e+00
  1.157745e+01    2.774674e+00
  1.159333e+01    2.717525e+00
  1.160920e+01    2.786057e+00
  1.162508e+01    2.797204e+00
  1.164095e+01    2.744138e+00
  1.165683e+01    2.792877e+00
  1.167270e+01    2.818240e+00
  1.168858e+01    2.811908e+00
  1.170445e+01    2.754412e+00
  1.172033e+01    2.743073e+00
  1.173621e+01    2.761920e+00
  1.175208e+01    2.730168e+00
  1.176796e+01    2.714211e+00
  1.178383e+01    2.773501e+00
  1.179971e+01    2.777283e+00
  1.181558e+01    2.772793e+00
  1.183146e+01    2.788712e+00
  1.184733e+01    2.799129e+00
  1.186321e+01    2.770983e+00
  1.187909e+01    2.730323e+00
  1.189496e+01    2.742452e+00
  1.191084e+01    2.750422e+00
  1.192671e+01    2.771191e+00
  1.194259e+01    2.772542e+00
  1.195846e+01    2.781262e+00
  1.197434e+01    2.756702e+00
  1.199021e+01    2.671978e+00
  1.200609e+01    2.666767e+00
  1.202197e+01    2.740718e+00
  1.203784e+01    2.689776e+00
  1.205372e+01    2.738715e+00
  1.206959e+01    2.743395e+00
  1.208547e+01    2.723177e+00
  1.210134e+01    2.726298e+00
  1.211722e+01    2.725121e+00
  1.213309e+01    2.740964e+00
  1.214897e+01    2.761880e+00
  1.216485e+01    2.731850e+00
  1.218072e+01    2.697512e+00
  1.219660e+01    2.687117e+00
  1.221247e+01    2.728867e+00
  1.222835e+01    2.770679e+00
  1.224422e+01    2.728230e+00
  1.226010e+01    2.667875e+00
  1.227597e+01    2.659636e+00
  1.229185e+01    2.678625e+00
  1.230773e+01    2.672930e+00
  1.232360e+01    2.684044e+00
  1.233948e+01    2.740389e+00
  1.235535e+01    2.755747e+00
  1.237123e+01    2.724545e+00
  1.238710e+01    2.696530e+00
  1.240298e+01    2.706406e+00
  1.241886e+01    2.738833e+00
  1.243473e+01    2.740608e+00
  1.245061e+01    2.673635e+00
  1.246648e+01    2.687452e+00
  1.248236e+01    2.762696e+00
  1.249823e+01    2.781638e+00
  1.251411e+01    2.759636e+00
  1.252998e+01    2.714626e+00
  1.254586e+01    2.716759e+00
  1.256174e+01    2.759662e+00
  1.257761e+01    2.741387e+00
  1.259349e+01    2.755333e+00
  1.260936e+01    2.722171e+00
  1.262524e+01    2.714083e+00
  1.264111e+01    2.760592e+00
  1.265699e+01    2.842146e+00
  1.267286e+01    2.810904e+00
  1.268874e+01    2.820751e+00
  1.270462e+01    2.826107e+00
  1.272049e+01    2.879577e+00
  1.273637e+01    2.898320e+00
  1.275224e+01    2.901711e+00
  1.276812e+01    2.927820e+00
  1.278399e+01    3.011524e+00
  1.279987e+01    3.080523e+00
  1.281574e+01    3.059556e+00
  1.283162e+01    3.132196e+00
  1.284750e+01    3.145270e+00
  1.286337e+01    3.257829e+00
  1.287925e+01    3.404730e+00
  1.289512e+01    3.484347e+00
  1.291100e+01    3.686555e+00
  1.292687e+01    3.847713e+00
  1.294275e+01    4.140502e+00
  1.295862e+01    4.416377e+00
  1.297450e+01    4.838362e+00
  1.299038e+01    5.241015e+00
  1.300625e+01    5.921370e+00
  1.302213e+01    6.750510e+00
  1.303800e+01    7.711052e+00
  1.305388e+01    8.934324e+00
  1.306975e+01    1.024866e+01
  1.308563e+01    1.160684e+01
  1.310150e+01    1.279740e+01
  1.311738e+01    1.387122e+01
  1.313326e+01    1.475973e+01
  1.314913e+01    1.562871e+01
  1.316501e+01    1.627913e+01
  1.318088e+01    1.636411e+01
  1.319676e+01    1.570172e+01
  1.321263e+01    1.438510e+01
  1.322851e+01    1.259334e+01
  1.324438e+01    1.076160e+01
  1.326026e+01    9.143190e+00
  1.327614e+01    7.810645e+00
  1.329201e+01    6.845335e+00
  1.330789e+01    5.955933e+00
  1.332376e+01    5.462282e+00
  1.333964e+01    4.883867e+00
  1.335551e+01    4.426820e+00
  1.337139e+01    4.159559e+00
  1.338727e+01    3.917444e+00
  1.340314e+01    3.688384e+00
  1.341902e+01    3.496802e+00
  1.343489e+01    3.335307e+00
  1.345077e+01    3.220154e+00
  1.346664e+01    3.143627e+00
  1.348252e+01    3.071833e+00
  1.349839e+01    3.014594e+00
  1.351427e+01    2.962845e+00
  1.353015e+01    2.894708e+00
  1.354602e+01    2.842843e+00
  1.356190e+01    2.812348e+00
  1.357777e+01    2.737802e+00
  1.359365e+01    2.679730e+00
  1.360952e+01    2.678168e+00
  1.362540e+01    2.646438e+00
  1.364127e+01    2.627101e+00
  1.365715e+01    2.677081e+00
  1.367303e+01    2.634165e+00
  1.368890e+01    2.617526e+00
  1.370478e+01    2.529788e+00
  1.372065e+01    2.557932e+00
  1.373653e+01    2.550047e+00
  1.375240e+01    2.524161e+00
  1.376828e+01    2.538287e+00
  1.378415e+01    2.499084e+00
  1.380003e+01    2.489775e+00
  1.381591e+01    2.472362e+00
  1.383178e+01    2.504390e+00
  1.384766e+01    2.465734e+00
  1.386353e+01    2.390719e+00
  1.387941e+01    2.399488e+00
  1.389528e+01    2.435370e+00
  1.391116e+01    2.420179e+00
  1.392703e+01    2.396384e+00
  1.394291e+01    2.380525e+00
  1.395879e+01    2.353306e+00
  1.397466e+01    2.351548e+00
  1.399054e+01    2.403461e+00
  1.400641e+01    2.419692e+00
  1.402229e+01    2.396815e+00
  1.403816e+01    2.371140e+00
  1.405404e+01    2.349798e+00
  1.406991e+01    2.316722e+00
  1.408579e+01    2.365291e+00
  1.410167e+01    2.371825e+00
  1.411754e+01    2.380028e+00
  1.413342e+01    2.328490e+00
  1.414929e+01    2.326730e+00
  1.416517e+01    2.301918e+00
  1.418104e+01    2.331911e+00
  1.419692e+01    2.286500e+00
  1.421279e+01    2.288769e+00
  1.422867e+01    2.322468e+00
  1.424455e+01    2.321779e+00
  1.426042e+01    2.313810e+00
  1.427630e+01    2.287585e+00
  1.429217e+01    2.257272e+00
  1.430805e+01    2.287366e+00
  1.432392e+01    2.302615e+00
  1.433980e+01    2.252957e+00
  1.435568e+01    2.256063e+00
  1.437155e+01    2.272860e+00
  1.438743e+01    2.211384e+00
  1.440330e+01    2.245413e+00
  1.441918e+01    2.264556e+00
  1.443505e+01    2.223156e+00
  1.445093e+01    2.239088e+00
  1.446680e+01    2.226970e+00
  1.448268e+01    2.214655e+00
  1.449856e+01    2.232203e+00
  1.451443e+01    2.212699e+00
  1.453031e+01    2.212434e+00
  1.454618e+01    2.232505e+00
  1.456206e+01    2.253068e+00
  1.457793e+01    2.226558e+00
  1.459381e+01    2.227078e+00
  1.460968e+01    2.186013e+00
  1.462556e+01    2.162339e+00
  1.464144e+01    2.213194e+00
  1.465731e+01    2.224366e+00
  1.467319e+01    2.221649e+00
  1.468906e+01    2.193803e+00
  1.470494e+01    2.201699e+00
  1.472081e+01    2.208918e+00
  1.473669e+01    2.210306e+00
  1.475256e+01    2.213173e+00
  1.476844e+01    2.238986e+00
  1.478432e+01    2.206870e+00
  1.480019e+01    2.211847e+00
  1.481607e+01    2.194353e+00
  1.483194e+01    2.215849e+00
  1.484782e+01    2.225563e+00
  1.486369e+01    2.227683e+00
  1.487957e+01    2.251618e+00
  1.489544e+01    2.265183e+00
  1.491132e+01    2.303627e+00
  1.492720e+01    2.275734e+00
  1.494307e+01    2.322628e+00
  1.495895e+01    2.327178e+00
  1.497482e+01    2.354978e+00
  1.499070e+01    2.402076e+00
  1.500657e+01    2.483284e+00
  1.502245e+01    2.527946e+00
  1.503832e+01    2.595240e+00
  1.505420e+01    2.671839e+00
  1.507008e+01    2.826037e+00
  1.508595e+01    3.034317e+00
  1.510183e+01    3.271501e+00
  1.511770e+01    3.521868e+00
  1.513358e+01    3.781944e+00
  1.514945e+01    4.157745e+00
  1.516533e+01    4.530164e+00
  1.518120e+01    4.965660e+00
  1.519708e+01    5.257369e+00
  1.521296e+01    5.486503e+00
  1.522883e+01    5.667574e+00
  1.524471e+01    5.803175e+00
  1.526058e+01    5.877596e+00
  1.527646e+01    5.733113e+00
  1.529233e+01    5.547904e+00
  1.530821e+01    5.174083e+00
  1.532409e+01    4.693398e+00
  1.533996e+01    4.241128e+00
  1.535584e+01    3.774629e+00
  1.537171e+01    3.457221e+00
  1.538759e+01    3.217703e+00
  1.540346e+01    2.987066e+00
  1.541934e+01    2.755963e+00
  1.543521e+01    2.620362e+00
  1.545109e+01    2.501705e+00
  1.546697e+01    2.415202e+00
  1.548284e+01    2.387540e+00
  1.549872e+01    2.311546e+00
  1.551459e+01    2.283891e+00
  1.553047e+01    2.224744e+00
  1.554634e+01    2.176198e+00
  1.556222e+01    2.134113e+00
  1.557809e+01    2.104554e+00
  1.559397e+01    2.093657e+00
  1.560985e+01    2.086297e+00
  1.562572e+01    2.068871e+00
  1.564160e+01    2.067160e+00
  1.565747e+01    2.050652e+00
  1.567335e+01    2.047365e+00
  1.568922e+01    2.006450e+00
  1.570510e+01    1.962797e+00
  1.572097e+01    1.954622e+00
  1.573685e+01    1.993849e+00
  1.575273e+01    1.999833e+00
  1.576860e+01    1.946187e+00
  1.578448e+01    1.961137e+00
  1.580035e+01    1.968997e+00
  1.581623e+01    1.990768e+00
  1.583210e+01    1.979021e+00
  1.584798e+01    1.949757e+00
  1.586385e+01    1.920326e+00
  1.587973e+01    1.882989e+00
  1.589561e+01    1.918305e+00
  1.591148e+01    1.904264e+00
  1.592736e+01    1.913201e+00
  1.594323e+01    1.894166e+00
  1.595911e+01    1.873177e+00
  1.597498e+01    1.862945e+00
  1.599086e+01    1.907769e+00
  1.600673e+01    1.871293e+00
  1.602261e+01    1.869737e+00
  1.603849e+01    1.868528e+00
  1.605436e+01    1.900986e+00
  1.607024e+01    1.885997e+00
  1.608611e+01    1.874787e+00
  1.610199e+01    1.903263e+00
  1.611786e+01    1.875541e+00
  1.613374e+01    1.903774e+00
  1.614961e+01    1.876597e+00
  1.616549e+01    1.867342e+00
  1.618137e+01    1.841027e+00
  1.619724e+01    1.842129e+00
  1.621312e+01    1.850324e+00
  1.622899e+01    1.815586e+00
  1.624487e+01    1.807051e+00
  1.626074e+01    1.839995e+00
  1.627662e+01    1.851193e+00
  1.629250e+01    1.780833e+00
  1.630837e+01    1.771201e+00
  1.632425e+01    1.771153e+00
  1.634012e+01    1.801952e+00
  1.635600e+01    1.789813e+00
  1.637187e+01    1.804401e+00
  1.638775e+01    1.793790e+00
  1.640362e+01    1.800353e+00
  1.641950e+01    1.771719e+00
  1.643538e+01    1.792493e+00
  1.645125e+01    1.801767e+00
  1.646713e+01    1.790979e+00
  1.648300e+01    1.785436e+00
  1.649888e+01    1.778524e+00
  1.651475e+01    1.753495e+00
  1.653063e+01    1.761423e+00
  1.654650e+01    1.745989e+00
  1.656238e+01    1.740645e+00
  1.657826e+01    1.750279e+00
  1.659413e+01    1.744237e+00
  1.661001e+01    1.746529e+00
  1.662588e+01    1.733317e+00
  1.664176e+01    1.761312e+00
  1.665763e+01    1.784860e+00
  1.667351e+01    1.744241e+00
  1.668938e+01    1.732371e+00
  1.670526e+01    1.728555e+00
  1.672114e+01    1.726474e+00
  1.673701e+01    1.728930e+00
  1.675289e+01    1.723890e+00
  1.676876e+01    1.729407e+00
  1.678464e+01    1.725418e+00
  1.680051e+01    1.710844e+00
  1.681639e+01    1.691105e+00
  1.683226e+01    1.703874e+00
  1.684814e+01    1.698279e+00
  1.686402e+01    1.695625e+00
  1.687989e+01    1.731612e+00
  1.689577e+01    1.704988e+00
  1.691164e+01    1.675587e+00
  1.692752e+01    1.667951e+00
  1.694339e+01    1.680805e+00
  1.695927e+01    1.682841e+00
  1.697514e+01    1.702021e+00
  1.699102e+01    1.697541e+00
  1.700690e+01    1.691201e+00
  1.702277e+01    1.701503e+00
  1.703865e+01    1.674786e+00
  1.705452e+01    1.637721e+00
  1.707040e+01    1.671155e+00
  1.708627e+01    1.652301e+00
  1.710215e+01    1.678064e+00
  1.711802e+01    1.670771e+00
  1.713390e+01    1.661101e+00
  1.714978e+01    1.660581e+00
  1.716565e+01    1.642155e+00
  1.718153e+01    1.630138e+00
  1.719740e+01    1.621473e+00
  1.721328e+01    1.628757e+00
  1.722915e+01    1.623933e+00
  1.724503e+01    1.627384e+00
  1.726091e+01    1.638596e+00
  1.727678e+01    1.595428e+00
  1.729266e+01    1.602258e+00
  1.730853e+01    1.615697e+00
  1.732441e+01    1.639056e+00
  1.734028e+01    1.631904e+00
  1.735616e+01    1.643338e+00
  1.737203e+01    1.627157e+00
  1.738791e+01    1.633926e+00
  1.740379e+01    1.613768e+00
  1.741966e+01    1.621864e+00
  1.743554e+01    1.580042e+00
  1.745141e+01    1.625824e+00
  1.746729e+01    1.633991e+00
  1.748316e+01    1.585250e+00
  1.749904e+01    1.595997e+00
  1.751491e+01    1.612180e+00
  1.753079e+01    1.583248e+00
  1.754667e+01    1.579219e+00
  1.756254e+01    1.592115e+00
  1.757842e+01    1.604129e+00
  1.759429e+01    1.612806e+00
  1.761017e+01    1.585677e+00
  1.762604e+01    1.546458e+00
  1.764192e+01    1.562497e+00
  1.765779e+01    1.546214e+00
  1.767367e+01    1.564997e+00
  1.768955e+01    1.555140e+00
  1.770542e+01    1.575750e+00
  1.772130e+01    1.580085e+00
  1.773717e+01    1.560883e+00
  1.775305e+01    1.580944e+00
  1.776892e+01    1.572294e+00
  1.778480e+01    1.585804e+00
  1.780067e+01    1.563799e+00
  1.781655e+01    1.559052e+00
  1.783243e+01    1.569071e+00
  1.784830e+01    1.556667e+00
  1.786418e+01    1.554480e+00
  1.788005e+01    1.521489e+00
  1.789593e+01    1.547431e+00
  1.791180e+01    1.526128e+00
  1.792768e+01    1.514075e+00
  1.794355e+01    1.506621e+00
  1.795943e+01    1.515849e+00
  1.797531e+01    1.518676e+00
  1.799118e+01    1.518220e+00
  1.800706e+01    1.529291e+00
  1.802293e+01    1.516152e+00
  1.803881e+01    1.534307e+00
  1.805468e+01    1.486240e+00
  1.807056e+01    1.493314e+00
  1.808643e+01    1.501878e+00
  1.810231e+01    1.487951e+00
  1.811819e+01    1.497717e+00
  1.813406e+01    1.505375e+00
  1.814994e+01    1.508459e+00
  1.816581e+01    1.463456e+00
  1.818169e+01    1.487618e+00
  1.819756e+01    1.477067e+00
  1.821344e+01    1.473433e+00
  1.822932e+01    1.451371e+00
  1.824519e+01    1.453111e+00
  1.826107e+01    1.470428e+00
  1.827694e+01    1.494399e+00
  1.829282e+01    1.482703e+00
  1.830869e+01    1.470060e+00
  1.832457e+01    1.469393e+00
  1.834044e+01    1.460281e+00
  1.835632e+01    1.486495e+00
  1.837220e+01    1.503674e+00
  1.838807e+01    1.475819e+00
  1.840395e+01    1.471859e+00
  1.841982e+01    1.484255e+00
  1.843570e+01    1.468070e+00
  1.845157e+01    1.424726e+00
  1.846745e+01    1.415511e+00
  1.848332e+01    1.465858e+00
  1.849920e+01    1.476535e+00
  1.851508e+01    1.441026e+00
  1.853095e+01    1.438417e+00
  1.854683e+01    1.441560e+00
  1.856270e+01    1.460880e+00
  1.857858e+01    1.442428e+00
  1.859445e+01    1.415387e+00
  1.861033e+01    1.459183e+00
  1.862620e+01    1.457554e+00
  1.864208e+01    1.412856e+00
  1.865796e+01    1.434506e+00
  1.867383e+01    1.431890e+00
  1.868971e+01    1.435887e+00
  1.870558e+01    1.448460e+00
  1.872146e+01    1.439198e+00
  1.873733e+01    1.425703e+00
  1.875321e+01    1.429280e+00
  1.876908e+01    1.408701e+00
  1.878496e+01    1.436638e+00
  1.880084e+01    1.443623e+00
  1.881671e+01    1.431481e+00
  1.883259e+01    1.412504e+00
  1.884846e+01    1.380968e+00
  1.886434e+01    1.403784e+00
  1.888021e+01    1.429702e+00
  1.889609e+01    1.408758e+00
  1.891196e+01    1.395226e+00
  1.892784e+01    1.380404e+00
  1.894372e+01    1.424263e+00
  1.895959e+01    1.406912e+00
  1.897547e+01    1.382590e+00
  1.899134e+01    1.384149e+00
  1.900722e+01    1.407659e+00
  1.902309e+01    1.391391e+00
  1.903897e+01    1.380015e+00
  1.905484e+01    1.388076e+00
  1.907072e+01    1.374451e+00
  1.908660e+01    1.368548e+00
  1.910247e+01    1.365416e+00
  1.911835e+01    1.376564e+00
  1.913422e+01    1.368730e+00
  1.915010e+01    1.408043e+00
  1.916597e+01    1.347940e+00
  1.918185e+01    1.339995e+00
  1.919773e+01    1.353931e+00
  1.921360e+01    1.358740e+00
  1.922948e+01    1.362289e+00
  1.924535e+01    1.338711e+00
  1.926123e+01    1.348649e+00
  1.927710e+01    1.350266e+00
  1.929298e+01    1.341697e+00
  1.930885e+01    1.343558e+00
  1.932473e+01    1.333780e+00
  1.934061e+01    1.344344e+00
  1.935648e+01    1.352863e+00
  1.937236e+01    1.357689e+00
  1.938823e+01    1.345082e+00
  1.940411e+01    1.348846e+00
  1.941998e+01    1.355210e+00
  1.943586e+01    1.331400e+00
  1.945173e+01    1.325164e+00
  1.946761e+01    1.330052e+00
  1.948349e+01    1.309265e+00
  1.949936e+01    1.329098e+00
  1.951524e+01    1.334469e+00
  1.953111e+01    1.336695e+00
  1.954699e+01    1.329747e+00
  1.956286e+01    1.335216e+00
  1.957874e+01    1.301362e+00
  1.959461e+01    1.322432e+00
  1.961049e+01    1.313824e+00
  1.962637e+01    1.294487e+00
  1.964224e+01    1.331131e+00
  1.965812e+01    1.317123e+00
  1.967399e+01    1.320204e+00
  1.968987e+01    1.305644e+00
  1.970574e+01    1.310949e+00
  1.972162e+01    1.333078e+00
  1.973749e+01    1.328843e+00
  1.975337e+01    1.301883e+00
  1.976925e+01    1.309438e+00
  1.978512e+01    1.311850e+00
  1.980100e+01    1.316164e+00
  1.981687e+01    1.288484e+00
  1.983275e+01    1.309239e+00
  1.984862e+01    1.299095e+00
  1.986450e+01    1.304510e+00
  1.988037e+01    1.276104e+00
  1.989625e+01    1.300187e+00
  1.991213e+01    1.314430e+00
  1.992800e+01    1.298822e+00
  1.994388e+01    1.305303e+00
  1.995975e+01    1.296182e+00
  1.997563e+01    1.312580e+00
  1.999150e+01    1.287381e+00
  2.000738e+01    1.274937e+00
  2.002325e+01    1.274317e+00
  2.003913e+01    1.286162e+00
  2.005501e+01    1.289245e+00
  2.007088e+01    1.277015e+00
  2.008676e+01    1.298006e+00
  2.010263e+01    1.301203e+00
  2.011851e+01    1.295396e+00
  2.013438e+01    1.280732e+00
  2.015026e+01    1.269210e+00
  2.016614e+01    1.243503e+00
  2.018201e+01    1.265498e+00
  2.019789e+01    1.272072e+00
  2.021376e+01    1.253316e+00
  2.022964e+01    1.229902e+00
  2.024551e+01    1.272587e+00
  2.026139e+01    1.261629e+00
  2.027726e+01    1.255476e+00
  2.029314e+01    1.243062e+00
  2.030902e+01    1.257554e+00
  2.032489e+01    1.247564e+00
  2.034077e+01    1.233030e+00
  2.035664e+01    1.249023e+00
  2.037252e+01    1.258452e+00
  2.038839e+01    1.238147e+00
  2.040427e+01    1.239608e+00
  2.042014e+01    1.255287e+00
  2.043602e+01    1.270681e+00
  2.045190e+01    1.236133e+00
  2.046777e+01    1.249581e+00
  2.048365e+01    1.252913e+00
  2.049952e+01    1.259535e+00
  2.051540e+01    1.246765e+00
  2.053127e+01    1.276868e+00
  2.054715e+01    1.250930e+00
  2.056302e+01    1.220467e+00
  2.057890e+01    1.222498e+00
  2.059478e+01    1.259247e+00
  2.061065e+01    1.259256e+00
  2.062653e+01    1.249539e+00
  2.064240e+01    1.235941e+00
  2.065828e+01    1.225769e+00
  2.067415e+01    1.227283e+00
  2.069003e+01    1.217204e+00
  2.070590e+01    1.214885e+00
  2.072178e+01    1.222334e+00
  2.073766e+01    1.221650e+00
  2.075353e+01    1.248796e+00
  2.076941e+01    1.226007e+00
  2.078528e+01    1.206480e+00
  2.080116e+01    1.229192e+00
  2.081703e+01    1.237173e+00
  2.083291e+01    1.254504e+00
  2.084878e+01    1.253887e+00
  2.086466e+01    1.248739e+00
  2.088054e+01    1.233404e+00
  2.089641e+01    1.230734e+00
  2.091229e+01    1.261874e+00
  2.092816e+01    1.258469e+00
  2.094404e+01    1.245640e+00
  2.095991e+01    1.231642e+00
  2.097579e+01    1.244227e+00
  2.099166e+01    1.247683e+00
  2.100754e+01    1.242022e+00
  2.102342e+01    1.205717e+00
  2.103929e+01    1.229546e+00
  2.105517e+01    1.237249e+00
  2.107104e+01    1.245097e+00
  2.108692e+01    1.226667e+00
  2.110279e+01    1.238986e+00
  2.111867e+01    1.236556e+00
  2.113455e+01    1.219033e+00
  2.115042e+01    1.223831e+00
  2.116630e+01    1.245817e+00
  2.118217e+01    1.270492e+00
  2.119805e+01    1.258855e+00
  2.121392e+01    1.245112e+00
  2.122980e+01    1.242852e+00
  2.124567e+01    1.261885e+00
  2.126155e+01    1.250190e+00
  2.127743e+01    1.241090e+00
  2.129330e+01    1.269426e+00
  2.130918e+01    1.279599e+00
  2.132505e+01    1.288206e+00
  2.134093e+01    1.271041e+00
  2.135680e+01    1.266527e+00
  2.137268e+01    1.276902e+00
  2.138855e+01    1.311725e+00
  2.140443e+01    1.318446e+00
  2.142031e+01    1.330578e+00
  2.143618e+01    1.344930e+00
  2.145206e+01    1.343709e+00
  2.146793e+01    1.375620e+00
  2.148381e+01    1.393457e+00
  2.149968e+01    1.402290e+00
  2.151556e+01    1.461816e+00
  2.153143e+01    1.479675e+00
  2.154731e+01    1.513605e+00
  2.156319e+01    1.579594e+00
  2.157906e+01    1.633669e+00
  2.159494e+01    1.684828e+00
  2.161081e+01    1.773002e+00
  2.162669e+01    1.859722e+00
  2.164256e+01    1.987235e+00
  2.165844e+01    2.103598e+00
  2.167431e+01    2.256905e+00
  2.169019e+01    2.479297e+00
  2.170607e+01    2.826615e+00
  2.172194e+01    3.148423e+00
  2.173782e+01    3.519567e+00
  2.175369e+01    4.028876e+00
  2.176957e+01    4.603398e+00
  2.178544e+01    5.218620e+00
  2.180132e+01    5.853657e+00
  2.181719e+01    6.455590e+00
  2.183307e+01    7.155417e+00
  2.184895e+01    7.833954e+00
  2.186482e+01    8.421348e+00
  2.188070e+01    8.856418e+00
  2.189657e+01    8.975663e+00
  2.191245e+01    8.825500e+00
  2.192832e+01    8.271869e+00
  2.194420e+01    7.607243e+00
  2.196007e+01    6.657340e+00
  2.197595e+01    5.739292e+00
  2.199183e+01    4.899418e+00
  2.200770e+01    4.218601e+00
  2.202358e+01    3.688734e+00
  2.203945e+01    3.218773e+00
  2.205533e+01    2.833820e+00
  2.207120e+01    2.517138e+00
  2.208708e+01    2.338135e+00
  2.210296e+01    2.149615e+00
  2.211883e+01    2.002065e+00
  2.213471e+01    1.884131e+00
  2.215058e+01    1.784679e+00
  2.216646e+01    1.666764e+00
  2.218233e+01    1.577887e+00
  2.219821e+01    1.537763e+00
  2.221408e+01    1.502670e+00
  2.222996e+01    1.427018e+00
  2.224584e+01    1.409992e+00
  2.226171e+01    1.367232e+00
  2.227759e+01    1.330362e+00
  2.229346e+01    1.313463e+00
  2.230934e+01    1.307291e+00
  2.232521e+01    1.297827e+00
  2.234109e+01    1.254259e+00
  2.235696e+01    1.250653e+00
  2.237284e+01    1.248465e+00
  2.238872e+01    1.210720e+00
  2.240459e+01    1.183467e+00
  2.242047e+01    1.176725e+00
  2.243634e+01    1.185228e+00
  2.245222e+01    1.183886e+00
  2.246809e+01    1.184098e+00
  2.248397e+01    1.173973e+00
  2.249984e+01    1.145992e+00
  2.251572e+01    1.153090e+00
  2.253160e+01    1.108601e+00
  2.254747e+01    1.109620e+00
  2.256335e+01    1.109714e+00
  2.257922e+01    1.090960e+00
  2.259510e+01    1.119046e+00
  2.261097e+01    1.134045e+00
  2.262685e+01    1.107129e+00
  2.264272e+01    1.100861e+00
  2.265860e+01    1.110640e+00
  2.267448e+01    1.096544e+00
  2.269035e+01    1.099960e+00
  2.270623e+01    1.084434e+00
  2.272210e+01    1.082989e+00
  2.273798e+01    1.081216e+00
  2.275385e+01    1.066172e+00
  2.276973e+01    1.064254e+00
  2.278560e+01    1.069370e+00
  2.280148e+01    1.061750e+00
  2.281736e+01    1.074438e+00
  2.283323e+01    1.084740e+00
  2.284911e+01    1.055020e+00
  2.286498e+01    1.028664e+00
  2.288086e+01    1.033913e+00
  2.289673e+01    1.050921e+00
  2.291261e+01    1.044518e+00
  2.292848e+01    1.029030e+00
  2.294436e+01    1.047426e+00
  2.296024e+01    1.058220e+00
  2.297611e+01    1.029526e+00
  2.299199e+01    1.023165e+00
  2.300786e+01    1.017847e+00
  2.302374e+01    1.020043e+00
  2.303961e+01    1.039515e+00
  2.305549e+01    1.022879e+00
  2.307137e+01    1.017011e+00
  2.308724e+01    1.013593e+00
  2.310312e+01    1.020545e+00
  2.311899e+01    1.001792e+00
  2.313487e+01    1.000817e+00
  2.315074e+01    1.016818e+00
  2.316662e+01    1.005627e+00
  2.318249e+01    9.975430e-01
  2.319837e+01    9.951283e-01
  2.321425e+01    9.920190e-01
  2.323012e+01    9.866316e-01
  2.324600e+01    9.825720e-01
  2.326187e+01    9.895980e-01
  2.327775e+01    9.863328e-01
  2.329362e+01    1.001810e+00
  2.330950e+01    9.904922e-01
  2.332537e+01    1.008707e+00
  2.334125e+01    1.002313e+00
  2.335713e+01    9.852952e-01
  2.337300e+01    9.880429e-01
  2.338888e+01    9.867538e-01
  2.340475e+01    9.857607e-01
  2.342063e+01    9.707483e-01
  2.343650e+01    9.549794e-01
  2.345238e+01    9.574789e-01
  2.346825e+01    9.584205e-01
  2.348413e+01    9.955387e-01
  2.350001e+01    9.798306e-01
  2.351588e+01    9.649236e-01
  2.353176e+01    9.523421e-01
  2.354763e+01    9.613715e-01
  2.356351e+01    9.503636e-01
  2.357938e+01    9.638418e-01
  2.359526e+01    9.562895e-01
  2.361113e+01    9.669771e-01
  2.362701e+01    9.615944e-01
  2.364289e+01    9.391491e-01
  2.365876e+01    9.261532e-01
  2.367464e+01    9.308178e-01
  2.369051e+01    9.418916e-01
  2.370639e+01    9.428916e-01
  2.372226e+01    9.475878e-01
  2.373814e+01    9.498711e-01
  2.375401e+01    9.293535e-01
  2.376989e+01    9.431298e-01
  2.378577e+01    9.423246e-01
  2.380164e+01    9.283964e-01
  2.381752e+01    9.119787e-01
  2.383339e+01    9.143048e-01
  2.384927e+01    8.993670e-01
  2.386514e+01    9.084412e-01
  2.388102e+01    9.138367e-01
  2.389689e+01    9.026276e-01
  2.391277e+01    9.076571e-01
  2.392865e+01    9.142448e-01
  2.394452e+01    9.123781e-01
  2.396040e+01    9.284608e-01
  2.397627e+01    9.192549e-01
  2.399215e+01    9.171518e-01
  2.400802e+01    9.216794e-01
  2.402390e+01    8.977581e-01
  2.403978e+01    8.795829e-01
  2.405565e+01    9.070724e-01
  2.407153e+01    8.844410e-01
  2.408740e+01    8.809657e-01
  2.410328e+01    8.883173e-01
  2.411915e+01    8.821244e-01
  2.413503e+01    8.759763e-01
  2.415090e+01    8.934526e-01
  2.416678e+01    9.223070e-01
  2.418266e+01    9.172418e-01
  2.419853e+01    8.892155e-01
  2.421441e+01    8.905851e-01
  2.423028e+01    8.854417e-01
  2.424616e+01    8.776168e-01
  2.426203e+01    8.819330e-01
  2.427791e+01    9.055739e-01
  2.429378e+01    8.796288e-01
  2.430966e+01    8.965781e-01
  2.432554e+01    9.093876e-01
  2.434141e+01    8.911644e-01
  2.435729e+01    8.896059e-01
  2.437316e+01    9.017928e-01
  2.438904e+01    9.041139e-01
  2.440491e+01    8.858023e-01
  2.442079e+01    8.838576e-01
  2.443666e+01    9.119012e-01
  2.445254e+01    9.209169e-01
  2.446842e+01    9.079846e-01
  2.448429e+01    8.910617e-01
  2.450017e+01    9.133139e-01
  2.451604e+01    8.973764e-01
  2.453192e+01    8.763548e-01
  2.454779e+01    8.792278e-01
  2.456367e+01    9.150853e-01
  2.457954e+01    9.130438e-01
  2.459542e+01    9.135927e-01
  2.461130e+01    9.004964e-01
  2.462717e+01    9.062113e-01
  2.464305e+01    8.982786e-01
  2.465892e+01    9.029881e-01
  2.467480e+01    8.997042e-01
  2.469067e+01    8.924262e-01
  2.470655e+01    8.981379e-01
  2.472242e+01    9.055542e-01
  2.473830e+01    8.939776e-01
  2.475418e+01    8.943501e-01
  2.477005e+01    8.894156e-01
  2.478593e+01    9.013025e-01
  2.480180e+01    8.974917e-01
  2.481768e+01    8.567222e-01
  2.483355e+01    8.641002e-01
  2.484943e+01    9.064007e-01
  2.486530e+01    8.961395e-01
  2.488118e+01    8.833641e-01
  2.489706e+01    9.004377e-01
  2.491293e+01    8.958113e-01
  2.492881e+01    9.266281e-01
  2.494468e+01    9.192523e-01
  2.496056e+01    8.940305e-01
  2.497643e+01    8.913959e-01
  2.499231e+01    8.989989e-01
  2.500819e+01    8.939776e-01
  2.502406e+01    8.999571e-01
  2.503994e+01    8.821173e-01
  2.505581e+01    8.957326e-01
  2.507169e+01    9.058712e-01
  2.508756e+01    9.005480e-01
  2.510344e+01    8.989497e-01
  2.511931e+01    8.963689e-01
  2.513519e+01    8.892546e-01
  2.515107e+01    9.249783e-01
  2.516694e+01    9.239309e-01
  2.518282e+01    9.497770e-01
  2.519869e+01    9.399391e-01
  2.521457e+01    9.280041e-01
  2.523044e+01    9.453070e-01
  2.524632e+01    9.327286e-01
  2.526219e+01    9.435173e-01
  2.527807e+01    9.497545e-01
  2.529395e+01    9.582103e-01
  2.530982e+01    9.623051e-01
  2.532570e+01    9.777361e-01
  2.534157e+01    9.866882e-01
  2.535745e+01    9.657589e-01
  2.537332e+01    9.713737e-01
  2.538920e+01    9.973038e-01
  2.540507e+01    1.014673e+00
  2.542095e+01    1.004704e+00
  2.543683e+01    9.942156e-01
  2.545270e+01    1.020178e+00
  2.546858e+01    1.036569e+00
  2.548445e+01    1.045383e+00
  2.550033e+01    1.038967e+00
  2.551620e+01    1.063654e+00
  2.553208e+01    1.108715e+00
  2.554795e+01    1.121446e+00
  2.556383e+01    1.143423e+00
  2.557971e+01    1.159001e+00
  2.559558e+01    1.190085e+00
  2.561146e+01    1.237733e+00
  2.562733e+01    1.259814e+00
  2.564321e+01    1.316268e+00
  2.565908e+01    1.360615e+00
  2.567496e+01    1.434559e+00
  2.569083e+01    1.529756e+00
  2.570671e+01    1.584728e+00
  2.572259e+01    1.692260e+00
  2.573846e+01    1.871909e+00
  2.575434e+01    2.061377e+00
  2.577021e+01    2.228730e+00
  2.578609e+01    2.480923e+00
  2.580196e+01    2.786471e+00
  2.581784e+01    3.152626e+00
  2.583371e+01    3.641410e+00
  2.584959e+01    4.152461e+00
  2.586547e+01    4.682806e+00
  2.588134e+01    5.255148e+00
  2.589722e+01    5.844304e+00
  2.591309e+01    6.396404e+00
  2.592897e+01    6.809289e+00
  2.594484e+01    7.076965e+00
  2.596072e+01    7.122762e+00
  2.597660e+01    6.946065e+00
  2.599247e+01    6.594193e+00
  2.600835e+01    6.061006e+00
  2.602422e+01    5.313891e+00
  2.604010e+01    4.661794e+00
  2.605597e+01    3.999799e+00
  2.607185e+01    3.454862e+00
  2.608772e+01    3.029681e+00
  2.610360e+01    2.670972e+00
  2.611948e+01    2.400817e+00
  2.613535e+01    2.178232e+00
  2.615123e+01    1.952317e+00
  2.616710e+01    1.797709e+00
  2.618298e+01    1.695441e+00
  2.619885e+01    1.594556e+00
  2.621473e+01    1.511088e+00
  2.623060e+01    1.410214e+00
  2.624648e+01    1.342424e+00
  2.626236e+01    1.274949e+00
  2.627823e+01    1.256175e+00
  2.629411e+01    1.220855e+00
  2.630998e+01    1.167098e+00
  2.632586e+01    1.152682e+00
  2.634173e+01    1.125275e+00
  2.635761e+01    1.104859e+00
  2.637348e+01    1.091413e+00
  2.638936e+01    1.066387e+00
  2.640524e+01    1.044111e+00
  2.642111e+01    1.052908e+00
  2.643699e+01    1.046113e+00
  2.645286e+01    1.044088e+00
  2.646874e+01    1.055471e+00
  2.648461e+01    1.036555e+00
  2.650049e+01    1.002602e+00
  2.651636e+01    1.016603e+00
  2.653224e+01    1.016182e+00
  2.654812e+01    1.007270e+00
  2.656399e+01    1.005947e+00
  2.657987e+01    9.865466e-01
  2.659574e+01    9.869261e-01
  2.661162e+01    9.755344e-01
  2.662749e+01    9.864273e-01
  2.664337e+01    9.838257e-01
  2.665924e+01    9.866309e-01
  2.667512e+01    9.766830e-01
  2.669100e+01    9.800968e-01
  2.670687e+01    9.849370e-01
  2.672275e+01    9.851072e-01
  2.673862e+01    9.786896e-01
  2.675450e+01    9.797918e-01
  2.677037e+01    9.899158e-01
  2.678625e+01    9.830977e-01
  2.680212e+01    9.860805e-01
  2.681800e+01    9.539701e-01
  2.683388e+01    9.754533e-01
  2.684975e+01    9.914347e-01
  2.686563e+01    1.001910e+00
  2.688150e+01    9.698554e-01
  2.689738e+01    9.996441e-01
  2.691325e+01    9.776205e-01
  2.692913e+01    1.006948e+00
  2.694501e+01    1.060704e+00
  2.696088e+01    1.052325e+00
  2.697676e+01    1.044739e+00
  2.699263e+01    1.068664e+00
  2.700851e+01    1.102672e+00
  2.702438e+01    1.142956e+00
  2.704026e+01    1.218349e+00
  2.705613e+01    1.271527e+00
  2.707201e+01    1.312169e+00
  2.708789e+01    1.395988e+00
  2.710376e+01    1.484916e+00
  2.711964e+01    1.652496e+00
  2.713551e+01    1.780296e+00
  2.715139e+01    1.839772e+00
  2.716726e+01    1.964148e+00
  2.718314e+01    2.076989e+00
  2.719901e+01    2.164441e+00
  2.721489e+01    2.149753e+00
  2.723077e+01    2.186455e+00
  2.724664e+01    2.125652e+00
  2.726252e+01    1.977199e+00
  2.727839e+01    1.842153e+00
  2.729427e+01    1.729853e+00
  2.731014e+01    1.583545e+00
  2.732602e+01    1.474418e+00
  2.734189e+01    1.365846e+00
  2.735777e+01    1.280204e+00
  2.737365e+01    1.191911e+00
  2.738952e+01    1.176232e+00
  2.740540e+01    1.149758e+00
  2.742127e+01    1.125636e+00
  2.743715e+01    1.063372e+00
  2.745302e+01    1.015132e+00
  2.746890e+01    1.028700e+00
  2.748477e+01    1.006254e+00
  2.750065e+01    9.928218e-01
  2.751653e+01    9.820161e-01
  2.753240e+01    9.840090e-01
  2.754828e+01    9.734436e-01
  2.756415e+01    9.488208e-01
  2.758003e+01    9.430065e-01
  2.759590e+01    9.484956e-01
  2.761178e+01    9.462447e-01
  2.762765e+01    9.345578e-01
  2.764353e+01    9.281313e-01
  2.765941e+01    9.235533e-01
  2.767528e+01    9.177338e-01
  2.769116e+01    9.129317e-01
  2.770703e+01    9.301665e-01
  2.772291e+01    9.207926e-01
  2.773878e+01    9.161144e-01
  2.775466e+01    8.976336e-01
  2.777054e+01    9.025128e-01
  2.778641e+01    8.895966e-01
  2.780229e+01    8.982227e-01
  2.781816e+01    8.985050e-01
  2.783404e+01    8.908027e-01
  2.784991e+01    8.759503e-01
  2.786579e+01    8.830065e-01
  2.788166e+01    8.734693e-01
  2.789754e+01    8.833055e-01
  2.791342e+01    8.486483e-01
  2.792929e+01    8.381276e-01
  2.794517e+01    8.626979e-01
  2.796104e+01    8.793074e-01
  2.797692e+01    8.646415e-01
  2.799279e+01    8.630127e-01
  2.800867e+01    8.435161e-01
  2.802454e+01    8.536276e-01
  2.804042e+01    8.800776e-01
  2.805630e+01    8.801764e-01
  2.807217e+01    8.719664e-01
  2.808805e+01    8.936163e-01
  2.810392e+01    8.798661e-01
  2.811980e+01    8.596774e-01
  2.813567e+01    8.594804e-01
  2.815155e+01    8.602065e-01
  2.816742e+01    8.549947e-01
  2.818330e+01    8.599331e-01
  2.819918e+01    8.547431e-01
  2.821505e+01    8.589238e-01
  2.823093e+01    8.692298e-01
  2.824680e+01    8.587143e-01
  2.826268e+01    8.542628e-01
  2.827855e+01    8.671265e-01
  2.829443e+01    8.688509e-01
  2.831030e+01    8.443084e-01
  2.832618e+01    8.374382e-01
  2.834206e+01    8.313434e-01
  2.835793e+01    8.477471e-01
  2.837381e+01    8.378697e-01
  2.838968e+01    8.496694e-01
  2.840556e+01    8.590851e-01
  2.842143e+01    8.460957e-01
  2.843731e+01    8.582605e-01
  2.845318e+01    8.441765e-01
  2.846906e+01    8.449304e-01
  2.848494e+01    8.519909e-01
  2.850081e+01    8.518461e-01
  2.851669e+01    8.543599e-01
  2.853256e+01    8.467329e-01
  2.854844e+01    8.406395e-01
  2.856431e+01    8.360217e-01
  2.858019e+01    8.508135e-01
  2.859606e+01    8.347461e-01
  2.861194e+01    8.305312e-01
  2.862782e+01    8.319806e-01
  2.864369e+01    8.201583e-01
  2.865957e+01    8.292584e-01
  2.867544e+01    8.190300e-01
  2.869132e+01    8.286799e-01
  2.870719e+01    8.395944e-01
  2.872307e+01    8.397570e-01
  2.873895e+01    8.424040e-01
  2.875482e+01    8.244975e-01
  2.877070e+01    8.128280e-01
  2.878657e+01    8.252965e-01
  2.880245e+01    8.414727e-01
  2.881832e+01    8.526841e-01
  2.883420e+01    8.246003e-01
  2.885007e+01    8.267360e-01
  2.886595e+01    8.231114e-01
  2.888183e+01    8.222300e-01
  2.889770e+01    8.049795e-01
  2.891358e+01    8.270777e-01
  2.892945e+01    8.264432e-01
  2.894533e+01    8.355309e-01
  2.896120e+01    8.210418e-01
  2.897708e+01    8.236162e-01
  2.899295e+01    8.140411e-01
  2.900883e+01    8.240805e-01
  2.902471e+01    8.157140e-01
  2.904058e+01    8.170389e-01
  2.905646e+01    8.191866e-01
  2.907233e+01    8.307284e-01
  2.908821e+01    8.353983e-01
  2.910408e+01    8.019700e-01
  2.911996e+01    8.091778e-01
  2.913583e+01    8.372232e-01
  2.915171e+01    8.341071e-01
  2.916759e+01    8.167571e-01
  2.918346e+01    8.326458e-01
  2.919934e+01    8.395264e-01
  2.921521e+01    8.316381e-01
  2.923109e+01    8.135467e-01
  2.924696e+01    8.131689e-01
  2.926284e+01    8.070219e-01
  2.927871e+01    8.282002e-01
  2.929459e+01    8.336404e-01
  2.931047e+01    8.195837e-01
  2.932634e+01    8.015434e-01
  2.934222e+01    8.060766e-01
  2.935809e+01    8.045329e-01
  2.937397e+01    8.048952e-01
  2.938984e+01    8.090370e-01
  2.940572e+01    8.009268e-01
  2.942159e+01    7.773061e-01
  2.943747e+01    7.935202e-01
  2.945335e+01    8.206769e-01
  2.946922e+01    8.098559e-01
  2.948510e+01    8.170148e-01
  2.950097e+01    8.047696e-01
  2.951685e+01    8.042387e-01
  2.953272e+01    7.870840e-01
  2.954860e+01    7.933552e-01
  2.956447e+01    8.053799e-01
  2.958035e+01    8.014737e-01
  2.959623e+01    7.818172e-01
  2.961210e+01    8.130389e-01
  2.962798e+01    8.234575e-01
  2.964385e+01    8.089658e-01
  2.965973e+01    7.904335e-01
  2.967560e+01    7.840098e-01
  2.969148e+01    7.850715e-01
  2.970736e+01    8.033630e-01
  2.972323e+01    8.028083e-01
  2.973911e+01    7.960706e-01
  2.975498e+01    8.108492e-01
  2.977086e+01    8.093576e-01
  2.978673e+01    8.107921e-01
  2.980261e+01    7.959846e-01
  2.981848e+01    7.867878e-01
  2.983436e+01    8.061253e-01
  2.985024e+01    8.029420e-01
  2.986611e+01    7.846586e-01
  2.988199e+01    7.721216e-01
  2.989786e+01    7.972032e-01
  2.991374e+01    8.015202e-01
  2.992961e+01    7.991171e-01
  2.994549e+01    7.799343e-01
  2.996136e+01    7.982879e-01
  2.997724e+01    7.943999e-01
  2.999312e+01    8.152294e-01
  3.000899e+01    7.905270e-01
  3.002487e+01    8.166032e-01
  3.004074e+01    8.096666e-01
  3.005662e+01    8.017550e-01
  3.007249e+01    8.138222e-01
  3.008837e+01    8.155763e-01
  3.010424e+01    8.014947e-01
  3.012012e+01    7.963632e-01
  3.013600e+01    7.903396e-01
  3.015187e+01    8.100721e-01
  3.016775e+01    7.939092e-01
  3.018362e+01    8.000602e-01
  3.019950e+01    7.871037e-01
  3.021537e+01    7.849748e-01
  3.023125e+01    7.840400e-01
  3.024712e+01    7.717328e-01
  3.026300e+01    7.963372e-01
  3.027888e+01    7.914933e-01
  3.029475e+01    7.936373e-01
  3.031063e+01    7.898133e-01
  3.032650e+01    7.918672e-01
  3.034238e+01    7.948770e-01
  3.035825e+01    7.681260e-01
  3.037413e+01    7.974887e-01
  3.039000e+01    7.771313e-01
  3.040588e+01    7.670665e-01
  3.042176e+01    7.647726e-01
  3.043763e+01    7.709941e-01
  3.045351e+01    7.893738e-01
  3.046938e+01    7.857345e-01
  3.048526e+01    7.748579e-01
  3.050113e+01    7.573645e-01
  3.051701e+01    7.706961e-01
  3.053288e+01    7.639360e-01
  3.054876e+01    7.737929e-01
  3.056464e+01    7.909001e-01
  3.058051e+01    8.102058e-01
  3.059639e+01    8.083497e-01
  3.061226e+01    7.894265e-01
  3.062814e+01    7.969536e-01
  3.064401e+01    8.072632e-01
  3.065989e+01    8.044273e-01
  3.067577e+01    7.880893e-01
  3.069164e+01    7.968029e-01
  3.070752e+01    7.774016e-01
  3.072339e+01    7.672361e-01
  3.073927e+01    7.787813e-01
  3.075514e+01    7.759333e-01
  3.077102e+01    7.875229e-01
  3.078689e+01    8.024015e-01
  3.080277e+01    7.874106e-01
  3.081865e+01    7.905412e-01
  3.083452e+01    7.985435e-01
  3.085040e+01    7.945945e-01
  3.086627e+01    7.881587e-01
  3.088215e+01    7.952580e-01
  3.089802e+01    8.065669e-01
  3.091390e+01    8.028098e-01
  3.092977e+01    7.985864e-01
  3.094565e+01    7.842193e-01
  3.096153e+01    7.842181e-01
  3.097740e+01    8.004991e-01
  3.099328e+01    8.035278e-01
  3.100915e+01    8.052731e-01
  3.102503e+01    7.957332e-01
  3.104090e+01    7.732050e-01
  3.105678e+01    7.783639e-01
  3.107265e+01    7.815110e-01
  3.108853e+01    7.811269e-01
  3.110441e+01    7.743115e-01
  3.112028e+01    7.762023e-01
  3.113616e+01    7.917663e-01
  3.115203e+01    7.949765e-01
  3.116791e+01    7.923705e-01
  3.118378e+01    7.778262e-01
  3.119966e+01    7.870603e-01
  3.121553e+01    8.046869e-01
  3.123141e+01    7.812889e-01
  3.124729e+01    7.970579e-01
  3.126316e+01    8.126092e-01
  3.127904e+01    7.962229e-01
  3.129491e+01    7.997419e-01
  3.131079e+01    7.817061e-01
  3.132666e+01    7.772465e-01
  3.134254e+01    8.010760e-01
  3.135841e+01    8.163433e-01
  3.137429e+01    8.121552e-01
  3.139017e+01    7.942150e-01
  3.140604e+01    8.126822e-01
  3.142192e+01    8.305672e-01
  3.143779e+01    8.409396e-01
  3.145367e+01    8.199593e-01
  3.146954e+01    8.339536e-01
  3.148542e+01    8.226624e-01
  3.150129e+01    8.510630e-01
  3.151717e+01    8.489325e-01
  3.153305e+01    8.422427e-01
  3.154892e+01    8.476223e-01
  3.156480e+01    8.554729e-01
  3.158067e+01    8.634343e-01
  3.159655e+01    8.758608e-01
  3.161242e+01    8.798482e-01
  3.162830e+01    9.092854e-01
  3.164418e+01    9.171048e-01
  3.166005e+01    9.418147e-01
  3.167593e+01    9.365488e-01
  3.169180e+01    9.736565e-01
  3.170768e+01    1.018573e+00
  3.172355e+01    1.039781e+00
  3.173943e+01    1.098719e+00
  3.175530e+01    1.185968e+00
  3.177118e+01    1.272962e+00
  3.178706e+01    1.378609e+00
  3.180293e+01    1.477280e+00
  3.181881e+01    1.571712e+00
  3.183468e+01    1.699757e+00
  3.185056e+01    1.842795e+00
  3.186643e+01    1.954526e+00
  3.188231e+01    2.021029e+00
  3.189818e+01    2.116838e+00
  3.191406e+01    2.113010e+00
  3.192994e+01    2.050845e+00
  3.194581e+01    1.951935e+00
  3.196169e+01    1.809358e+00
  3.197756e+01    1.706040e+00
  3.199344e+01    1.582825e+00
  3.200931e+01    1.419355e+00
  3.202519e+01    1.303022e+00
  3.204106e+01    1.247560e+00
  3.205694e+01    1.166981e+00
  3.207282e+01    1.082194e+00
  3.208869e+01    1.038321e+00
  3.210457e+01    1.000598e+00
  3.212044e+01    9.804431e-01
  3.213632e+01    9.415350e-01
  3.215219e+01    9.069000e-01
  3.216807e+01    9.038616e-01
  3.218394e+01    9.086108e-01
  3.219982e+01    8.733156e-01
  3.221570e+01    8.456677e-01
  3.223157e+01    8.448520e-01
  3.224745e+01    8.442041e-01
  3.226332e+01    8.234928e-01
  3.227920e+01    8.283271e-01
  3.229507e+01    8.313965e-01
  3.231095e+01    8.074429e-01
  3.232682e+01    8.039489e-01
  3.234270e+01    8.150008e-01
  3.235858e+01    8.060431e-01
  3.237445e+01    8.100009e-01
  3.239033e+01    7.747251e-01
  3.240620e+01    7.830423e-01
  3.242208e+01    8.151434e-01
  3.243795e+01    8.090534e-01
  3.245383e+01    8.058449e-01
  3.246970e+01    7.594694e-01
  3.248558e+01    7.731279e-01
  3.250146e+01    7.907888e-01
  3.251733e+01    7.576559e-01
  3.253321e+01    7.515060e-01
  3.254908e+01    7.731887e-01
