# == pyFAI calibration ==
# Distance Sample to Detector: 0.3999999939076516 m
# PONI: 9.750e-02, 1.135e-01 m
# Rotations: -0.000175 0.000000 -0.000000 rad
# 
# == Fit2d calibration ==
# Distance Sample-beamCenter: 400.000 mm
# Center: x=1514.000, y=1300.000 pix
# Tilt: 0.010 deg  TiltPlanRot: 0.010 deg
# 
# Detector Detector	 Spline= None	 PixelSize= 7.500e-05, 7.500e-05 m
#    Detector has a mask: False 
#    Detector has a dark current: False 
#    detector has a flat field: False 
# 
# Wavelength: 6.888e-11 m
# Mask applied: user provided
# Dark current applied: False
# Flat field applied: False
# Polarization factor: 0.99
# Normalization factor: 1.0
# --> /home/myspot/data/2024_07_Rosario/Ru-CGO-ex/2024-07-27_003_Ru-CGO-ex_Reaction_dwell_000023_data_000083.dat
#       q_nm^-1             I 
  2.003187e-02    0.000000e+00
  3.590745e-02    1.058695e-01
  5.178302e-02    1.655841e-01
  6.765859e-02    1.632245e-01
  8.353417e-02    1.310573e-01
  9.940974e-02    1.095520e-01
  1.152853e-01    3.114274e-02
  1.311609e-01    3.938977e-02
  1.470365e-01    1.147584e-01
  1.629120e-01    3.954513e-03
  1.787876e-01    2.078226e-02
  1.946632e-01    2.107163e-02
  2.105388e-01    7.711641e-02
  2.264143e-01    6.092902e-02
  2.422899e-01    2.015365e-02
  2.581655e-01    3.465351e-02
  2.740411e-01    2.909295e-02
  2.899166e-01    1.122401e-02
  3.057922e-01    1.809576e-02
  3.216678e-01    2.601894e-02
  3.375433e-01    4.699491e-02
  3.534189e-01    8.569819e-02
  3.692945e-01    5.290456e-02
  3.851701e-01    2.921031e-02
  4.010456e-01    5.717195e-02
  4.169212e-01    2.810254e-02
  4.327968e-01    4.416171e-02
  4.486724e-01    2.574311e-02
  4.645479e-01    2.082535e-02
  4.804235e-01    2.867835e-02
  4.962991e-01    2.702410e-02
  5.121747e-01    3.998351e-02
  5.280502e-01    4.295612e-02
  5.439258e-01    2.823396e-02
  5.598014e-01    6.743398e-02
  5.756770e-01    6.393132e-02
  5.915525e-01    4.731424e-02
  6.074281e-01    3.450318e-02
  6.233037e-01    5.588544e-02
  6.391793e-01    3.666284e-02
  6.550548e-01    5.877005e-02
  6.709304e-01    5.504483e-02
  6.868060e-01    2.744622e-02
  7.026815e-01    2.772529e-02
  7.185571e-01    3.253571e-02
  7.344327e-01    4.207240e-02
  7.503083e-01    6.027026e-02
  7.661838e-01    9.693213e-02
  7.820594e-01    1.281303e-01
  7.979350e-01    1.811170e-01
  8.138106e-01    2.209557e-01
  8.296861e-01    3.097799e-01
  8.455617e-01    3.004680e-01
  8.614373e-01    3.304964e-01
  8.773129e-01    4.519639e-01
  8.931884e-01    5.585204e-01
  9.090640e-01    6.455531e-01
  9.249396e-01    7.283552e-01
  9.408152e-01    9.014691e-01
  9.566907e-01    9.753953e-01
  9.725663e-01    9.405761e-01
  9.884419e-01    1.067245e+00
  1.004317e+00    1.213296e+00
  1.020193e+00    1.286770e+00
  1.036069e+00    1.396968e+00
  1.051944e+00    1.380020e+00
  1.067820e+00    1.558752e+00
  1.083695e+00    1.573067e+00
  1.099571e+00    1.512591e+00
  1.115446e+00    1.674114e+00
  1.131322e+00    1.738592e+00
  1.147198e+00    1.674831e+00
  1.163073e+00    1.728942e+00
  1.178949e+00    1.799145e+00
  1.194824e+00    1.747499e+00
  1.210700e+00    2.000515e+00
  1.226575e+00    2.357912e+00
  1.242451e+00    2.409326e+00
  1.258327e+00    2.491103e+00
  1.274202e+00    2.475625e+00
  1.290078e+00    2.611321e+00
  1.305953e+00    2.666894e+00
  1.321829e+00    2.710842e+00
  1.337705e+00    2.714024e+00
  1.353580e+00    2.772239e+00
  1.369456e+00    2.845067e+00
  1.385331e+00    2.860181e+00
  1.401207e+00    2.825808e+00
  1.417082e+00    2.817892e+00
  1.432958e+00    2.714466e+00
  1.448834e+00    2.807512e+00
  1.464709e+00    2.975966e+00
  1.480585e+00    3.175288e+00
  1.496460e+00    3.190839e+00
  1.512336e+00    3.126554e+00
  1.528211e+00    3.304074e+00
  1.544087e+00    3.358256e+00
  1.559963e+00    3.208560e+00
  1.575838e+00    3.061719e+00
  1.591714e+00    3.069775e+00
  1.607589e+00    3.130515e+00
  1.623465e+00    3.132133e+00
  1.639340e+00    3.220364e+00
  1.655216e+00    3.150914e+00
  1.671092e+00    3.117299e+00
  1.686967e+00    3.156656e+00
  1.702843e+00    3.064471e+00
  1.718718e+00    3.229727e+00
  1.734594e+00    3.266608e+00
  1.750469e+00    3.144975e+00
  1.766345e+00    3.170336e+00
  1.782221e+00    3.134217e+00
  1.798096e+00    3.029123e+00
  1.813972e+00    2.970315e+00
  1.829847e+00    2.975967e+00
  1.845723e+00    2.975929e+00
  1.861598e+00    3.017390e+00
  1.877474e+00    3.054222e+00
  1.893350e+00    3.101959e+00
  1.909225e+00    3.100215e+00
  1.925101e+00    3.004047e+00
  1.940976e+00    3.033910e+00
  1.956852e+00    3.028793e+00
  1.972727e+00    3.046691e+00
  1.988603e+00    3.117088e+00
  2.004479e+00    3.052503e+00
  2.020354e+00    3.040004e+00
  2.036230e+00    3.169110e+00
  2.052105e+00    3.175632e+00
  2.067981e+00    3.073503e+00
  2.083856e+00    3.044950e+00
  2.099732e+00    3.027479e+00
  2.115608e+00    3.013379e+00
  2.131483e+00    3.082431e+00
  2.147359e+00    3.019483e+00
  2.163234e+00    3.038967e+00
  2.179110e+00    3.043414e+00
  2.194985e+00    3.006207e+00
  2.210861e+00    3.111372e+00
  2.226737e+00    3.176592e+00
  2.242612e+00    3.138042e+00
  2.258488e+00    3.033414e+00
  2.274363e+00    3.075296e+00
  2.290239e+00    3.188136e+00
  2.306115e+00    3.101847e+00
  2.321990e+00    3.112916e+00
  2.337866e+00    3.104872e+00
  2.353741e+00    3.231614e+00
  2.369617e+00    3.183064e+00
  2.385492e+00    3.132434e+00
  2.401368e+00    3.207270e+00
  2.417244e+00    3.279986e+00
  2.433119e+00    3.233689e+00
  2.448995e+00    3.274799e+00
  2.464870e+00    3.254501e+00
  2.480746e+00    3.237004e+00
  2.496621e+00    3.167431e+00
  2.512497e+00    3.159208e+00
  2.528373e+00    3.312701e+00
  2.544248e+00    3.289446e+00
  2.560124e+00    3.191551e+00
  2.575999e+00    3.168673e+00
  2.591875e+00    3.237586e+00
  2.607750e+00    3.304166e+00
  2.623626e+00    3.150452e+00
  2.639502e+00    3.196120e+00
  2.655377e+00    3.188294e+00
  2.671253e+00    3.229884e+00
  2.687128e+00    3.246170e+00
  2.703004e+00    3.334291e+00
  2.718879e+00    3.324062e+00
  2.734755e+00    3.317208e+00
  2.750631e+00    3.291545e+00
  2.766506e+00    3.311047e+00
  2.782382e+00    3.312304e+00
  2.798257e+00    3.291425e+00
  2.814133e+00    3.213712e+00
  2.830008e+00    3.205737e+00
  2.845884e+00    3.266602e+00
  2.861760e+00    3.296921e+00
  2.877635e+00    3.317634e+00
  2.893511e+00    3.284778e+00
  2.909386e+00    3.297332e+00
  2.925262e+00    3.302583e+00
  2.941137e+00    3.362926e+00
  2.957013e+00    3.317768e+00
  2.972889e+00    3.392782e+00
  2.988764e+00    3.494654e+00
  3.004640e+00    3.387851e+00
  3.020515e+00    3.385698e+00
  3.036391e+00    3.328446e+00
  3.052266e+00    3.297331e+00
  3.068142e+00    3.440331e+00
  3.084018e+00    3.384871e+00
  3.099893e+00    3.341693e+00
  3.115769e+00    3.240447e+00
  3.131644e+00    3.301244e+00
  3.147520e+00    3.393796e+00
  3.163395e+00    3.385327e+00
  3.179271e+00    3.311551e+00
  3.195147e+00    3.381368e+00
  3.211022e+00    3.389469e+00
  3.226898e+00    3.422272e+00
  3.242773e+00    3.468047e+00
  3.258649e+00    3.350518e+00
  3.274525e+00    3.372020e+00
  3.290400e+00    3.407244e+00
  3.306276e+00    3.464970e+00
  3.322151e+00    3.382373e+00
  3.338027e+00    3.332727e+00
  3.353902e+00    3.414155e+00
  3.369778e+00    3.485507e+00
  3.385654e+00    3.491322e+00
  3.401529e+00    3.478389e+00
  3.417405e+00    3.446208e+00
  3.433280e+00    3.465354e+00
  3.449156e+00    3.450256e+00
  3.465031e+00    3.424990e+00
  3.480907e+00    3.309967e+00
  3.496783e+00    3.418535e+00
  3.512658e+00    3.464021e+00
  3.528534e+00    3.545421e+00
  3.544409e+00    3.438374e+00
  3.560285e+00    3.420055e+00
  3.576160e+00    3.415591e+00
  3.592036e+00    3.401568e+00
  3.607912e+00    3.412941e+00
  3.623787e+00    3.508369e+00
  3.639663e+00    3.491477e+00
  3.655538e+00    3.442105e+00
  3.671414e+00    3.507679e+00
  3.687289e+00    3.462038e+00
  3.703165e+00    3.509126e+00
  3.719041e+00    3.475419e+00
  3.734916e+00    3.469718e+00
  3.750792e+00    3.560684e+00
  3.766667e+00    3.502007e+00
  3.782543e+00    3.485827e+00
  3.798418e+00    3.535393e+00
  3.814294e+00    3.440182e+00
  3.830170e+00    3.496590e+00
  3.846045e+00    3.510252e+00
  3.861921e+00    3.579560e+00
  3.877796e+00    3.598295e+00
  3.893672e+00    3.466466e+00
  3.909547e+00    3.489826e+00
  3.925423e+00    3.518898e+00
  3.941299e+00    3.561741e+00
  3.957174e+00    3.552625e+00
  3.973050e+00    3.534587e+00
  3.988925e+00    3.543881e+00
  4.004801e+00    3.597598e+00
  4.020676e+00    3.557263e+00
  4.036552e+00    3.471229e+00
  4.052428e+00    3.513579e+00
  4.068303e+00    3.547966e+00
  4.084179e+00    3.523559e+00
  4.100054e+00    3.604790e+00
  4.115930e+00    3.559830e+00
  4.131806e+00    3.463566e+00
  4.147681e+00    3.504260e+00
  4.163557e+00    3.458843e+00
  4.179432e+00    3.502343e+00
  4.195308e+00    3.554295e+00
  4.211183e+00    3.476576e+00
  4.227059e+00    3.465662e+00
  4.242935e+00    3.538873e+00
  4.258810e+00    3.541263e+00
  4.274686e+00    3.627789e+00
  4.290561e+00    3.569077e+00
  4.306437e+00    3.568365e+00
  4.322312e+00    3.619453e+00
  4.338188e+00    3.618767e+00
  4.354064e+00    3.572469e+00
  4.369939e+00    3.589035e+00
  4.385815e+00    3.573452e+00
  4.401690e+00    3.555814e+00
  4.417566e+00    3.552814e+00
  4.433441e+00    3.588126e+00
  4.449317e+00    3.623758e+00
  4.465193e+00    3.527398e+00
  4.481068e+00    3.554003e+00
  4.496944e+00    3.621222e+00
  4.512819e+00    3.618527e+00
  4.528695e+00    3.629290e+00
  4.544570e+00    3.647417e+00
  4.560446e+00    3.596573e+00
  4.576322e+00    3.697861e+00
  4.592197e+00    3.626420e+00
  4.608073e+00    3.688626e+00
  4.623948e+00    3.720401e+00
  4.639824e+00    3.723844e+00
  4.655699e+00    3.666244e+00
  4.671575e+00    3.686454e+00
  4.687451e+00    3.590120e+00
  4.703326e+00    3.569580e+00
  4.719202e+00    3.615435e+00
  4.735077e+00    3.555931e+00
  4.750953e+00    3.627534e+00
  4.766828e+00    3.561578e+00
  4.782704e+00    3.587994e+00
  4.798580e+00    3.611227e+00
  4.814455e+00    3.670088e+00
  4.830331e+00    3.634476e+00
  4.846206e+00    3.622700e+00
  4.862082e+00    3.629310e+00
  4.877957e+00    3.688004e+00
  4.893833e+00    3.657353e+00
  4.909709e+00    3.718589e+00
  4.925584e+00    3.714733e+00
  4.941460e+00    3.598316e+00
  4.957335e+00    3.595820e+00
  4.973211e+00    3.659374e+00
  4.989086e+00    3.664521e+00
  5.004962e+00    3.692116e+00
  5.020838e+00    3.674586e+00
  5.036713e+00    3.664458e+00
  5.052589e+00    3.712237e+00
  5.068464e+00    3.627491e+00
  5.084340e+00    3.651241e+00
  5.100216e+00    3.631524e+00
  5.116091e+00    3.664164e+00
  5.131967e+00    3.705337e+00
  5.147842e+00    3.671827e+00
  5.163718e+00    3.674075e+00
  5.179593e+00    3.600575e+00
  5.195469e+00    3.682924e+00
  5.211345e+00    3.748645e+00
  5.227220e+00    3.683311e+00
  5.243096e+00    3.608377e+00
  5.258971e+00    3.632653e+00
  5.274847e+00    3.642855e+00
  5.290722e+00    3.680356e+00
  5.306598e+00    3.712984e+00
  5.322474e+00    3.679200e+00
  5.338349e+00    3.637018e+00
  5.354225e+00    3.655215e+00
  5.370100e+00    3.756221e+00
  5.385976e+00    3.727162e+00
  5.401851e+00    3.701449e+00
  5.417727e+00    3.698540e+00
  5.433603e+00    3.665259e+00
  5.449478e+00    3.639672e+00
  5.465354e+00    3.683853e+00
  5.481229e+00    3.617526e+00
  5.497105e+00    3.640707e+00
  5.512980e+00    3.553110e+00
  5.528856e+00    3.551320e+00
  5.544732e+00    3.637966e+00
  5.560607e+00    3.614255e+00
  5.576483e+00    3.607392e+00
  5.592358e+00    3.595883e+00
  5.608234e+00    3.654157e+00
  5.624109e+00    3.690361e+00
  5.639985e+00    3.697217e+00
  5.655861e+00    3.599400e+00
  5.671736e+00    3.500709e+00
  5.687612e+00    3.469646e+00
  5.703487e+00    3.589169e+00
  5.719363e+00    3.637890e+00
  5.735238e+00    3.600425e+00
  5.751114e+00    3.573383e+00
  5.766990e+00    3.606483e+00
  5.782865e+00    3.604698e+00
  5.798741e+00    3.587742e+00
  5.814616e+00    3.572761e+00
  5.830492e+00    3.646770e+00
  5.846367e+00    3.561763e+00
  5.862243e+00    3.625877e+00
  5.878119e+00    3.631176e+00
  5.893994e+00    3.590192e+00
  5.909870e+00    3.477636e+00
  5.925745e+00    3.540489e+00
  5.941621e+00    3.547094e+00
  5.957497e+00    3.573290e+00
  5.973372e+00    3.596117e+00
  5.989248e+00    3.680218e+00
  6.005123e+00    3.668508e+00
  6.020999e+00    3.569400e+00
  6.036874e+00    3.529897e+00
  6.052750e+00    3.505817e+00
  6.068626e+00    3.537907e+00
  6.084501e+00    3.551297e+00
  6.100377e+00    3.557982e+00
  6.116252e+00    3.637064e+00
  6.132128e+00    3.678531e+00
  6.148003e+00    3.633724e+00
  6.163879e+00    3.593176e+00
  6.179755e+00    3.547325e+00
  6.195630e+00    3.571247e+00
  6.211506e+00    3.609582e+00
  6.227381e+00    3.560688e+00
  6.243257e+00    3.671172e+00
  6.259132e+00    3.658155e+00
  6.275008e+00    3.572927e+00
  6.290884e+00    3.534404e+00
  6.306759e+00    3.498563e+00
  6.322635e+00    3.514091e+00
  6.338510e+00    3.601220e+00
  6.354386e+00    3.582181e+00
  6.370261e+00    3.546342e+00
  6.386137e+00    3.616147e+00
  6.402013e+00    3.569168e+00
  6.417888e+00    3.523314e+00
  6.433764e+00    3.587119e+00
  6.449639e+00    3.627569e+00
  6.465515e+00    3.620265e+00
  6.481390e+00    3.568825e+00
  6.497266e+00    3.521877e+00
  6.513142e+00    3.559075e+00
  6.529017e+00    3.601377e+00
  6.544893e+00    3.556784e+00
  6.560768e+00    3.628350e+00
  6.576644e+00    3.568439e+00
  6.592519e+00    3.528342e+00
  6.608395e+00    3.596697e+00
  6.624271e+00    3.577012e+00
  6.640146e+00    3.553170e+00
  6.656022e+00    3.548857e+00
  6.671897e+00    3.583282e+00
  6.687773e+00    3.551314e+00
  6.703648e+00    3.516132e+00
  6.719524e+00    3.612344e+00
  6.735400e+00    3.656102e+00
  6.751275e+00    3.568535e+00
  6.767151e+00    3.507832e+00
  6.783026e+00    3.554993e+00
  6.798902e+00    3.521763e+00
  6.814777e+00    3.599441e+00
  6.830653e+00    3.603642e+00
  6.846529e+00    3.572283e+00
  6.862404e+00    3.559407e+00
  6.878280e+00    3.530394e+00
  6.894155e+00    3.529209e+00
  6.910031e+00    3.584310e+00
  6.925907e+00    3.631050e+00
  6.941782e+00    3.602577e+00
  6.957658e+00    3.529533e+00
  6.973533e+00    3.545508e+00
  6.989409e+00    3.554082e+00
  7.005284e+00    3.548713e+00
  7.021160e+00    3.548090e+00
  7.037036e+00    3.534015e+00
  7.052911e+00    3.498128e+00
  7.068787e+00    3.512354e+00
  7.084662e+00    3.590052e+00
  7.100538e+00    3.590786e+00
  7.116413e+00    3.608070e+00
  7.132289e+00    3.542603e+00
  7.148165e+00    3.551230e+00
  7.164040e+00    3.500996e+00
  7.179916e+00    3.446826e+00
  7.195791e+00    3.516497e+00
  7.211667e+00    3.538579e+00
  7.227542e+00    3.595882e+00
  7.243418e+00    3.600307e+00
  7.259294e+00    3.598858e+00
  7.275169e+00    3.594650e+00
  7.291045e+00    3.552383e+00
  7.306920e+00    3.467064e+00
  7.322796e+00    3.476134e+00
  7.338671e+00    3.483142e+00
  7.354547e+00    3.474474e+00
  7.370423e+00    3.529183e+00
  7.386298e+00    3.560568e+00
  7.402174e+00    3.521337e+00
  7.418049e+00    3.537590e+00
  7.433925e+00    3.546758e+00
  7.449800e+00    3.567182e+00
  7.465676e+00    3.498032e+00
  7.481552e+00    3.524157e+00
  7.497427e+00    3.531005e+00
  7.513303e+00    3.511646e+00
  7.529178e+00    3.535683e+00
  7.545054e+00    3.550101e+00
  7.560929e+00    3.497881e+00
  7.576805e+00    3.490428e+00
  7.592681e+00    3.480318e+00
  7.608556e+00    3.519045e+00
  7.624432e+00    3.473118e+00
  7.640307e+00    3.404659e+00
  7.656183e+00    3.439494e+00
  7.672058e+00    3.460669e+00
  7.687934e+00    3.436275e+00
  7.703810e+00    3.450326e+00
  7.719685e+00    3.484105e+00
  7.735561e+00    3.473173e+00
  7.751436e+00    3.420154e+00
  7.767312e+00    3.450204e+00
  7.783187e+00    3.444956e+00
  7.799063e+00    3.495997e+00
  7.814939e+00    3.482460e+00
  7.830814e+00    3.467359e+00
  7.846690e+00    3.473111e+00
  7.862565e+00    3.435727e+00
  7.878441e+00    3.411972e+00
  7.894317e+00    3.411714e+00
  7.910192e+00    3.415942e+00
  7.926068e+00    3.393764e+00
  7.941943e+00    3.461571e+00
  7.957819e+00    3.499489e+00
  7.973694e+00    3.472228e+00
  7.989570e+00    3.412048e+00
  8.005446e+00    3.415630e+00
  8.021321e+00    3.420696e+00
  8.037197e+00    3.405179e+00
  8.053072e+00    3.435945e+00
  8.068948e+00    3.454907e+00
  8.084823e+00    3.483186e+00
  8.100699e+00    3.455195e+00
  8.116575e+00    3.404306e+00
  8.132450e+00    3.436681e+00
  8.148326e+00    3.476726e+00
  8.164201e+00    3.528259e+00
  8.180077e+00    3.412652e+00
  8.195952e+00    3.497759e+00
  8.211828e+00    3.512477e+00
  8.227704e+00    3.469436e+00
  8.243579e+00    3.465851e+00
  8.259455e+00    3.429527e+00
  8.275330e+00    3.428966e+00
  8.291206e+00    3.357770e+00
  8.307081e+00    3.381570e+00
  8.322957e+00    3.390688e+00
  8.338833e+00    3.391103e+00
  8.354708e+00    3.398647e+00
  8.370584e+00    3.411295e+00
  8.386459e+00    3.349669e+00
  8.402335e+00    3.333722e+00
  8.418210e+00    3.409415e+00
  8.434086e+00    3.349130e+00
  8.449962e+00    3.321289e+00
  8.465837e+00    3.335015e+00
  8.481713e+00    3.321323e+00
  8.497588e+00    3.351496e+00
  8.513464e+00    3.411515e+00
  8.529339e+00    3.413020e+00
  8.545215e+00    3.451549e+00
  8.561091e+00    3.419796e+00
  8.576966e+00    3.384379e+00
  8.592842e+00    3.365962e+00
  8.608717e+00    3.401374e+00
  8.624593e+00    3.370741e+00
  8.640468e+00    3.363814e+00
  8.656344e+00    3.368888e+00
  8.672220e+00    3.333406e+00
  8.688095e+00    3.361885e+00
  8.703971e+00    3.360438e+00
  8.719846e+00    3.340318e+00
  8.735722e+00    3.314175e+00
  8.751598e+00    3.321693e+00
  8.767473e+00    3.315500e+00
  8.783349e+00    3.276217e+00
  8.799224e+00    3.360579e+00
  8.815100e+00    3.362837e+00
  8.830975e+00    3.294831e+00
  8.846851e+00    3.318061e+00
  8.862727e+00    3.329232e+00
  8.878602e+00    3.317735e+00
  8.894478e+00    3.328921e+00
  8.910353e+00    3.365949e+00
  8.926229e+00    3.371875e+00
  8.942104e+00    3.335852e+00
  8.957980e+00    3.288036e+00
  8.973856e+00    3.278469e+00
  8.989731e+00    3.326509e+00
  9.005607e+00    3.311255e+00
  9.021482e+00    3.335456e+00
  9.037358e+00    3.340463e+00
  9.053233e+00    3.320270e+00
  9.069109e+00    3.286200e+00
  9.084985e+00    3.252655e+00
  9.100860e+00    3.259120e+00
  9.116736e+00    3.248638e+00
  9.132611e+00    3.320384e+00
  9.148487e+00    3.352353e+00
  9.164362e+00    3.290563e+00
  9.180238e+00    3.275299e+00
  9.196114e+00    3.352744e+00
  9.211989e+00    3.332652e+00
  9.227865e+00    3.294780e+00
  9.243740e+00    3.303342e+00
  9.259616e+00    3.267250e+00
  9.275491e+00    3.280559e+00
  9.291367e+00    3.282072e+00
  9.307243e+00    3.311805e+00
  9.323118e+00    3.284745e+00
  9.338994e+00    3.195911e+00
  9.354869e+00    3.211646e+00
  9.370745e+00    3.215854e+00
  9.386620e+00    3.237279e+00
  9.402496e+00    3.213419e+00
  9.418372e+00    3.200716e+00
  9.434247e+00    3.207780e+00
  9.450123e+00    3.278829e+00
  9.465998e+00    3.212399e+00
  9.481874e+00    3.199927e+00
  9.497749e+00    3.261502e+00
  9.513625e+00    3.256495e+00
  9.529501e+00    3.211530e+00
  9.545376e+00    3.175201e+00
  9.561252e+00    3.201993e+00
  9.577127e+00    3.227611e+00
  9.593003e+00    3.258645e+00
  9.608878e+00    3.257409e+00
  9.624754e+00    3.236008e+00
  9.640630e+00    3.200308e+00
  9.656505e+00    3.185430e+00
  9.672381e+00    3.232320e+00
  9.688256e+00    3.185552e+00
  9.704132e+00    3.188411e+00
  9.720008e+00    3.129479e+00
  9.735883e+00    3.122505e+00
  9.751759e+00    3.158209e+00
  9.767634e+00    3.238323e+00
  9.783510e+00    3.201168e+00
  9.799385e+00    3.186784e+00
  9.815261e+00    3.187130e+00
  9.831137e+00    3.198780e+00
  9.847012e+00    3.137015e+00
  9.862888e+00    3.130787e+00
  9.878763e+00    3.145209e+00
  9.894639e+00    3.126747e+00
  9.910514e+00    3.144123e+00
  9.926390e+00    3.126328e+00
  9.942266e+00    3.164340e+00
  9.958141e+00    3.214188e+00
  9.974017e+00    3.159472e+00
  9.989892e+00    3.117959e+00
  1.000577e+01    3.161541e+00
  1.002164e+01    3.103558e+00
  1.003752e+01    3.094593e+00
  1.005339e+01    3.098799e+00
  1.006927e+01    3.065240e+00
  1.008515e+01    3.127209e+00
  1.010102e+01    3.130081e+00
  1.011690e+01    3.131318e+00
  1.013277e+01    3.107617e+00
  1.014865e+01    3.050289e+00
  1.016452e+01    3.096308e+00
  1.018040e+01    3.131912e+00
  1.019627e+01    3.101682e+00
  1.021215e+01    3.091009e+00
  1.022803e+01    3.103390e+00
  1.024390e+01    3.089569e+00
  1.025978e+01    3.084105e+00
  1.027565e+01    3.075777e+00
  1.029153e+01    3.087572e+00
  1.030740e+01    3.056499e+00
  1.032328e+01    3.031396e+00
  1.033915e+01    3.017107e+00
  1.035503e+01    3.054323e+00
  1.037091e+01    3.038713e+00
  1.038678e+01    3.034563e+00
  1.040266e+01    3.059775e+00
  1.041853e+01    3.089835e+00
  1.043441e+01    3.100912e+00
  1.045028e+01    3.068113e+00
  1.046616e+01    3.056818e+00
  1.048204e+01    3.018696e+00
  1.049791e+01    2.995539e+00
  1.051379e+01    3.020099e+00
  1.052966e+01    2.947871e+00
  1.054554e+01    3.019902e+00
  1.056141e+01    3.067948e+00
  1.057729e+01    3.001794e+00
  1.059316e+01    2.992032e+00
  1.060904e+01    3.022066e+00
  1.062492e+01    2.982746e+00
  1.064079e+01    2.977237e+00
  1.065667e+01    2.958640e+00
  1.067254e+01    2.965720e+00
  1.068842e+01    3.034535e+00
  1.070429e+01    3.039048e+00
  1.072017e+01    2.986472e+00
  1.073604e+01    2.963704e+00
  1.075192e+01    2.947582e+00
  1.076780e+01    2.964310e+00
  1.078367e+01    2.971611e+00
  1.079955e+01    2.951586e+00
  1.081542e+01    2.948677e+00
  1.083130e+01    2.988253e+00
  1.084717e+01    2.989855e+00
  1.086305e+01    2.943228e+00
  1.087892e+01    2.994653e+00
  1.089480e+01    2.956056e+00
  1.091068e+01    2.887425e+00
  1.092655e+01    2.916130e+00
  1.094243e+01    2.931246e+00
  1.095830e+01    2.895427e+00
  1.097418e+01    2.891060e+00
  1.099005e+01    2.895653e+00
  1.100593e+01    2.926017e+00
  1.102180e+01    2.944007e+00
  1.103768e+01    2.980340e+00
  1.105356e+01    2.942900e+00
  1.106943e+01    2.926583e+00
  1.108531e+01    2.900496e+00
  1.110118e+01    2.870894e+00
  1.111706e+01    2.919048e+00
  1.113293e+01    2.901141e+00
  1.114881e+01    2.913898e+00
  1.116468e+01    2.874458e+00
  1.118056e+01    2.829150e+00
  1.119644e+01    2.818289e+00
  1.121231e+01    2.879977e+00
  1.122819e+01    2.888123e+00
  1.124406e+01    2.879738e+00
  1.125994e+01    2.839380e+00
  1.127581e+01    2.834685e+00
  1.129169e+01    2.874191e+00
  1.130756e+01    2.874127e+00
  1.132344e+01    2.850157e+00
  1.133932e+01    2.852104e+00
  1.135519e+01    2.865484e+00
  1.137107e+01    2.840193e+00
  1.138694e+01    2.816496e+00
  1.140282e+01    2.824272e+00
  1.141869e+01    2.807812e+00
  1.143457e+01    2.815746e+00
  1.145045e+01    2.823713e+00
  1.146632e+01    2.774704e+00
  1.148220e+01    2.802931e+00
  1.149807e+01    2.771082e+00
  1.151395e+01    2.761234e+00
  1.152982e+01    2.747814e+00
  1.154570e+01    2.736753e+00
  1.156157e+01    2.763877e+00
  1.157745e+01    2.814186e+00
  1.159333e+01    2.774852e+00
  1.160920e+01    2.786683e+00
  1.162508e+01    2.784864e+00
  1.164095e+01    2.768878e+00
  1.165683e+01    2.793716e+00
  1.167270e+01    2.788771e+00
  1.168858e+01    2.738956e+00
  1.170445e+01    2.796381e+00
  1.172033e+01    2.749546e+00
  1.173621e+01    2.786160e+00
  1.175208e+01    2.792804e+00
  1.176796e+01    2.774255e+00
  1.178383e+01    2.757814e+00
  1.179971e+01    2.770720e+00
  1.181558e+01    2.742232e+00
  1.183146e+01    2.713348e+00
  1.184733e+01    2.756346e+00
  1.186321e+01    2.717113e+00
  1.187909e+01    2.758004e+00
  1.189496e+01    2.709235e+00
  1.191084e+01    2.731789e+00
  1.192671e+01    2.754772e+00
  1.194259e+01    2.691305e+00
  1.195846e+01    2.703740e+00
  1.197434e+01    2.748488e+00
  1.199021e+01    2.712502e+00
  1.200609e+01    2.697958e+00
  1.202197e+01    2.719485e+00
  1.203784e+01    2.714119e+00
  1.205372e+01    2.730688e+00
  1.206959e+01    2.745612e+00
  1.208547e+01    2.718159e+00
  1.210134e+01    2.729914e+00
  1.211722e+01    2.684754e+00
  1.213309e+01    2.731002e+00
  1.214897e+01    2.723736e+00
  1.216485e+01    2.710676e+00
  1.218072e+01    2.726144e+00
  1.219660e+01    2.714528e+00
  1.221247e+01    2.702712e+00
  1.222835e+01    2.707095e+00
  1.224422e+01    2.758016e+00
  1.226010e+01    2.727485e+00
  1.227597e+01    2.694538e+00
  1.229185e+01    2.721968e+00
  1.230773e+01    2.709582e+00
  1.232360e+01    2.735089e+00
  1.233948e+01    2.741585e+00
  1.235535e+01    2.699966e+00
  1.237123e+01    2.708849e+00
  1.238710e+01    2.721311e+00
  1.240298e+01    2.691017e+00
  1.241886e+01    2.707883e+00
  1.243473e+01    2.713798e+00
  1.245061e+01    2.701063e+00
  1.246648e+01    2.728603e+00
  1.248236e+01    2.701636e+00
  1.249823e+01    2.716923e+00
  1.251411e+01    2.711499e+00
  1.252998e+01    2.713106e+00
  1.254586e+01    2.747188e+00
  1.256174e+01    2.756741e+00
  1.257761e+01    2.765368e+00
  1.259349e+01    2.720599e+00
  1.260936e+01    2.760833e+00
  1.262524e+01    2.771341e+00
  1.264111e+01    2.787184e+00
  1.265699e+01    2.778506e+00
  1.267286e+01    2.774604e+00
  1.268874e+01    2.788477e+00
  1.270462e+01    2.861266e+00
  1.272049e+01    2.878217e+00
  1.273637e+01    2.861320e+00
  1.275224e+01    2.866145e+00
  1.276812e+01    2.930834e+00
  1.278399e+01    2.941307e+00
  1.279987e+01    2.999870e+00
  1.281574e+01    3.099011e+00
  1.283162e+01    3.121643e+00
  1.284750e+01    3.175367e+00
  1.286337e+01    3.250265e+00
  1.287925e+01    3.417481e+00
  1.289512e+01    3.522794e+00
  1.291100e+01    3.674014e+00
  1.292687e+01    3.871278e+00
  1.294275e+01    4.072592e+00
  1.295862e+01    4.450198e+00
  1.297450e+01    4.829495e+00
  1.299038e+01    5.318900e+00
  1.300625e+01    5.958942e+00
  1.302213e+01    6.761457e+00
  1.303800e+01    7.765596e+00
  1.305388e+01    8.857038e+00
  1.306975e+01    1.013982e+01
  1.308563e+01    1.153050e+01
  1.310150e+01    1.288212e+01
  1.311738e+01    1.392010e+01
  1.313326e+01    1.500507e+01
  1.314913e+01    1.591068e+01
  1.316501e+01    1.642688e+01
  1.318088e+01    1.642061e+01
  1.319676e+01    1.579114e+01
  1.321263e+01    1.435310e+01
  1.322851e+01    1.263858e+01
  1.324438e+01    1.081414e+01
  1.326026e+01    9.224103e+00
  1.327614e+01    7.933342e+00
  1.329201e+01    6.877547e+00
  1.330789e+01    6.005381e+00
  1.332376e+01    5.379373e+00
  1.333964e+01    4.880286e+00
  1.335551e+01    4.475300e+00
  1.337139e+01    4.159300e+00
  1.338727e+01    3.910288e+00
  1.340314e+01    3.703586e+00
  1.341902e+01    3.541431e+00
  1.343489e+01    3.342037e+00
  1.345077e+01    3.218614e+00
  1.346664e+01    3.159285e+00
  1.348252e+01    3.125522e+00
  1.349839e+01    3.045400e+00
  1.351427e+01    2.899441e+00
  1.353015e+01    2.886239e+00
  1.354602e+01    2.872685e+00
  1.356190e+01    2.784271e+00
  1.357777e+01    2.743576e+00
  1.359365e+01    2.720209e+00
  1.360952e+01    2.708222e+00
  1.362540e+01    2.665044e+00
  1.364127e+01    2.637527e+00
  1.365715e+01    2.654341e+00
  1.367303e+01    2.594244e+00
  1.368890e+01    2.577247e+00
  1.370478e+01    2.568780e+00
  1.372065e+01    2.590959e+00
  1.373653e+01    2.569088e+00
  1.375240e+01    2.519424e+00
  1.376828e+01    2.476781e+00
  1.378415e+01    2.488168e+00
  1.380003e+01    2.447248e+00
  1.381591e+01    2.483783e+00
  1.383178e+01    2.464260e+00
  1.384766e+01    2.417937e+00
  1.386353e+01    2.453350e+00
  1.387941e+01    2.452182e+00
  1.389528e+01    2.396736e+00
  1.391116e+01    2.413474e+00
  1.392703e+01    2.466563e+00
  1.394291e+01    2.438218e+00
  1.395879e+01    2.427229e+00
  1.397466e+01    2.428620e+00
  1.399054e+01    2.411008e+00
  1.400641e+01    2.363898e+00
  1.402229e+01    2.340924e+00
  1.403816e+01    2.340687e+00
  1.405404e+01    2.354905e+00
  1.406991e+01    2.337943e+00
  1.408579e+01    2.345450e+00
  1.410167e+01    2.363639e+00
  1.411754e+01    2.330765e+00
  1.413342e+01    2.351462e+00
  1.414929e+01    2.339885e+00
  1.416517e+01    2.327487e+00
  1.418104e+01    2.342593e+00
  1.419692e+01    2.294702e+00
  1.421279e+01    2.278010e+00
  1.422867e+01    2.307818e+00
  1.424455e+01    2.313861e+00
  1.426042e+01    2.293284e+00
  1.427630e+01    2.279016e+00
  1.429217e+01    2.265202e+00
  1.430805e+01    2.284349e+00
  1.432392e+01    2.283194e+00
  1.433980e+01    2.254019e+00
  1.435568e+01    2.284062e+00
  1.437155e+01    2.296831e+00
  1.438743e+01    2.226847e+00
  1.440330e+01    2.246151e+00
  1.441918e+01    2.278543e+00
  1.443505e+01    2.282129e+00
  1.445093e+01    2.286607e+00
  1.446680e+01    2.254961e+00
  1.448268e+01    2.217975e+00
  1.449856e+01    2.253052e+00
  1.451443e+01    2.202008e+00
  1.453031e+01    2.224217e+00
  1.454618e+01    2.234828e+00
  1.456206e+01    2.226600e+00
  1.457793e+01    2.235941e+00
  1.459381e+01    2.197015e+00
  1.460968e+01    2.195102e+00
  1.462556e+01    2.262875e+00
  1.464144e+01    2.240042e+00
  1.465731e+01    2.192474e+00
  1.467319e+01    2.187253e+00
  1.468906e+01    2.207547e+00
  1.470494e+01    2.222724e+00
  1.472081e+01    2.176738e+00
  1.473669e+01    2.206602e+00
  1.475256e+01    2.218912e+00
  1.476844e+01    2.221205e+00
  1.478432e+01    2.207690e+00
  1.480019e+01    2.213238e+00
  1.481607e+01    2.193371e+00
  1.483194e+01    2.234017e+00
  1.484782e+01    2.223188e+00
  1.486369e+01    2.251974e+00
  1.487957e+01    2.234308e+00
  1.489544e+01    2.205056e+00
  1.491132e+01    2.229787e+00
  1.492720e+01    2.282783e+00
  1.494307e+01    2.297595e+00
  1.495895e+01    2.312264e+00
  1.497482e+01    2.309408e+00
  1.499070e+01    2.371365e+00
  1.500657e+01    2.435323e+00
  1.502245e+01    2.487293e+00
  1.503832e+01    2.571114e+00
  1.505420e+01    2.741431e+00
  1.507008e+01    2.857227e+00
  1.508595e+01    3.003870e+00
  1.510183e+01    3.196381e+00
  1.511770e+01    3.501485e+00
  1.513358e+01    3.820393e+00
  1.514945e+01    4.205910e+00
  1.516533e+01    4.607374e+00
  1.518120e+01    4.917135e+00
  1.519708e+01    5.142932e+00
  1.521296e+01    5.368351e+00
  1.522883e+01    5.671988e+00
  1.524471e+01    5.753324e+00
  1.526058e+01    5.812825e+00
  1.527646e+01    5.834431e+00
  1.529233e+01    5.583255e+00
  1.530821e+01    5.214139e+00
  1.532409e+01    4.759733e+00
  1.533996e+01    4.228121e+00
  1.535584e+01    3.779729e+00
  1.537171e+01    3.476402e+00
  1.538759e+01    3.209816e+00
  1.540346e+01    3.011403e+00
  1.541934e+01    2.800080e+00
  1.543521e+01    2.657711e+00
  1.545109e+01    2.528388e+00
  1.546697e+01    2.467021e+00
  1.548284e+01    2.370817e+00
  1.549872e+01    2.272576e+00
  1.551459e+01    2.264147e+00
  1.553047e+01    2.218511e+00
  1.554634e+01    2.180147e+00
  1.556222e+01    2.159805e+00
  1.557809e+01    2.151124e+00
  1.559397e+01    2.127308e+00
  1.560985e+01    2.116828e+00
  1.562572e+01    2.084416e+00
  1.564160e+01    2.081381e+00
  1.565747e+01    2.050289e+00
  1.567335e+01    2.038905e+00
  1.568922e+01    2.053670e+00
  1.570510e+01    2.009685e+00
  1.572097e+01    1.981514e+00
  1.573685e+01    1.986536e+00
  1.575273e+01    1.990833e+00
  1.576860e+01    2.001648e+00
  1.578448e+01    1.979148e+00
  1.580035e+01    1.980492e+00
  1.581623e+01    1.943348e+00
  1.583210e+01    1.923182e+00
  1.584798e+01    1.924809e+00
  1.586385e+01    1.922918e+00
  1.587973e+01    1.904123e+00
  1.589561e+01    1.910755e+00
  1.591148e+01    1.905735e+00
  1.592736e+01    1.905756e+00
  1.594323e+01    1.922415e+00
  1.595911e+01    1.910492e+00
  1.597498e+01    1.933637e+00
  1.599086e+01    1.878439e+00
  1.600673e+01    1.858299e+00
  1.602261e+01    1.850339e+00
  1.603849e+01    1.877415e+00
  1.605436e+01    1.867599e+00
  1.607024e+01    1.883626e+00
  1.608611e+01    1.872977e+00
  1.610199e+01    1.883455e+00
  1.611786e+01    1.853911e+00
  1.613374e+01    1.839676e+00
  1.614961e+01    1.863949e+00
  1.616549e+01    1.811306e+00
  1.618137e+01    1.795708e+00
  1.619724e+01    1.847921e+00
  1.621312e+01    1.857395e+00
  1.622899e+01    1.821025e+00
  1.624487e+01    1.829750e+00
  1.626074e+01    1.832668e+00
  1.627662e+01    1.829182e+00
  1.629250e+01    1.811412e+00
  1.630837e+01    1.804533e+00
  1.632425e+01    1.783424e+00
  1.634012e+01    1.819820e+00
  1.635600e+01    1.811918e+00
  1.637187e+01    1.766914e+00
  1.638775e+01    1.739956e+00
  1.640362e+01    1.767044e+00
  1.641950e+01    1.795581e+00
  1.643538e+01    1.785278e+00
  1.645125e+01    1.766490e+00
  1.646713e+01    1.772164e+00
  1.648300e+01    1.765465e+00
  1.649888e+01    1.752329e+00
  1.651475e+01    1.748007e+00
  1.653063e+01    1.757022e+00
  1.654650e+01    1.735319e+00
  1.656238e+01    1.729461e+00
  1.657826e+01    1.759913e+00
  1.659413e+01    1.750693e+00
  1.661001e+01    1.735585e+00
  1.662588e+01    1.717810e+00
  1.664176e+01    1.753369e+00
  1.665763e+01    1.736598e+00
  1.667351e+01    1.712164e+00
  1.668938e+01    1.681377e+00
  1.670526e+01    1.725362e+00
  1.672114e+01    1.735524e+00
  1.673701e+01    1.749848e+00
  1.675289e+01    1.738857e+00
  1.676876e+01    1.705147e+00
  1.678464e+01    1.716992e+00
  1.680051e+01    1.722426e+00
  1.681639e+01    1.741156e+00
  1.683226e+01    1.717580e+00
  1.684814e+01    1.721277e+00
  1.686402e+01    1.722984e+00
  1.687989e+01    1.688007e+00
  1.689577e+01    1.687454e+00
  1.691164e+01    1.680136e+00
  1.692752e+01    1.689599e+00
  1.694339e+01    1.663803e+00
  1.695927e+01    1.650286e+00
  1.697514e+01    1.656269e+00
  1.699102e+01    1.683683e+00
  1.700690e+01    1.695588e+00
  1.702277e+01    1.674291e+00
  1.703865e+01    1.682628e+00
  1.705452e+01    1.674594e+00
  1.707040e+01    1.673061e+00
  1.708627e+01    1.696121e+00
  1.710215e+01    1.671445e+00
  1.711802e+01    1.640580e+00
  1.713390e+01    1.624459e+00
  1.714978e+01    1.621486e+00
  1.716565e+01    1.613229e+00
  1.718153e+01    1.607669e+00
  1.719740e+01    1.623491e+00
  1.721328e+01    1.635757e+00
  1.722915e+01    1.629896e+00
  1.724503e+01    1.582672e+00
  1.726091e+01    1.623055e+00
  1.727678e+01    1.649680e+00
  1.729266e+01    1.616365e+00
  1.730853e+01    1.645694e+00
  1.732441e+01    1.631400e+00
  1.734028e+01    1.628303e+00
  1.735616e+01    1.597932e+00
  1.737203e+01    1.593671e+00
  1.738791e+01    1.605093e+00
  1.740379e+01    1.570153e+00
  1.741966e+01    1.587559e+00
  1.743554e+01    1.633020e+00
  1.745141e+01    1.619619e+00
  1.746729e+01    1.605347e+00
  1.748316e+01    1.603409e+00
  1.749904e+01    1.604969e+00
  1.751491e+01    1.589992e+00
  1.753079e+01    1.598357e+00
  1.754667e+01    1.576851e+00
  1.756254e+01    1.588478e+00
  1.757842e+01    1.607603e+00
  1.759429e+01    1.568693e+00
  1.761017e+01    1.558019e+00
  1.762604e+01    1.542941e+00
  1.764192e+01    1.554613e+00
  1.765779e+01    1.554304e+00
  1.767367e+01    1.535585e+00
  1.768955e+01    1.515980e+00
  1.770542e+01    1.535132e+00
  1.772130e+01    1.563195e+00
  1.773717e+01    1.561614e+00
  1.775305e+01    1.544769e+00
  1.776892e+01    1.587774e+00
  1.778480e+01    1.522143e+00
  1.780067e+01    1.518453e+00
  1.781655e+01    1.537149e+00
  1.783243e+01    1.543349e+00
  1.784830e+01    1.555291e+00
  1.786418e+01    1.543555e+00
  1.788005e+01    1.539507e+00
  1.789593e+01    1.537773e+00
  1.791180e+01    1.528815e+00
  1.792768e+01    1.525445e+00
  1.794355e+01    1.523378e+00
  1.795943e+01    1.527773e+00
  1.797531e+01    1.496997e+00
  1.799118e+01    1.484309e+00
  1.800706e+01    1.492436e+00
  1.802293e+01    1.511450e+00
  1.803881e+01    1.507650e+00
  1.805468e+01    1.484355e+00
  1.807056e+01    1.501314e+00
  1.808643e+01    1.527076e+00
  1.810231e+01    1.505625e+00
  1.811819e+01    1.493851e+00
  1.813406e+01    1.496936e+00
  1.814994e+01    1.489999e+00
  1.816581e+01    1.464240e+00
  1.818169e+01    1.476995e+00
  1.819756e+01    1.490521e+00
  1.821344e+01    1.506254e+00
  1.822932e+01    1.507278e+00
  1.824519e+01    1.477564e+00
  1.826107e+01    1.471469e+00
  1.827694e+01    1.503801e+00
  1.829282e+01    1.470668e+00
  1.830869e+01    1.476887e+00
  1.832457e+01    1.448620e+00
  1.834044e+01    1.467287e+00
  1.835632e+01    1.468119e+00
  1.837220e+01    1.457057e+00
  1.838807e+01    1.486879e+00
  1.840395e+01    1.465555e+00
  1.841982e+01    1.488298e+00
  1.843570e+01    1.448690e+00
  1.845157e+01    1.435211e+00
  1.846745e+01    1.415895e+00
  1.848332e+01    1.441886e+00
  1.849920e+01    1.439904e+00
  1.851508e+01    1.449850e+00
  1.853095e+01    1.466253e+00
  1.854683e+01    1.455538e+00
  1.856270e+01    1.453902e+00
  1.857858e+01    1.449608e+00
  1.859445e+01    1.415712e+00
  1.861033e+01    1.432006e+00
  1.862620e+01    1.451178e+00
  1.864208e+01    1.445779e+00
  1.865796e+01    1.429624e+00
  1.867383e+01    1.433837e+00
  1.868971e+01    1.451072e+00
  1.870558e+01    1.423440e+00
  1.872146e+01    1.437624e+00
  1.873733e+01    1.430328e+00
  1.875321e+01    1.437616e+00
  1.876908e+01    1.445914e+00
  1.878496e+01    1.441643e+00
  1.880084e+01    1.448984e+00
  1.881671e+01    1.453900e+00
  1.883259e+01    1.464572e+00
  1.884846e+01    1.430303e+00
  1.886434e+01    1.390758e+00
  1.888021e+01    1.396300e+00
  1.889609e+01    1.390703e+00
  1.891196e+01    1.409580e+00
  1.892784e+01    1.399263e+00
  1.894372e+01    1.381693e+00
  1.895959e+01    1.385993e+00
  1.897547e+01    1.385912e+00
  1.899134e+01    1.391943e+00
  1.900722e+01    1.405408e+00
  1.902309e+01    1.402543e+00
  1.903897e+01    1.380848e+00
  1.905484e+01    1.378304e+00
  1.907072e+01    1.374771e+00
  1.908660e+01    1.397415e+00
  1.910247e+01    1.371928e+00
  1.911835e+01    1.370440e+00
  1.913422e+01    1.376925e+00
  1.915010e+01    1.340954e+00
  1.916597e+01    1.374796e+00
  1.918185e+01    1.379847e+00
  1.919773e+01    1.372832e+00
  1.921360e+01    1.362695e+00
  1.922948e+01    1.360436e+00
  1.924535e+01    1.352078e+00
  1.926123e+01    1.343166e+00
  1.927710e+01    1.361215e+00
  1.929298e+01    1.326645e+00
  1.930885e+01    1.336694e+00
  1.932473e+01    1.358409e+00
  1.934061e+01    1.389944e+00
  1.935648e+01    1.365249e+00
  1.937236e+01    1.336394e+00
  1.938823e+01    1.343821e+00
  1.940411e+01    1.363906e+00
  1.941998e+01    1.346395e+00
  1.943586e+01    1.360747e+00
  1.945173e+01    1.341235e+00
  1.946761e+01    1.339724e+00
  1.948349e+01    1.331813e+00
  1.949936e+01    1.325751e+00
  1.951524e+01    1.330734e+00
  1.953111e+01    1.333816e+00
  1.954699e+01    1.330078e+00
  1.956286e+01    1.319601e+00
  1.957874e+01    1.333780e+00
  1.959461e+01    1.355520e+00
  1.961049e+01    1.333905e+00
  1.962637e+01    1.318163e+00
  1.964224e+01    1.342556e+00
  1.965812e+01    1.327057e+00
  1.967399e+01    1.323580e+00
  1.968987e+01    1.336024e+00
  1.970574e+01    1.337107e+00
  1.972162e+01    1.325496e+00
  1.973749e+01    1.324643e+00
  1.975337e+01    1.308138e+00
  1.976925e+01    1.296227e+00
  1.978512e+01    1.291493e+00
  1.980100e+01    1.284059e+00
  1.981687e+01    1.284053e+00
  1.983275e+01    1.283080e+00
  1.984862e+01    1.319422e+00
  1.986450e+01    1.296926e+00
  1.988037e+01    1.260328e+00
  1.989625e+01    1.261731e+00
  1.991213e+01    1.305753e+00
  1.992800e+01    1.335124e+00
  1.994388e+01    1.302459e+00
  1.995975e+01    1.313628e+00
  1.997563e+01    1.309196e+00
  1.999150e+01    1.279597e+00
  2.000738e+01    1.269616e+00
  2.002325e+01    1.271563e+00
  2.003913e+01    1.277334e+00
  2.005501e+01    1.275948e+00
  2.007088e+01    1.282279e+00
  2.008676e+01    1.263341e+00
  2.010263e+01    1.272507e+00
  2.011851e+01    1.252748e+00
  2.013438e+01    1.262775e+00
  2.015026e+01    1.269207e+00
  2.016614e+01    1.268504e+00
  2.018201e+01    1.271562e+00
  2.019789e+01    1.276114e+00
  2.021376e+01    1.258352e+00
  2.022964e+01    1.263946e+00
  2.024551e+01    1.253062e+00
  2.026139e+01    1.275975e+00
  2.027726e+01    1.273689e+00
  2.029314e+01    1.235911e+00
  2.030902e+01    1.260041e+00
  2.032489e+01    1.270120e+00
  2.034077e+01    1.254672e+00
  2.035664e+01    1.249508e+00
  2.037252e+01    1.263028e+00
  2.038839e+01    1.264107e+00
  2.040427e+01    1.250050e+00
  2.042014e+01    1.251805e+00
  2.043602e+01    1.244904e+00
  2.045190e+01    1.250475e+00
  2.046777e+01    1.241774e+00
  2.048365e+01    1.254215e+00
  2.049952e+01    1.241107e+00
  2.051540e+01    1.239071e+00
  2.053127e+01    1.246819e+00
  2.054715e+01    1.249502e+00
  2.056302e+01    1.265176e+00
  2.057890e+01    1.262590e+00
  2.059478e+01    1.249561e+00
  2.061065e+01    1.244972e+00
  2.062653e+01    1.252752e+00
  2.064240e+01    1.247963e+00
  2.065828e+01    1.267197e+00
  2.067415e+01    1.243477e+00
  2.069003e+01    1.231418e+00
  2.070590e+01    1.226211e+00
  2.072178e+01    1.242640e+00
  2.073766e+01    1.233309e+00
  2.075353e+01    1.226086e+00
  2.076941e+01    1.220281e+00
  2.078528e+01    1.219139e+00
  2.080116e+01    1.235723e+00
  2.081703e+01    1.241815e+00
  2.083291e+01    1.247768e+00
  2.084878e+01    1.221223e+00
  2.086466e+01    1.214552e+00
  2.088054e+01    1.228789e+00
  2.089641e+01    1.219675e+00
  2.091229e+01    1.225799e+00
  2.092816e+01    1.260350e+00
  2.094404e+01    1.276093e+00
  2.095991e+01    1.241704e+00
  2.097579e+01    1.246166e+00
  2.099166e+01    1.235623e+00
  2.100754e+01    1.203056e+00
  2.102342e+01    1.211326e+00
  2.103929e+01    1.220308e+00
  2.105517e+01    1.219930e+00
  2.107104e+01    1.253889e+00
  2.108692e+01    1.234998e+00
  2.110279e+01    1.251582e+00
  2.111867e+01    1.227395e+00
  2.113455e+01    1.223429e+00
  2.115042e+01    1.239310e+00
  2.116630e+01    1.234811e+00
  2.118217e+01    1.240136e+00
  2.119805e+01    1.219437e+00
  2.121392e+01    1.228044e+00
  2.122980e+01    1.253691e+00
  2.124567e+01    1.242109e+00
  2.126155e+01    1.243272e+00
  2.127743e+01    1.272525e+00
  2.129330e+01    1.277133e+00
  2.130918e+01    1.270472e+00
  2.132505e+01    1.278392e+00
  2.134093e+01    1.269587e+00
  2.135680e+01    1.296065e+00
  2.137268e+01    1.295073e+00
  2.138855e+01    1.317464e+00
  2.140443e+01    1.311990e+00
  2.142031e+01    1.321288e+00
  2.143618e+01    1.326418e+00
  2.145206e+01    1.375521e+00
  2.146793e+01    1.364838e+00
  2.148381e+01    1.391797e+00
  2.149968e+01    1.432437e+00
  2.151556e+01    1.450549e+00
  2.153143e+01    1.494645e+00
  2.154731e+01    1.537021e+00
  2.156319e+01    1.559418e+00
  2.157906e+01    1.635713e+00
  2.159494e+01    1.672664e+00
  2.161081e+01    1.748570e+00
  2.162669e+01    1.852140e+00
  2.164256e+01    1.979510e+00
  2.165844e+01    2.122195e+00
  2.167431e+01    2.286558e+00
  2.169019e+01    2.536971e+00
  2.170607e+01    2.826511e+00
  2.172194e+01    3.172685e+00
  2.173782e+01    3.548875e+00
  2.175369e+01    4.054113e+00
  2.176957e+01    4.621810e+00
  2.178544e+01    5.232923e+00
  2.180132e+01    5.849611e+00
  2.181719e+01    6.521874e+00
  2.183307e+01    7.273746e+00
  2.184895e+01    7.906272e+00
  2.186482e+01    8.425680e+00
  2.188070e+01    8.834774e+00
  2.189657e+01    9.048026e+00
  2.191245e+01    8.835104e+00
  2.192832e+01    8.392388e+00
  2.194420e+01    7.628182e+00
  2.196007e+01    6.671491e+00
  2.197595e+01    5.728105e+00
  2.199183e+01    4.930833e+00
  2.200770e+01    4.192395e+00
  2.202358e+01    3.637134e+00
  2.203945e+01    3.156825e+00
  2.205533e+01    2.858094e+00
  2.207120e+01    2.558867e+00
  2.208708e+01    2.332198e+00
  2.210296e+01    2.187941e+00
  2.211883e+01    2.039216e+00
  2.213471e+01    1.889536e+00
  2.215058e+01    1.792171e+00
  2.216646e+01    1.684423e+00
  2.218233e+01    1.600652e+00
  2.219821e+01    1.557376e+00
  2.221408e+01    1.500885e+00
  2.222996e+01    1.443768e+00
  2.224584e+01    1.426940e+00
  2.226171e+01    1.382362e+00
  2.227759e+01    1.352335e+00
  2.229346e+01    1.308987e+00
  2.230934e+01    1.269787e+00
  2.232521e+01    1.267385e+00
  2.234109e+01    1.243867e+00
  2.235696e+01    1.225220e+00
  2.237284e+01    1.228712e+00
  2.238872e+01    1.234211e+00
  2.240459e+01    1.214939e+00
  2.242047e+01    1.212522e+00
  2.243634e+01    1.199612e+00
  2.245222e+01    1.169034e+00
  2.246809e+01    1.149424e+00
  2.248397e+01    1.156605e+00
  2.249984e+01    1.144373e+00
  2.251572e+01    1.147811e+00
  2.253160e+01    1.144350e+00
  2.254747e+01    1.124096e+00
  2.256335e+01    1.128168e+00
  2.257922e+01    1.119892e+00
  2.259510e+01    1.129722e+00
  2.261097e+01    1.104312e+00
  2.262685e+01    1.119458e+00
  2.264272e+01    1.107194e+00
  2.265860e+01    1.104802e+00
  2.267448e+01    1.085407e+00
  2.269035e+01    1.069182e+00
  2.270623e+01    1.067401e+00
  2.272210e+01    1.081624e+00
  2.273798e+01    1.098714e+00
  2.275385e+01    1.087491e+00
  2.276973e+01    1.091107e+00
  2.278560e+01    1.094140e+00
  2.280148e+01    1.077721e+00
  2.281736e+01    1.085607e+00
  2.283323e+01    1.062541e+00
  2.284911e+01    1.054330e+00
  2.286498e+01    1.055039e+00
  2.288086e+01    1.044320e+00
  2.289673e+01    1.067751e+00
  2.291261e+01    1.041645e+00
  2.292848e+01    1.025582e+00
  2.294436e+01    1.030577e+00
  2.296024e+01    1.040133e+00
  2.297611e+01    1.027659e+00
  2.299199e+01    1.041493e+00
  2.300786e+01    1.010893e+00
  2.302374e+01    1.006708e+00
  2.303961e+01    1.027058e+00
  2.305549e+01    1.011989e+00
  2.307137e+01    1.008682e+00
  2.308724e+01    1.002529e+00
  2.310312e+01    1.019111e+00
  2.311899e+01    1.015756e+00
  2.313487e+01    1.017626e+00
  2.315074e+01    9.958383e-01
  2.316662e+01    1.001950e+00
  2.318249e+01    9.988016e-01
  2.319837e+01    1.014889e+00
  2.321425e+01    1.003785e+00
  2.323012e+01    9.898696e-01
  2.324600e+01    9.922348e-01
  2.326187e+01    9.966454e-01
  2.327775e+01    1.005192e+00
  2.329362e+01    1.009490e+00
  2.330950e+01    9.926319e-01
  2.332537e+01    9.777046e-01
  2.334125e+01    9.846699e-01
  2.335713e+01    9.638502e-01
  2.337300e+01    9.718542e-01
  2.338888e+01    9.794894e-01
  2.340475e+01    9.825203e-01
  2.342063e+01    9.869093e-01
  2.343650e+01    9.718125e-01
  2.345238e+01    9.672692e-01
  2.346825e+01    9.703225e-01
  2.348413e+01    9.795683e-01
  2.350001e+01    9.817918e-01
  2.351588e+01    9.462107e-01
  2.353176e+01    9.364423e-01
  2.354763e+01    9.581286e-01
  2.356351e+01    9.587127e-01
  2.357938e+01    9.582713e-01
  2.359526e+01    9.518891e-01
  2.361113e+01    9.872766e-01
  2.362701e+01    9.701169e-01
  2.364289e+01    9.631521e-01
  2.365876e+01    9.489094e-01
  2.367464e+01    9.398366e-01
  2.369051e+01    9.246186e-01
  2.370639e+01    9.107090e-01
  2.372226e+01    9.158040e-01
  2.373814e+01    9.343672e-01
  2.375401e+01    9.539864e-01
  2.376989e+01    9.422404e-01
  2.378577e+01    9.383696e-01
  2.380164e+01    9.107888e-01
  2.381752e+01    9.105884e-01
  2.383339e+01    8.919851e-01
  2.384927e+01    9.233129e-01
  2.386514e+01    9.260950e-01
  2.388102e+01    9.105031e-01
  2.389689e+01    9.376184e-01
  2.391277e+01    9.132855e-01
  2.392865e+01    8.955109e-01
  2.394452e+01    9.035553e-01
  2.396040e+01    9.153824e-01
  2.397627e+01    9.127474e-01
  2.399215e+01    8.975422e-01
  2.400802e+01    9.015586e-01
  2.402390e+01    9.069864e-01
  2.403978e+01    9.215429e-01
  2.405565e+01    8.944907e-01
  2.407153e+01    8.944422e-01
  2.408740e+01    9.060590e-01
  2.410328e+01    8.996807e-01
  2.411915e+01    9.002959e-01
  2.413503e+01    8.821859e-01
  2.415090e+01    8.996992e-01
  2.416678e+01    9.114672e-01
  2.418266e+01    8.945678e-01
  2.419853e+01    8.966751e-01
  2.421441e+01    9.167117e-01
  2.423028e+01    9.014769e-01
  2.424616e+01    8.787133e-01
  2.426203e+01    9.001940e-01
  2.427791e+01    9.061652e-01
  2.429378e+01    9.264456e-01
  2.430966e+01    8.928007e-01
  2.432554e+01    9.041556e-01
  2.434141e+01    8.987751e-01
  2.435729e+01    9.017953e-01
  2.437316e+01    9.098194e-01
  2.438904e+01    8.836378e-01
  2.440491e+01    8.835148e-01
  2.442079e+01    9.056681e-01
  2.443666e+01    9.035473e-01
  2.445254e+01    8.963457e-01
  2.446842e+01    8.930945e-01
  2.448429e+01    8.875370e-01
  2.450017e+01    8.701157e-01
  2.451604e+01    8.894341e-01
  2.453192e+01    8.942292e-01
  2.454779e+01    8.882070e-01
  2.456367e+01    8.853685e-01
  2.457954e+01    8.973684e-01
  2.459542e+01    9.123263e-01
  2.461130e+01    9.130149e-01
  2.462717e+01    9.005462e-01
  2.464305e+01    9.082804e-01
  2.465892e+01    8.847521e-01
  2.467480e+01    8.891933e-01
  2.469067e+01    9.064966e-01
  2.470655e+01    9.186122e-01
  2.472242e+01    8.955470e-01
  2.473830e+01    9.048756e-01
  2.475418e+01    8.884687e-01
  2.477005e+01    8.860316e-01
  2.478593e+01    8.964255e-01
  2.480180e+01    8.948513e-01
  2.481768e+01    9.042386e-01
  2.483355e+01    8.948524e-01
  2.484943e+01    9.068233e-01
  2.486530e+01    8.899867e-01
  2.488118e+01    8.749239e-01
  2.489706e+01    8.830174e-01
  2.491293e+01    9.072827e-01
  2.492881e+01    8.918737e-01
  2.494468e+01    8.858851e-01
  2.496056e+01    8.744520e-01
  2.497643e+01    8.735313e-01
  2.499231e+01    8.928446e-01
  2.500819e+01    9.010406e-01
  2.502406e+01    9.072926e-01
  2.503994e+01    9.127388e-01
  2.505581e+01    9.290493e-01
  2.507169e+01    9.177059e-01
  2.508756e+01    9.012479e-01
  2.510344e+01    8.966445e-01
  2.511931e+01    9.257537e-01
  2.513519e+01    9.195058e-01
  2.515107e+01    9.151399e-01
  2.516694e+01    9.213426e-01
  2.518282e+01    9.247306e-01
  2.519869e+01    9.225795e-01
  2.521457e+01    9.256110e-01
  2.523044e+01    9.216150e-01
  2.524632e+01    9.495459e-01
  2.526219e+01    9.554653e-01
  2.527807e+01    9.534518e-01
  2.529395e+01    9.603993e-01
  2.530982e+01    9.432966e-01
  2.532570e+01    9.640526e-01
  2.534157e+01    9.777793e-01
  2.535745e+01    9.869858e-01
  2.537332e+01    9.890742e-01
  2.538920e+01    9.861240e-01
  2.540507e+01    9.923303e-01
  2.542095e+01    1.007675e+00
  2.543683e+01    1.006134e+00
  2.545270e+01    1.004293e+00
  2.546858e+01    1.030964e+00
  2.548445e+01    1.040174e+00
  2.550033e+01    1.087102e+00
  2.551620e+01    1.077945e+00
  2.553208e+01    1.090353e+00
  2.554795e+01    1.115784e+00
  2.556383e+01    1.133557e+00
  2.557971e+01    1.164714e+00
  2.559558e+01    1.197496e+00
  2.561146e+01    1.221180e+00
  2.562733e+01    1.233013e+00
  2.564321e+01    1.299442e+00
  2.565908e+01    1.344585e+00
  2.567496e+01    1.422250e+00
  2.569083e+01    1.523561e+00
  2.570671e+01    1.621327e+00
  2.572259e+01    1.726819e+00
  2.573846e+01    1.872879e+00
  2.575434e+01    2.054440e+00
  2.577021e+01    2.272238e+00
  2.578609e+01    2.499616e+00
  2.580196e+01    2.836056e+00
  2.581784e+01    3.184566e+00
  2.583371e+01    3.618045e+00
  2.584959e+01    4.158521e+00
  2.586547e+01    4.700213e+00
  2.588134e+01    5.248028e+00
  2.589722e+01    5.867805e+00
  2.591309e+01    6.363092e+00
  2.592897e+01    6.829481e+00
  2.594484e+01    7.163828e+00
  2.596072e+01    7.247582e+00
  2.597660e+01    7.032782e+00
  2.599247e+01    6.639637e+00
  2.600835e+01    6.080667e+00
  2.602422e+01    5.328846e+00
  2.604010e+01    4.700486e+00
  2.605597e+01    4.081872e+00
  2.607185e+01    3.488387e+00
  2.608772e+01    3.026177e+00
  2.610360e+01    2.680537e+00
  2.611948e+01    2.382617e+00
  2.613535e+01    2.147723e+00
  2.615123e+01    1.971521e+00
  2.616710e+01    1.830449e+00
  2.618298e+01    1.675710e+00
  2.619885e+01    1.575242e+00
  2.621473e+01    1.484278e+00
  2.623060e+01    1.415375e+00
  2.624648e+01    1.358460e+00
  2.626236e+01    1.297612e+00
  2.627823e+01    1.265747e+00
  2.629411e+01    1.217734e+00
  2.630998e+01    1.174723e+00
  2.632586e+01    1.162724e+00
  2.634173e+01    1.142623e+00
  2.635761e+01    1.132341e+00
  2.637348e+01    1.075730e+00
  2.638936e+01    1.069656e+00
  2.640524e+01    1.066151e+00
  2.642111e+01    1.050843e+00
  2.643699e+01    1.043252e+00
  2.645286e+01    1.036674e+00
  2.646874e+01    1.033127e+00
  2.648461e+01    1.014113e+00
  2.650049e+01    1.023972e+00
  2.651636e+01    1.013726e+00
  2.653224e+01    1.014320e+00
  2.654812e+01    9.982005e-01
  2.656399e+01    9.960187e-01
  2.657987e+01    1.000555e+00
  2.659574e+01    9.879544e-01
  2.661162e+01    9.926826e-01
  2.662749e+01    9.808312e-01
  2.664337e+01    9.887321e-01
  2.665924e+01    9.699603e-01
  2.667512e+01    9.557067e-01
  2.669100e+01    9.706649e-01
  2.670687e+01    9.632934e-01
  2.672275e+01    9.850262e-01
  2.673862e+01    9.803813e-01
  2.675450e+01    9.727032e-01
  2.677037e+01    9.866632e-01
  2.678625e+01    9.942784e-01
  2.680212e+01    9.801587e-01
  2.681800e+01    9.728845e-01
  2.683388e+01    9.816284e-01
  2.684975e+01    9.790534e-01
  2.686563e+01    9.872099e-01
  2.688150e+01    9.835013e-01
  2.689738e+01    1.009148e+00
  2.691325e+01    9.973105e-01
  2.692913e+01    1.023232e+00
  2.694501e+01    1.042428e+00
  2.696088e+01    1.051226e+00
  2.697676e+01    1.069885e+00
  2.699263e+01    1.077465e+00
  2.700851e+01    1.102524e+00
  2.702438e+01    1.187469e+00
  2.704026e+01    1.216974e+00
  2.705613e+01    1.248740e+00
  2.707201e+01    1.318274e+00
  2.708789e+01    1.370854e+00
  2.710376e+01    1.513947e+00
  2.711964e+01    1.609697e+00
  2.713551e+01    1.729419e+00
  2.715139e+01    1.866404e+00
  2.716726e+01    1.978229e+00
  2.718314e+01    2.085615e+00
  2.719901e+01    2.164312e+00
  2.721489e+01    2.170766e+00
  2.723077e+01    2.180286e+00
  2.724664e+01    2.130709e+00
  2.726252e+01    2.022963e+00
  2.727839e+01    1.844487e+00
  2.729427e+01    1.723117e+00
  2.731014e+01    1.609765e+00
  2.732602e+01    1.446033e+00
  2.734189e+01    1.384336e+00
  2.735777e+01    1.302297e+00
  2.737365e+01    1.214836e+00
  2.738952e+01    1.191658e+00
  2.740540e+01    1.157371e+00
  2.742127e+01    1.090805e+00
  2.743715e+01    1.051583e+00
  2.745302e+01    1.031647e+00
  2.746890e+01    1.004377e+00
  2.748477e+01    9.670623e-01
  2.750065e+01    9.772006e-01
  2.751653e+01    9.743933e-01
  2.753240e+01    9.672735e-01
  2.754828e+01    9.655386e-01
  2.756415e+01    9.330918e-01
  2.758003e+01    9.228486e-01
  2.759590e+01    9.494010e-01
  2.761178e+01    9.634103e-01
  2.762765e+01    9.530112e-01
  2.764353e+01    9.050142e-01
  2.765941e+01    8.965341e-01
  2.767528e+01    9.000580e-01
  2.769116e+01    8.813167e-01
  2.770703e+01    8.869606e-01
  2.772291e+01    8.899786e-01
  2.773878e+01    9.071450e-01
  2.775466e+01    9.070338e-01
  2.777054e+01    9.119373e-01
  2.778641e+01    8.936723e-01
  2.780229e+01    9.003675e-01
  2.781816e+01    8.893944e-01
  2.783404e+01    8.805108e-01
  2.784991e+01    8.831961e-01
  2.786579e+01    9.002319e-01
  2.788166e+01    8.865525e-01
  2.789754e+01    8.906733e-01
  2.791342e+01    8.925037e-01
  2.792929e+01    8.782961e-01
  2.794517e+01    8.769430e-01
  2.796104e+01    8.707291e-01
  2.797692e+01    8.653063e-01
  2.799279e+01    8.715652e-01
  2.800867e+01    8.671103e-01
  2.802454e+01    8.820801e-01
  2.804042e+01    8.715902e-01
  2.805630e+01    8.708043e-01
  2.807217e+01    8.648821e-01
  2.808805e+01    8.589860e-01
  2.810392e+01    8.624398e-01
  2.811980e+01    8.594249e-01
  2.813567e+01    8.561750e-01
  2.815155e+01    8.389028e-01
  2.816742e+01    8.534529e-01
  2.818330e+01    8.471774e-01
  2.819918e+01    8.482227e-01
  2.821505e+01    8.596565e-01
  2.823093e+01    8.439671e-01
  2.824680e+01    8.482081e-01
  2.826268e+01    8.667088e-01
  2.827855e+01    8.607943e-01
  2.829443e+01    8.472692e-01
  2.831030e+01    8.552260e-01
  2.832618e+01    8.503656e-01
  2.834206e+01    8.420335e-01
  2.835793e+01    8.356073e-01
  2.837381e+01    8.488842e-01
  2.838968e+01    8.503343e-01
  2.840556e+01    8.449076e-01
  2.842143e+01    8.295046e-01
  2.843731e+01    8.631390e-01
  2.845318e+01    8.402136e-01
  2.846906e+01    8.343772e-01
  2.848494e+01    8.444957e-01
  2.850081e+01    8.317385e-01
  2.851669e+01    8.252441e-01
  2.853256e+01    8.423543e-01
  2.854844e+01    8.626494e-01
  2.856431e+01    8.525711e-01
  2.858019e+01    8.403221e-01
  2.859606e+01    8.499711e-01
  2.861194e+01    8.379628e-01
  2.862782e+01    8.256149e-01
  2.864369e+01    8.348140e-01
  2.865957e+01    8.393160e-01
  2.867544e+01    8.326288e-01
  2.869132e+01    8.319439e-01
  2.870719e+01    8.393567e-01
  2.872307e+01    8.350058e-01
  2.873895e+01    8.441369e-01
  2.875482e+01    8.285502e-01
  2.877070e+01    8.213145e-01
  2.878657e+01    8.176128e-01
  2.880245e+01    8.156949e-01
  2.881832e+01    8.154888e-01
  2.883420e+01    8.319608e-01
  2.885007e+01    8.324378e-01
  2.886595e+01    8.203783e-01
  2.888183e+01    8.249533e-01
  2.889770e+01    8.440984e-01
  2.891358e+01    8.336260e-01
  2.892945e+01    8.425392e-01
  2.894533e+01    8.301441e-01
  2.896120e+01    8.099557e-01
  2.897708e+01    8.243883e-01
  2.899295e+01    8.260217e-01
  2.900883e+01    8.347867e-01
  2.902471e+01    8.278365e-01
  2.904058e+01    8.328391e-01
  2.905646e+01    8.352674e-01
  2.907233e+01    8.335550e-01
  2.908821e+01    8.253479e-01
  2.910408e+01    8.132542e-01
  2.911996e+01    8.131368e-01
  2.913583e+01    8.109041e-01
  2.915171e+01    7.973650e-01
  2.916759e+01    8.276738e-01
  2.918346e+01    8.281228e-01
  2.919934e+01    8.344653e-01
  2.921521e+01    8.167351e-01
  2.923109e+01    8.223664e-01
  2.924696e+01    8.028022e-01
  2.926284e+01    8.035756e-01
  2.927871e+01    8.115577e-01
  2.929459e+01    8.144996e-01
  2.931047e+01    8.142294e-01
  2.932634e+01    8.176100e-01
  2.934222e+01    8.142858e-01
  2.935809e+01    8.153086e-01
  2.937397e+01    8.102846e-01
  2.938984e+01    8.257885e-01
  2.940572e+01    8.104007e-01
  2.942159e+01    7.755124e-01
  2.943747e+01    7.993575e-01
  2.945335e+01    8.029194e-01
  2.946922e+01    8.033329e-01
  2.948510e+01    8.093923e-01
  2.950097e+01    8.101355e-01
  2.951685e+01    8.059078e-01
  2.953272e+01    8.200686e-01
  2.954860e+01    8.223585e-01
  2.956447e+01    8.163435e-01
  2.958035e+01    8.178595e-01
  2.959623e+01    7.938541e-01
  2.961210e+01    7.843910e-01
  2.962798e+01    7.919487e-01
  2.964385e+01    8.224670e-01
  2.965973e+01    8.121285e-01
  2.967560e+01    7.990155e-01
  2.969148e+01    7.998106e-01
  2.970736e+01    8.058920e-01
  2.972323e+01    8.127061e-01
  2.973911e+01    8.089668e-01
  2.975498e+01    7.931125e-01
  2.977086e+01    8.181744e-01
  2.978673e+01    8.129656e-01
  2.980261e+01    8.062083e-01
  2.981848e+01    8.006093e-01
  2.983436e+01    7.897433e-01
  2.985024e+01    8.028774e-01
  2.986611e+01    8.010486e-01
  2.988199e+01    7.985229e-01
  2.989786e+01    7.926593e-01
  2.991374e+01    8.142661e-01
  2.992961e+01    8.060634e-01
  2.994549e+01    8.156577e-01
  2.996136e+01    7.990578e-01
  2.997724e+01    8.208115e-01
  2.999312e+01    8.085250e-01
  3.000899e+01    8.077379e-01
  3.002487e+01    8.114092e-01
  3.004074e+01    8.126863e-01
  3.005662e+01    8.124133e-01
  3.007249e+01    8.042857e-01
  3.008837e+01    7.982002e-01
  3.010424e+01    7.989594e-01
  3.012012e+01    8.088200e-01
  3.013600e+01    7.825996e-01
  3.015187e+01    7.792059e-01
  3.016775e+01    7.900562e-01
  3.018362e+01    7.886545e-01
  3.019950e+01    7.958856e-01
  3.021537e+01    8.076316e-01
  3.023125e+01    8.013411e-01
  3.024712e+01    7.973040e-01
  3.026300e+01    8.091056e-01
  3.027888e+01    7.857252e-01
  3.029475e+01    7.933362e-01
  3.031063e+01    8.056428e-01
  3.032650e+01    7.847966e-01
  3.034238e+01    7.754562e-01
  3.035825e+01    7.933567e-01
  3.037413e+01    8.072164e-01
  3.039000e+01    7.881032e-01
  3.040588e+01    7.785922e-01
  3.042176e+01    7.658398e-01
  3.043763e+01    7.768059e-01
  3.045351e+01    7.926359e-01
  3.046938e+01    7.755699e-01
  3.048526e+01    7.791876e-01
  3.050113e+01    7.846918e-01
  3.051701e+01    7.743729e-01
  3.053288e+01    7.962582e-01
  3.054876e+01    7.770915e-01
  3.056464e+01    7.819701e-01
  3.058051e+01    7.811816e-01
  3.059639e+01    7.733579e-01
  3.061226e+01    8.038635e-01
  3.062814e+01    8.094465e-01
  3.064401e+01    7.857282e-01
  3.065989e+01    7.793449e-01
  3.067577e+01    7.877855e-01
  3.069164e+01    7.952026e-01
  3.070752e+01    7.996231e-01
  3.072339e+01    7.742009e-01
  3.073927e+01    7.941379e-01
  3.075514e+01    7.800612e-01
  3.077102e+01    7.821746e-01
  3.078689e+01    7.664291e-01
  3.080277e+01    7.836209e-01
  3.081865e+01    7.793881e-01
  3.083452e+01    7.835594e-01
  3.085040e+01    7.875459e-01
  3.086627e+01    7.951517e-01
  3.088215e+01    7.866379e-01
  3.089802e+01    7.762684e-01
  3.091390e+01    7.825818e-01
  3.092977e+01    7.695854e-01
  3.094565e+01    7.890357e-01
  3.096153e+01    7.928773e-01
  3.097740e+01    7.604899e-01
  3.099328e+01    7.809559e-01
  3.100915e+01    7.689500e-01
  3.102503e+01    7.861362e-01
  3.104090e+01    7.799306e-01
  3.105678e+01    7.933883e-01
  3.107265e+01    7.724015e-01
  3.108853e+01    7.801129e-01
  3.110441e+01    7.598181e-01
  3.112028e+01    7.822458e-01
  3.113616e+01    8.002068e-01
  3.115203e+01    7.874034e-01
  3.116791e+01    7.986547e-01
  3.118378e+01    7.757946e-01
  3.119966e+01    7.804755e-01
  3.121553e+01    8.097792e-01
  3.123141e+01    8.108616e-01
  3.124729e+01    8.083825e-01
  3.126316e+01    7.931286e-01
  3.127904e+01    7.960993e-01
  3.129491e+01    8.058894e-01
  3.131079e+01    8.031368e-01
  3.132666e+01    8.006635e-01
  3.134254e+01    8.172293e-01
  3.135841e+01    8.013759e-01
  3.137429e+01    7.991009e-01
  3.139017e+01    8.079798e-01
  3.140604e+01    7.983643e-01
  3.142192e+01    8.202856e-01
  3.143779e+01    8.314999e-01
  3.145367e+01    8.424968e-01
  3.146954e+01    8.323507e-01
  3.148542e+01    8.409845e-01
  3.150129e+01    8.200000e-01
  3.151717e+01    8.363929e-01
  3.153305e+01    8.586659e-01
  3.154892e+01    8.636658e-01
  3.156480e+01    8.622718e-01
  3.158067e+01    8.431839e-01
  3.159655e+01    8.666589e-01
  3.161242e+01    9.047009e-01
  3.162830e+01    9.155640e-01
  3.164418e+01    9.280537e-01
  3.166005e+01    9.556249e-01
  3.167593e+01    9.794754e-01
  3.169180e+01    9.843806e-01
  3.170768e+01    1.011609e+00
  3.172355e+01    1.079706e+00
  3.173943e+01    1.154339e+00
  3.175530e+01    1.192914e+00
  3.177118e+01    1.252837e+00
  3.178706e+01    1.359082e+00
  3.180293e+01    1.439076e+00
  3.181881e+01    1.601264e+00
  3.183468e+01    1.731324e+00
  3.185056e+01    1.865492e+00
  3.186643e+01    2.002716e+00
  3.188231e+01    2.053645e+00
  3.189818e+01    2.104152e+00
  3.191406e+01    2.109209e+00
  3.192994e+01    2.075834e+00
  3.194581e+01    1.965703e+00
  3.196169e+01    1.843324e+00
  3.197756e+01    1.734147e+00
  3.199344e+01    1.585064e+00
  3.200931e+01    1.452956e+00
  3.202519e+01    1.354069e+00
  3.204106e+01    1.234971e+00
  3.205694e+01    1.157443e+00
  3.207282e+01    1.128870e+00
  3.208869e+01    1.074079e+00
  3.210457e+01    1.026350e+00
  3.212044e+01    1.004478e+00
  3.213632e+01    9.493026e-01
  3.215219e+01    9.180390e-01
  3.216807e+01    8.908746e-01
  3.218394e+01    8.846594e-01
  3.219982e+01    8.710471e-01
  3.221570e+01    8.819827e-01
  3.223157e+01    8.548931e-01
  3.224745e+01    8.495761e-01
  3.226332e+01    8.467804e-01
  3.227920e+01    8.174672e-01
  3.229507e+01    8.197145e-01
  3.231095e+01    8.108100e-01
  3.232682e+01    8.004590e-01
  3.234270e+01    8.118619e-01
  3.235858e+01    8.137441e-01
  3.237445e+01    8.218052e-01
  3.239033e+01    8.269393e-01
  3.240620e+01    7.846037e-01
  3.242208e+01    7.705879e-01
  3.243795e+01    7.900898e-01
  3.245383e+01    7.893340e-01
  3.246970e+01    8.094945e-01
  3.248558e+01    7.787248e-01
  3.250146e+01    7.664499e-01
  3.251733e+01    7.711049e-01
  3.253321e+01    7.693334e-01
  3.254908e+01    7.811696e-01
