# == pyFAI calibration ==
# Distance Sample to Detector: 0.3999999939076516 m
# PONI: 9.750e-02, 1.135e-01 m
# Rotations: -0.000175 0.000000 -0.000000 rad
# 
# == Fit2d calibration ==
# Distance Sample-beamCenter: 400.000 mm
# Center: x=1514.000, y=1300.000 pix
# Tilt: 0.010 deg  TiltPlanRot: 0.010 deg
# 
# Detector Detector	 Spline= None	 PixelSize= 7.500e-05, 7.500e-05 m
#    Detector has a mask: False 
#    Detector has a dark current: False 
#    detector has a flat field: False 
# 
# Wavelength: 6.888e-11 m
# Mask applied: user provided
# Dark current applied: False
# Flat field applied: False
# Polarization factor: 0.99
# Normalization factor: 1.0
# --> /home/myspot/data/2024_07_Rosario/Ru-CGO-ex/2024-07-27_003_Ru-CGO-ex_Reaction_dwell_000023_data_000146.dat
#       q_nm^-1             I 
  2.003187e-02    7.711996e-02
  3.590745e-02    1.701047e-01
  5.178302e-02    2.611997e-01
  6.765859e-02    2.664375e-01
  8.353417e-02    2.103893e-01
  9.940974e-02    1.866210e-01
  1.152853e-01    8.632532e-02
  1.311609e-01    4.739453e-02
  1.470365e-01    9.062810e-02
  1.629120e-01    8.735383e-02
  1.787876e-01    6.314299e-02
  1.946632e-01    3.326629e-02
  2.105388e-01    0.000000e+00
  2.264143e-01    3.323329e-02
  2.422899e-01    5.891737e-02
  2.581655e-01    5.178275e-02
  2.740411e-01    5.296113e-02
  2.899166e-01    4.269444e-02
  3.057922e-01    4.068909e-02
  3.216678e-01    2.346659e-02
  3.375433e-01    6.373905e-02
  3.534189e-01    2.821287e-02
  3.692945e-01    3.451782e-02
  3.851701e-01    6.226271e-02
  4.010456e-01    4.844349e-02
  4.169212e-01    4.213372e-02
  4.327968e-01    1.857637e-02
  4.486724e-01    2.008329e-02
  4.645479e-01    3.097538e-02
  4.804235e-01    4.756064e-02
  4.962991e-01    3.151130e-02
  5.121747e-01    5.206309e-02
  5.280502e-01    4.282510e-02
  5.439258e-01    4.249605e-02
  5.598014e-01    5.795291e-02
  5.756770e-01    3.064570e-02
  5.915525e-01    3.232909e-02
  6.074281e-01    2.830579e-02
  6.233037e-01    5.921005e-02
  6.391793e-01    4.538164e-02
  6.550548e-01    3.744644e-02
  6.709304e-01    3.753572e-02
  6.868060e-01    4.672489e-02
  7.026815e-01    4.134645e-02
  7.185571e-01    6.660741e-02
  7.344327e-01    6.067222e-02
  7.503083e-01    6.435715e-02
  7.661838e-01    6.873511e-02
  7.820594e-01    9.936051e-02
  7.979350e-01    1.517009e-01
  8.138106e-01    2.265109e-01
  8.296861e-01    2.860579e-01
  8.455617e-01    3.627459e-01
  8.614373e-01    4.708391e-01
  8.773129e-01    5.313924e-01
  8.931884e-01    5.369431e-01
  9.090640e-01    6.733895e-01
  9.249396e-01    7.423775e-01
  9.408152e-01    8.081999e-01
  9.566907e-01    8.944541e-01
  9.725663e-01    1.021258e+00
  9.884419e-01    1.049390e+00
  1.004317e+00    1.260047e+00
  1.020193e+00    1.327144e+00
  1.036069e+00    1.292374e+00
  1.051944e+00    1.421404e+00
  1.067820e+00    1.455129e+00
  1.083695e+00    1.677596e+00
  1.099571e+00    1.657629e+00
  1.115446e+00    1.493889e+00
  1.131322e+00    1.516257e+00
  1.147198e+00    1.551657e+00
  1.163073e+00    1.632244e+00
  1.178949e+00    1.689340e+00
  1.194824e+00    1.800210e+00
  1.210700e+00    2.027097e+00
  1.226575e+00    2.256300e+00
  1.242451e+00    2.377762e+00
  1.258327e+00    2.456030e+00
  1.274202e+00    2.552535e+00
  1.290078e+00    2.560394e+00
  1.305953e+00    2.574284e+00
  1.321829e+00    2.640851e+00
  1.337705e+00    2.764398e+00
  1.353580e+00    2.829695e+00
  1.369456e+00    2.812504e+00
  1.385331e+00    2.826267e+00
  1.401207e+00    2.794299e+00
  1.417082e+00    2.803496e+00
  1.432958e+00    2.955316e+00
  1.448834e+00    3.000864e+00
  1.464709e+00    3.004078e+00
  1.480585e+00    2.938814e+00
  1.496460e+00    3.067031e+00
  1.512336e+00    3.076974e+00
  1.528211e+00    3.305097e+00
  1.544087e+00    3.308676e+00
  1.559963e+00    3.226204e+00
  1.575838e+00    3.286075e+00
  1.591714e+00    3.146917e+00
  1.607589e+00    3.030235e+00
  1.623465e+00    3.010089e+00
  1.639340e+00    3.032253e+00
  1.655216e+00    3.128273e+00
  1.671092e+00    3.183987e+00
  1.686967e+00    3.085355e+00
  1.702843e+00    3.095544e+00
  1.718718e+00    3.160730e+00
  1.734594e+00    3.020856e+00
  1.750469e+00    3.080592e+00
  1.766345e+00    3.075071e+00
  1.782221e+00    3.103815e+00
  1.798096e+00    3.073503e+00
  1.813972e+00    3.067337e+00
  1.829847e+00    3.087304e+00
  1.845723e+00    3.124009e+00
  1.861598e+00    3.149020e+00
  1.877474e+00    3.067605e+00
  1.893350e+00    2.963075e+00
  1.909225e+00    3.003758e+00
  1.925101e+00    3.008832e+00
  1.940976e+00    3.048319e+00
  1.956852e+00    3.008269e+00
  1.972727e+00    2.966975e+00
  1.988603e+00    2.988905e+00
  2.004479e+00    3.100117e+00
  2.020354e+00    3.183617e+00
  2.036230e+00    3.184514e+00
  2.052105e+00    3.042283e+00
  2.067981e+00    3.033041e+00
  2.083856e+00    3.109245e+00
  2.099732e+00    3.095876e+00
  2.115608e+00    3.031035e+00
  2.131483e+00    3.098851e+00
  2.147359e+00    3.101084e+00
  2.163234e+00    3.103009e+00
  2.179110e+00    3.090668e+00
  2.194985e+00    3.066864e+00
  2.210861e+00    3.107440e+00
  2.226737e+00    3.101605e+00
  2.242612e+00    3.017839e+00
  2.258488e+00    3.138739e+00
  2.274363e+00    3.146904e+00
  2.290239e+00    3.100776e+00
  2.306115e+00    3.244138e+00
  2.321990e+00    3.140953e+00
  2.337866e+00    3.116509e+00
  2.353741e+00    3.197908e+00
  2.369617e+00    3.160127e+00
  2.385492e+00    3.138310e+00
  2.401368e+00    3.165039e+00
  2.417244e+00    3.273316e+00
  2.433119e+00    3.253469e+00
  2.448995e+00    3.176389e+00
  2.464870e+00    3.140598e+00
  2.480746e+00    3.286769e+00
  2.496621e+00    3.165898e+00
  2.512497e+00    3.218148e+00
  2.528373e+00    3.227396e+00
  2.544248e+00    3.133328e+00
  2.560124e+00    3.118069e+00
  2.575999e+00    3.236338e+00
  2.591875e+00    3.350148e+00
  2.607750e+00    3.203324e+00
  2.623626e+00    3.180948e+00
  2.639502e+00    3.195513e+00
  2.655377e+00    3.150608e+00
  2.671253e+00    3.195720e+00
  2.687128e+00    3.173558e+00
  2.703004e+00    3.205216e+00
  2.718879e+00    3.174103e+00
  2.734755e+00    3.205324e+00
  2.750631e+00    3.252570e+00
  2.766506e+00    3.244405e+00
  2.782382e+00    3.257186e+00
  2.798257e+00    3.222310e+00
  2.814133e+00    3.216932e+00
  2.830008e+00    3.209572e+00
  2.845884e+00    3.284235e+00
  2.861760e+00    3.231884e+00
  2.877635e+00    3.266605e+00
  2.893511e+00    3.284721e+00
  2.909386e+00    3.276126e+00
  2.925262e+00    3.265093e+00
  2.941137e+00    3.325257e+00
  2.957013e+00    3.344756e+00
  2.972889e+00    3.309050e+00
  2.988764e+00    3.267398e+00
  3.004640e+00    3.288626e+00
  3.020515e+00    3.312616e+00
  3.036391e+00    3.361646e+00
  3.052266e+00    3.310631e+00
  3.068142e+00    3.293156e+00
  3.084018e+00    3.214334e+00
  3.099893e+00    3.318215e+00
  3.115769e+00    3.408049e+00
  3.131644e+00    3.401776e+00
  3.147520e+00    3.303814e+00
  3.163395e+00    3.326309e+00
  3.179271e+00    3.349576e+00
  3.195147e+00    3.405823e+00
  3.211022e+00    3.397940e+00
  3.226898e+00    3.411309e+00
  3.242773e+00    3.464984e+00
  3.258649e+00    3.417560e+00
  3.274525e+00    3.454017e+00
  3.290400e+00    3.370673e+00
  3.306276e+00    3.359783e+00
  3.322151e+00    3.425724e+00
  3.338027e+00    3.283595e+00
  3.353902e+00    3.399551e+00
  3.369778e+00    3.374618e+00
  3.385654e+00    3.434611e+00
  3.401529e+00    3.414019e+00
  3.417405e+00    3.377932e+00
  3.433280e+00    3.471419e+00
  3.449156e+00    3.407984e+00
  3.465031e+00    3.443578e+00
  3.480907e+00    3.335831e+00
  3.496783e+00    3.399497e+00
  3.512658e+00    3.520152e+00
  3.528534e+00    3.410529e+00
  3.544409e+00    3.434201e+00
  3.560285e+00    3.536834e+00
  3.576160e+00    3.531367e+00
  3.592036e+00    3.428434e+00
  3.607912e+00    3.412784e+00
  3.623787e+00    3.485294e+00
  3.639663e+00    3.473107e+00
  3.655538e+00    3.506942e+00
  3.671414e+00    3.487193e+00
  3.687289e+00    3.476683e+00
  3.703165e+00    3.480637e+00
  3.719041e+00    3.509418e+00
  3.734916e+00    3.457524e+00
  3.750792e+00    3.523064e+00
  3.766667e+00    3.536077e+00
  3.782543e+00    3.489598e+00
  3.798418e+00    3.437009e+00
  3.814294e+00    3.528188e+00
  3.830170e+00    3.520690e+00
  3.846045e+00    3.493798e+00
  3.861921e+00    3.568788e+00
  3.877796e+00    3.669181e+00
  3.893672e+00    3.584284e+00
  3.909547e+00    3.471200e+00
  3.925423e+00    3.381320e+00
  3.941299e+00    3.456836e+00
  3.957174e+00    3.401645e+00
  3.973050e+00    3.494110e+00
  3.988925e+00    3.520183e+00
  4.004801e+00    3.518867e+00
  4.020676e+00    3.564705e+00
  4.036552e+00    3.444174e+00
  4.052428e+00    3.475261e+00
  4.068303e+00    3.483932e+00
  4.084179e+00    3.582286e+00
  4.100054e+00    3.580174e+00
  4.115930e+00    3.590900e+00
  4.131806e+00    3.511526e+00
  4.147681e+00    3.537380e+00
  4.163557e+00    3.553813e+00
  4.179432e+00    3.534185e+00
  4.195308e+00    3.603289e+00
  4.211183e+00    3.584151e+00
  4.227059e+00    3.602543e+00
  4.242935e+00    3.568341e+00
  4.258810e+00    3.523532e+00
  4.274686e+00    3.484540e+00
  4.290561e+00    3.476549e+00
  4.306437e+00    3.557758e+00
  4.322312e+00    3.510765e+00
  4.338188e+00    3.642467e+00
  4.354064e+00    3.598211e+00
  4.369939e+00    3.547166e+00
  4.385815e+00    3.587883e+00
  4.401690e+00    3.622082e+00
  4.417566e+00    3.591344e+00
  4.433441e+00    3.618239e+00
  4.449317e+00    3.647443e+00
  4.465193e+00    3.591906e+00
  4.481068e+00    3.666125e+00
  4.496944e+00    3.677396e+00
  4.512819e+00    3.600812e+00
  4.528695e+00    3.571987e+00
  4.544570e+00    3.566861e+00
  4.560446e+00    3.571924e+00
  4.576322e+00    3.558602e+00
  4.592197e+00    3.545087e+00
  4.608073e+00    3.541000e+00
  4.623948e+00    3.603403e+00
  4.639824e+00    3.572625e+00
  4.655699e+00    3.566430e+00
  4.671575e+00    3.606231e+00
  4.687451e+00    3.623330e+00
  4.703326e+00    3.551234e+00
  4.719202e+00    3.569819e+00
  4.735077e+00    3.619989e+00
  4.750953e+00    3.704485e+00
  4.766828e+00    3.767307e+00
  4.782704e+00    3.681292e+00
  4.798580e+00    3.558834e+00
  4.814455e+00    3.532683e+00
  4.830331e+00    3.661489e+00
  4.846206e+00    3.679943e+00
  4.862082e+00    3.659768e+00
  4.877957e+00    3.655287e+00
  4.893833e+00    3.579233e+00
  4.909709e+00    3.647071e+00
  4.925584e+00    3.684039e+00
  4.941460e+00    3.638747e+00
  4.957335e+00    3.545916e+00
  4.973211e+00    3.574955e+00
  4.989086e+00    3.683422e+00
  5.004962e+00    3.714695e+00
  5.020838e+00    3.672364e+00
  5.036713e+00    3.624105e+00
  5.052589e+00    3.585963e+00
  5.068464e+00    3.591286e+00
  5.084340e+00    3.682985e+00
  5.100216e+00    3.642174e+00
  5.116091e+00    3.695763e+00
  5.131967e+00    3.734413e+00
  5.147842e+00    3.642591e+00
  5.163718e+00    3.602126e+00
  5.179593e+00    3.638118e+00
  5.195469e+00    3.646004e+00
  5.211345e+00    3.647284e+00
  5.227220e+00    3.629560e+00
  5.243096e+00    3.671833e+00
  5.258971e+00    3.655516e+00
  5.274847e+00    3.684726e+00
  5.290722e+00    3.665683e+00
  5.306598e+00    3.609073e+00
  5.322474e+00    3.615746e+00
  5.338349e+00    3.671113e+00
  5.354225e+00    3.605569e+00
  5.370100e+00    3.615262e+00
  5.385976e+00    3.672892e+00
  5.401851e+00    3.648785e+00
  5.417727e+00    3.631659e+00
  5.433603e+00    3.606596e+00
  5.449478e+00    3.614369e+00
  5.465354e+00    3.559782e+00
  5.481229e+00    3.510683e+00
  5.497105e+00    3.570552e+00
  5.512980e+00    3.585801e+00
  5.528856e+00    3.523719e+00
  5.544732e+00    3.612864e+00
  5.560607e+00    3.623517e+00
  5.576483e+00    3.619007e+00
  5.592358e+00    3.551428e+00
  5.608234e+00    3.547620e+00
  5.624109e+00    3.635036e+00
  5.639985e+00    3.681662e+00
  5.655861e+00    3.588954e+00
  5.671736e+00    3.640446e+00
  5.687612e+00    3.684118e+00
  5.703487e+00    3.507645e+00
  5.719363e+00    3.483694e+00
  5.735238e+00    3.535411e+00
  5.751114e+00    3.636148e+00
  5.766990e+00    3.584708e+00
  5.782865e+00    3.518456e+00
  5.798741e+00    3.482971e+00
  5.814616e+00    3.530169e+00
  5.830492e+00    3.472547e+00
  5.846367e+00    3.617056e+00
  5.862243e+00    3.487413e+00
  5.878119e+00    3.381515e+00
  5.893994e+00    3.556390e+00
  5.909870e+00    3.536098e+00
  5.925745e+00    3.517265e+00
  5.941621e+00    3.579533e+00
  5.957497e+00    3.598971e+00
  5.973372e+00    3.563082e+00
  5.989248e+00    3.532640e+00
  6.005123e+00    3.496105e+00
  6.020999e+00    3.482969e+00
  6.036874e+00    3.565228e+00
  6.052750e+00    3.530221e+00
  6.068626e+00    3.500540e+00
  6.084501e+00    3.525597e+00
  6.100377e+00    3.686688e+00
  6.116252e+00    3.708509e+00
  6.132128e+00    3.644432e+00
  6.148003e+00    3.583917e+00
  6.163879e+00    3.678430e+00
  6.179755e+00    3.606138e+00
  6.195630e+00    3.632130e+00
  6.211506e+00    3.569809e+00
  6.227381e+00    3.568306e+00
  6.243257e+00    3.657430e+00
  6.259132e+00    3.538744e+00
  6.275008e+00    3.540215e+00
  6.290884e+00    3.568082e+00
  6.306759e+00    3.500807e+00
  6.322635e+00    3.563057e+00
  6.338510e+00    3.603369e+00
  6.354386e+00    3.542025e+00
  6.370261e+00    3.551119e+00
  6.386137e+00    3.528579e+00
  6.402013e+00    3.539432e+00
  6.417888e+00    3.604392e+00
  6.433764e+00    3.577682e+00
  6.449639e+00    3.586787e+00
  6.465515e+00    3.521578e+00
  6.481390e+00    3.566299e+00
  6.497266e+00    3.565942e+00
  6.513142e+00    3.627135e+00
  6.529017e+00    3.562690e+00
  6.544893e+00    3.571284e+00
  6.560768e+00    3.586801e+00
  6.576644e+00    3.540203e+00
  6.592519e+00    3.479398e+00
  6.608395e+00    3.424967e+00
  6.624271e+00    3.522395e+00
  6.640146e+00    3.570647e+00
  6.656022e+00    3.580290e+00
  6.671897e+00    3.607039e+00
  6.687773e+00    3.609555e+00
  6.703648e+00    3.560634e+00
  6.719524e+00    3.533385e+00
  6.735400e+00    3.571022e+00
  6.751275e+00    3.556106e+00
  6.767151e+00    3.567397e+00
  6.783026e+00    3.593324e+00
  6.798902e+00    3.581638e+00
  6.814777e+00    3.575629e+00
  6.830653e+00    3.581196e+00
  6.846529e+00    3.550385e+00
  6.862404e+00    3.540070e+00
  6.878280e+00    3.562382e+00
  6.894155e+00    3.622650e+00
  6.910031e+00    3.561058e+00
  6.925907e+00    3.492529e+00
  6.941782e+00    3.507286e+00
  6.957658e+00    3.502714e+00
  6.973533e+00    3.555670e+00
  6.989409e+00    3.582130e+00
  7.005284e+00    3.512597e+00
  7.021160e+00    3.542001e+00
  7.037036e+00    3.617916e+00
  7.052911e+00    3.557664e+00
  7.068787e+00    3.519486e+00
  7.084662e+00    3.515613e+00
  7.100538e+00    3.503301e+00
  7.116413e+00    3.542924e+00
  7.132289e+00    3.571711e+00
  7.148165e+00    3.494096e+00
  7.164040e+00    3.461420e+00
  7.179916e+00    3.504812e+00
  7.195791e+00    3.461309e+00
  7.211667e+00    3.528236e+00
  7.227542e+00    3.543230e+00
  7.243418e+00    3.501168e+00
  7.259294e+00    3.477229e+00
  7.275169e+00    3.431611e+00
  7.291045e+00    3.403538e+00
  7.306920e+00    3.483272e+00
  7.322796e+00    3.522637e+00
  7.338671e+00    3.528597e+00
  7.354547e+00    3.531930e+00
  7.370423e+00    3.470680e+00
  7.386298e+00    3.517367e+00
  7.402174e+00    3.490924e+00
  7.418049e+00    3.495388e+00
  7.433925e+00    3.519324e+00
  7.449800e+00    3.491341e+00
  7.465676e+00    3.505396e+00
  7.481552e+00    3.421620e+00
  7.497427e+00    3.488693e+00
  7.513303e+00    3.503348e+00
  7.529178e+00    3.468085e+00
  7.545054e+00    3.470683e+00
  7.560929e+00    3.467151e+00
  7.576805e+00    3.446425e+00
  7.592681e+00    3.446456e+00
  7.608556e+00    3.401743e+00
  7.624432e+00    3.463349e+00
  7.640307e+00    3.455007e+00
  7.656183e+00    3.379711e+00
  7.672058e+00    3.417537e+00
  7.687934e+00    3.401144e+00
  7.703810e+00    3.411819e+00
  7.719685e+00    3.458945e+00
  7.735561e+00    3.441837e+00
  7.751436e+00    3.392099e+00
  7.767312e+00    3.442471e+00
  7.783187e+00    3.434741e+00
  7.799063e+00    3.404730e+00
  7.814939e+00    3.383704e+00
  7.830814e+00    3.389728e+00
  7.846690e+00    3.469031e+00
  7.862565e+00    3.451034e+00
  7.878441e+00    3.407937e+00
  7.894317e+00    3.357904e+00
  7.910192e+00    3.421509e+00
  7.926068e+00    3.417048e+00
  7.941943e+00    3.377288e+00
  7.957819e+00    3.518243e+00
  7.973694e+00    3.384041e+00
  7.989570e+00    3.374248e+00
  8.005446e+00    3.401881e+00
  8.021321e+00    3.410655e+00
  8.037197e+00    3.431682e+00
  8.053072e+00    3.387297e+00
  8.068948e+00    3.317316e+00
  8.084823e+00    3.421577e+00
  8.100699e+00    3.496545e+00
  8.116575e+00    3.435150e+00
  8.132450e+00    3.378227e+00
  8.148326e+00    3.466898e+00
  8.164201e+00    3.493353e+00
  8.180077e+00    3.466284e+00
  8.195952e+00    3.473130e+00
  8.211828e+00    3.450454e+00
  8.227704e+00    3.432002e+00
  8.243579e+00    3.434271e+00
  8.259455e+00    3.371660e+00
  8.275330e+00    3.422455e+00
  8.291206e+00    3.361217e+00
  8.307081e+00    3.337535e+00
  8.322957e+00    3.405320e+00
  8.338833e+00    3.470834e+00
  8.354708e+00    3.376314e+00
  8.370584e+00    3.347764e+00
  8.386459e+00    3.384493e+00
  8.402335e+00    3.378309e+00
  8.418210e+00    3.428266e+00
  8.434086e+00    3.369804e+00
  8.449962e+00    3.352028e+00
  8.465837e+00    3.359246e+00
  8.481713e+00    3.379472e+00
  8.497588e+00    3.402599e+00
  8.513464e+00    3.431411e+00
  8.529339e+00    3.362979e+00
  8.545215e+00    3.352150e+00
  8.561091e+00    3.432468e+00
  8.576966e+00    3.335926e+00
  8.592842e+00    3.330518e+00
  8.608717e+00    3.344675e+00
  8.624593e+00    3.306632e+00
  8.640468e+00    3.319864e+00
  8.656344e+00    3.396882e+00
  8.672220e+00    3.361039e+00
  8.688095e+00    3.284541e+00
  8.703971e+00    3.305197e+00
  8.719846e+00    3.327178e+00
  8.735722e+00    3.373379e+00
  8.751598e+00    3.374215e+00
  8.767473e+00    3.214915e+00
  8.783349e+00    3.258285e+00
  8.799224e+00    3.302957e+00
  8.815100e+00    3.360109e+00
  8.830975e+00    3.342057e+00
  8.846851e+00    3.283014e+00
  8.862727e+00    3.307717e+00
  8.878602e+00    3.305098e+00
  8.894478e+00    3.276520e+00
  8.910353e+00    3.270788e+00
  8.926229e+00    3.305371e+00
  8.942104e+00    3.297574e+00
  8.957980e+00    3.308463e+00
  8.973856e+00    3.265196e+00
  8.989731e+00    3.295324e+00
  9.005607e+00    3.260948e+00
  9.021482e+00    3.269814e+00
  9.037358e+00    3.275177e+00
  9.053233e+00    3.297771e+00
  9.069109e+00    3.271867e+00
  9.084985e+00    3.255201e+00
  9.100860e+00    3.282299e+00
  9.116736e+00    3.259147e+00
  9.132611e+00    3.187577e+00
  9.148487e+00    3.178042e+00
  9.164362e+00    3.240395e+00
  9.180238e+00    3.199447e+00
  9.196114e+00    3.204897e+00
  9.211989e+00    3.330765e+00
  9.227865e+00    3.308479e+00
  9.243740e+00    3.208179e+00
  9.259616e+00    3.211005e+00
  9.275491e+00    3.234864e+00
  9.291367e+00    3.222897e+00
  9.307243e+00    3.209797e+00
  9.323118e+00    3.184387e+00
  9.338994e+00    3.193336e+00
  9.354869e+00    3.252221e+00
  9.370745e+00    3.228436e+00
  9.386620e+00    3.162442e+00
  9.402496e+00    3.248394e+00
  9.418372e+00    3.219064e+00
  9.434247e+00    3.204953e+00
  9.450123e+00    3.230940e+00
  9.465998e+00    3.166576e+00
  9.481874e+00    3.174211e+00
  9.497749e+00    3.211416e+00
  9.513625e+00    3.267198e+00
  9.529501e+00    3.223644e+00
  9.545376e+00    3.228587e+00
  9.561252e+00    3.198697e+00
  9.577127e+00    3.235504e+00
  9.593003e+00    3.221674e+00
  9.608878e+00    3.214659e+00
  9.624754e+00    3.205515e+00
  9.640630e+00    3.279056e+00
  9.656505e+00    3.215426e+00
  9.672381e+00    3.209455e+00
  9.688256e+00    3.207029e+00
  9.704132e+00    3.219824e+00
  9.720008e+00    3.241925e+00
  9.735883e+00    3.161559e+00
  9.751759e+00    3.146380e+00
  9.767634e+00    3.149235e+00
  9.783510e+00    3.158928e+00
  9.799385e+00    3.219859e+00
  9.815261e+00    3.135626e+00
  9.831137e+00    3.120878e+00
  9.847012e+00    3.140603e+00
  9.862888e+00    3.109342e+00
  9.878763e+00    3.110584e+00
  9.894639e+00    3.117181e+00
  9.910514e+00    3.166322e+00
  9.926390e+00    3.177725e+00
  9.942266e+00    3.127486e+00
  9.958141e+00    3.156777e+00
  9.974017e+00    3.141296e+00
  9.989892e+00    3.086571e+00
  1.000577e+01    3.101900e+00
  1.002164e+01    3.094841e+00
  1.003752e+01    3.058749e+00
  1.005339e+01    3.096573e+00
  1.006927e+01    3.059772e+00
  1.008515e+01    3.030941e+00
  1.010102e+01    3.065578e+00
  1.011690e+01    3.062585e+00
  1.013277e+01    3.084532e+00
  1.014865e+01    3.084271e+00
  1.016452e+01    3.127175e+00
  1.018040e+01    3.062848e+00
  1.019627e+01    3.082075e+00
  1.021215e+01    3.026088e+00
  1.022803e+01    3.050118e+00
  1.024390e+01    3.067827e+00
  1.025978e+01    2.996063e+00
  1.027565e+01    3.027591e+00
  1.029153e+01    3.091317e+00
  1.030740e+01    3.053456e+00
  1.032328e+01    3.097182e+00
  1.033915e+01    3.029630e+00
  1.035503e+01    3.040868e+00
  1.037091e+01    3.052347e+00
  1.038678e+01    3.021494e+00
  1.040266e+01    3.008879e+00
  1.041853e+01    3.022007e+00
  1.043441e+01    3.043581e+00
  1.045028e+01    3.045130e+00
  1.046616e+01    3.009618e+00
  1.048204e+01    2.991749e+00
  1.049791e+01    2.999604e+00
  1.051379e+01    2.993316e+00
  1.052966e+01    2.973769e+00
  1.054554e+01    3.029662e+00
  1.056141e+01    3.032154e+00
  1.057729e+01    2.996019e+00
  1.059316e+01    2.991586e+00
  1.060904e+01    2.971538e+00
  1.062492e+01    2.933165e+00
  1.064079e+01    2.982183e+00
  1.065667e+01    2.976190e+00
  1.067254e+01    2.948053e+00
  1.068842e+01    2.962365e+00
  1.070429e+01    3.014879e+00
  1.072017e+01    3.019665e+00
  1.073604e+01    2.932832e+00
  1.075192e+01    2.920616e+00
  1.076780e+01    2.903089e+00
  1.078367e+01    2.889765e+00
  1.079955e+01    2.898624e+00
  1.081542e+01    2.928860e+00
  1.083130e+01    2.948624e+00
  1.084717e+01    2.964449e+00
  1.086305e+01    2.948092e+00
  1.087892e+01    2.881460e+00
  1.089480e+01    2.947241e+00
  1.091068e+01    2.914060e+00
  1.092655e+01    2.887074e+00
  1.094243e+01    2.942548e+00
  1.095830e+01    2.924204e+00
  1.097418e+01    2.912859e+00
  1.099005e+01    2.880129e+00
  1.100593e+01    2.892611e+00
  1.102180e+01    2.905133e+00
  1.103768e+01    2.883869e+00
  1.105356e+01    2.887497e+00
  1.106943e+01    2.894814e+00
  1.108531e+01    2.840021e+00
  1.110118e+01    2.883558e+00
  1.111706e+01    2.876828e+00
  1.113293e+01    2.816728e+00
  1.114881e+01    2.805583e+00
  1.116468e+01    2.833875e+00
  1.118056e+01    2.843919e+00
  1.119644e+01    2.807548e+00
  1.121231e+01    2.899422e+00
  1.122819e+01    2.850500e+00
  1.124406e+01    2.837184e+00
  1.125994e+01    2.829546e+00
  1.127581e+01    2.837349e+00
  1.129169e+01    2.809702e+00
  1.130756e+01    2.819299e+00
  1.132344e+01    2.845402e+00
  1.133932e+01    2.869850e+00
  1.135519e+01    2.841560e+00
  1.137107e+01    2.857476e+00
  1.138694e+01    2.826426e+00
  1.140282e+01    2.842360e+00
  1.141869e+01    2.809661e+00
  1.143457e+01    2.793353e+00
  1.145045e+01    2.771208e+00
  1.146632e+01    2.819560e+00
  1.148220e+01    2.849755e+00
  1.149807e+01    2.793253e+00
  1.151395e+01    2.773599e+00
  1.152982e+01    2.761316e+00
  1.154570e+01    2.769653e+00
  1.156157e+01    2.772080e+00
  1.157745e+01    2.771056e+00
  1.159333e+01    2.760669e+00
  1.160920e+01    2.789351e+00
  1.162508e+01    2.800508e+00
  1.164095e+01    2.766634e+00
  1.165683e+01    2.784498e+00
  1.167270e+01    2.770488e+00
  1.168858e+01    2.695649e+00
  1.170445e+01    2.709775e+00
  1.172033e+01    2.720974e+00
  1.173621e+01    2.733455e+00
  1.175208e+01    2.744197e+00
  1.176796e+01    2.727659e+00
  1.178383e+01    2.691278e+00
  1.179971e+01    2.739159e+00
  1.181558e+01    2.749247e+00
  1.183146e+01    2.730221e+00
  1.184733e+01    2.748404e+00
  1.186321e+01    2.702916e+00
  1.187909e+01    2.663440e+00
  1.189496e+01    2.709831e+00
  1.191084e+01    2.745622e+00
  1.192671e+01    2.708532e+00
  1.194259e+01    2.714848e+00
  1.195846e+01    2.746405e+00
  1.197434e+01    2.710109e+00
  1.199021e+01    2.733036e+00
  1.200609e+01    2.704164e+00
  1.202197e+01    2.705764e+00
  1.203784e+01    2.674617e+00
  1.205372e+01    2.725063e+00
  1.206959e+01    2.719867e+00
  1.208547e+01    2.647761e+00
  1.210134e+01    2.704973e+00
  1.211722e+01    2.705707e+00
  1.213309e+01    2.659872e+00
  1.214897e+01    2.684888e+00
  1.216485e+01    2.685165e+00
  1.218072e+01    2.677672e+00
  1.219660e+01    2.684282e+00
  1.221247e+01    2.720924e+00
  1.222835e+01    2.734115e+00
  1.224422e+01    2.690217e+00
  1.226010e+01    2.678711e+00
  1.227597e+01    2.685570e+00
  1.229185e+01    2.655573e+00
  1.230773e+01    2.723088e+00
  1.232360e+01    2.699944e+00
  1.233948e+01    2.679987e+00
  1.235535e+01    2.670251e+00
  1.237123e+01    2.671273e+00
  1.238710e+01    2.734746e+00
  1.240298e+01    2.726703e+00
  1.241886e+01    2.680130e+00
  1.243473e+01    2.661728e+00
  1.245061e+01    2.644142e+00
  1.246648e+01    2.715171e+00
  1.248236e+01    2.695349e+00
  1.249823e+01    2.672394e+00
  1.251411e+01    2.674434e+00
  1.252998e+01    2.687402e+00
  1.254586e+01    2.716599e+00
  1.256174e+01    2.696121e+00
  1.257761e+01    2.680907e+00
  1.259349e+01    2.701530e+00
  1.260936e+01    2.725432e+00
  1.262524e+01    2.746510e+00
  1.264111e+01    2.761519e+00
  1.265699e+01    2.731032e+00
  1.267286e+01    2.761783e+00
  1.268874e+01    2.798455e+00
  1.270462e+01    2.791405e+00
  1.272049e+01    2.821172e+00
  1.273637e+01    2.852077e+00
  1.275224e+01    2.866422e+00
  1.276812e+01    2.875102e+00
  1.278399e+01    2.881074e+00
  1.279987e+01    2.981195e+00
  1.281574e+01    3.043640e+00
  1.283162e+01    3.065559e+00
  1.284750e+01    3.147766e+00
  1.286337e+01    3.264325e+00
  1.287925e+01    3.390250e+00
  1.289512e+01    3.497655e+00
  1.291100e+01    3.637839e+00
  1.292687e+01    3.836706e+00
  1.294275e+01    4.100440e+00
  1.295862e+01    4.348713e+00
  1.297450e+01    4.795753e+00
  1.299038e+01    5.277165e+00
  1.300625e+01    5.840799e+00
  1.302213e+01    6.646097e+00
  1.303800e+01    7.633524e+00
  1.305388e+01    8.839577e+00
  1.306975e+01    1.009835e+01
  1.308563e+01    1.135040e+01
  1.310150e+01    1.250295e+01
  1.311738e+01    1.362146e+01
  1.313326e+01    1.451240e+01
  1.314913e+01    1.552486e+01
  1.316501e+01    1.620622e+01
  1.318088e+01    1.612416e+01
  1.319676e+01    1.547735e+01
  1.321263e+01    1.417390e+01
  1.322851e+01    1.240122e+01
  1.324438e+01    1.072680e+01
  1.326026e+01    9.138925e+00
  1.327614e+01    7.796557e+00
  1.329201e+01    6.718587e+00
  1.330789e+01    6.003078e+00
  1.332376e+01    5.359686e+00
  1.333964e+01    4.802831e+00
  1.335551e+01    4.399936e+00
  1.337139e+01    4.095343e+00
  1.338727e+01    3.878386e+00
  1.340314e+01    3.677944e+00
  1.341902e+01    3.469559e+00
  1.343489e+01    3.328784e+00
  1.345077e+01    3.246817e+00
  1.346664e+01    3.161436e+00
  1.348252e+01    3.022740e+00
  1.349839e+01    3.001812e+00
  1.351427e+01    2.920267e+00
  1.353015e+01    2.795401e+00
  1.354602e+01    2.793355e+00
  1.356190e+01    2.752365e+00
  1.357777e+01    2.729074e+00
  1.359365e+01    2.670701e+00
  1.360952e+01    2.626354e+00
  1.362540e+01    2.652374e+00
  1.364127e+01    2.619062e+00
  1.365715e+01    2.574991e+00
  1.367303e+01    2.580284e+00
  1.368890e+01    2.567485e+00
  1.370478e+01    2.536653e+00
  1.372065e+01    2.535111e+00
  1.373653e+01    2.505569e+00
  1.375240e+01    2.471592e+00
  1.376828e+01    2.449901e+00
  1.378415e+01    2.504895e+00
  1.380003e+01    2.461488e+00
  1.381591e+01    2.452269e+00
  1.383178e+01    2.459532e+00
  1.384766e+01    2.433464e+00
  1.386353e+01    2.454184e+00
  1.387941e+01    2.417042e+00
  1.389528e+01    2.419299e+00
  1.391116e+01    2.419919e+00
  1.392703e+01    2.430762e+00
  1.394291e+01    2.397007e+00
  1.395879e+01    2.371103e+00
  1.397466e+01    2.396888e+00
  1.399054e+01    2.361688e+00
  1.400641e+01    2.356966e+00
  1.402229e+01    2.378409e+00
  1.403816e+01    2.368260e+00
  1.405404e+01    2.333969e+00
  1.406991e+01    2.336606e+00
  1.408579e+01    2.324722e+00
  1.410167e+01    2.323623e+00
  1.411754e+01    2.316384e+00
  1.413342e+01    2.325144e+00
  1.414929e+01    2.291342e+00
  1.416517e+01    2.304030e+00
  1.418104e+01    2.316333e+00
  1.419692e+01    2.299644e+00
  1.421279e+01    2.306457e+00
  1.422867e+01    2.281659e+00
  1.424455e+01    2.253397e+00
  1.426042e+01    2.293726e+00
  1.427630e+01    2.267242e+00
  1.429217e+01    2.270918e+00
  1.430805e+01    2.283445e+00
  1.432392e+01    2.261246e+00
  1.433980e+01    2.224248e+00
  1.435568e+01    2.235043e+00
  1.437155e+01    2.287248e+00
  1.438743e+01    2.253317e+00
  1.440330e+01    2.193155e+00
  1.441918e+01    2.176694e+00
  1.443505e+01    2.242837e+00
  1.445093e+01    2.275199e+00
  1.446680e+01    2.235951e+00
  1.448268e+01    2.211787e+00
  1.449856e+01    2.237327e+00
  1.451443e+01    2.215798e+00
  1.453031e+01    2.191857e+00
  1.454618e+01    2.221765e+00
  1.456206e+01    2.188688e+00
  1.457793e+01    2.223063e+00
  1.459381e+01    2.211557e+00
  1.460968e+01    2.196923e+00
  1.462556e+01    2.198148e+00
  1.464144e+01    2.180704e+00
  1.465731e+01    2.165344e+00
  1.467319e+01    2.247980e+00
  1.468906e+01    2.194981e+00
  1.470494e+01    2.185972e+00
  1.472081e+01    2.213104e+00
  1.473669e+01    2.199019e+00
  1.475256e+01    2.156561e+00
  1.476844e+01    2.181063e+00
  1.478432e+01    2.196516e+00
  1.480019e+01    2.240257e+00
  1.481607e+01    2.199954e+00
  1.483194e+01    2.205722e+00
  1.484782e+01    2.201932e+00
  1.486369e+01    2.210415e+00
  1.487957e+01    2.178198e+00
  1.489544e+01    2.238422e+00
  1.491132e+01    2.244763e+00
  1.492720e+01    2.246493e+00
  1.494307e+01    2.274203e+00
  1.495895e+01    2.317692e+00
  1.497482e+01    2.361111e+00
  1.499070e+01    2.353135e+00
  1.500657e+01    2.370579e+00
  1.502245e+01    2.517741e+00
  1.503832e+01    2.563684e+00
  1.505420e+01    2.698323e+00
  1.507008e+01    2.873297e+00
  1.508595e+01    2.962462e+00
  1.510183e+01    3.146652e+00
  1.511770e+01    3.419048e+00
  1.513358e+01    3.801787e+00
  1.514945e+01    4.083724e+00
  1.516533e+01    4.499573e+00
  1.518120e+01    4.817812e+00
  1.519708e+01    5.143157e+00
  1.521296e+01    5.382572e+00
  1.522883e+01    5.546895e+00
  1.524471e+01    5.684181e+00
  1.526058e+01    5.735482e+00
  1.527646e+01    5.674747e+00
  1.529233e+01    5.382099e+00
  1.530821e+01    5.090267e+00
  1.532409e+01    4.679524e+00
  1.533996e+01    4.160118e+00
  1.535584e+01    3.738819e+00
  1.537171e+01    3.415967e+00
  1.538759e+01    3.144511e+00
  1.540346e+01    2.936277e+00
  1.541934e+01    2.782765e+00
  1.543521e+01    2.652920e+00
  1.545109e+01    2.524253e+00
  1.546697e+01    2.413138e+00
  1.548284e+01    2.347897e+00
  1.549872e+01    2.242307e+00
  1.551459e+01    2.217064e+00
  1.553047e+01    2.224136e+00
  1.554634e+01    2.169681e+00
  1.556222e+01    2.164012e+00
  1.557809e+01    2.129407e+00
  1.559397e+01    2.062258e+00
  1.560985e+01    2.065533e+00
  1.562572e+01    2.048489e+00
  1.564160e+01    2.036088e+00
  1.565747e+01    2.014022e+00
  1.567335e+01    2.007236e+00
  1.568922e+01    2.001934e+00
  1.570510e+01    2.010409e+00
  1.572097e+01    2.001532e+00
  1.573685e+01    1.983195e+00
  1.575273e+01    1.952095e+00
  1.576860e+01    1.941386e+00
  1.578448e+01    1.943716e+00
  1.580035e+01    1.932023e+00
  1.581623e+01    1.973114e+00
  1.583210e+01    1.984114e+00
  1.584798e+01    1.938293e+00
  1.586385e+01    1.898717e+00
  1.587973e+01    1.932310e+00
  1.589561e+01    1.923498e+00
  1.591148e+01    1.903093e+00
  1.592736e+01    1.912407e+00
  1.594323e+01    1.915827e+00
  1.595911e+01    1.886064e+00
  1.597498e+01    1.864908e+00
  1.599086e+01    1.858301e+00
  1.600673e+01    1.866288e+00
  1.602261e+01    1.856044e+00
  1.603849e+01    1.861758e+00
  1.605436e+01    1.846296e+00
  1.607024e+01    1.837571e+00
  1.608611e+01    1.825042e+00
  1.610199e+01    1.826140e+00
  1.611786e+01    1.876332e+00
  1.613374e+01    1.834143e+00
  1.614961e+01    1.797173e+00
  1.616549e+01    1.801632e+00
  1.618137e+01    1.820471e+00
  1.619724e+01    1.819715e+00
  1.621312e+01    1.812778e+00
  1.622899e+01    1.830863e+00
  1.624487e+01    1.818858e+00
  1.626074e+01    1.819250e+00
  1.627662e+01    1.800697e+00
  1.629250e+01    1.814587e+00
  1.630837e+01    1.809021e+00
  1.632425e+01    1.772868e+00
  1.634012e+01    1.790126e+00
  1.635600e+01    1.787866e+00
  1.637187e+01    1.775393e+00
  1.638775e+01    1.784940e+00
  1.640362e+01    1.786526e+00
  1.641950e+01    1.770380e+00
  1.643538e+01    1.769551e+00
  1.645125e+01    1.728882e+00
  1.646713e+01    1.723262e+00
  1.648300e+01    1.759895e+00
  1.649888e+01    1.780170e+00
  1.651475e+01    1.769681e+00
  1.653063e+01    1.771452e+00
  1.654650e+01    1.741406e+00
  1.656238e+01    1.777694e+00
  1.657826e+01    1.775444e+00
  1.659413e+01    1.737619e+00
  1.661001e+01    1.714319e+00
  1.662588e+01    1.733473e+00
  1.664176e+01    1.744564e+00
  1.665763e+01    1.730924e+00
  1.667351e+01    1.728454e+00
  1.668938e+01    1.714642e+00
  1.670526e+01    1.728405e+00
  1.672114e+01    1.760636e+00
  1.673701e+01    1.751451e+00
  1.675289e+01    1.671257e+00
  1.676876e+01    1.707325e+00
  1.678464e+01    1.740093e+00
  1.680051e+01    1.737538e+00
  1.681639e+01    1.670079e+00
  1.683226e+01    1.659995e+00
  1.684814e+01    1.692728e+00
  1.686402e+01    1.646736e+00
  1.687989e+01    1.651368e+00
  1.689577e+01    1.642100e+00
  1.691164e+01    1.648481e+00
  1.692752e+01    1.686097e+00
  1.694339e+01    1.701307e+00
  1.695927e+01    1.680351e+00
  1.697514e+01    1.650070e+00
  1.699102e+01    1.636382e+00
  1.700690e+01    1.645974e+00
  1.702277e+01    1.674260e+00
  1.703865e+01    1.656578e+00
  1.705452e+01    1.657605e+00
  1.707040e+01    1.657752e+00
  1.708627e+01    1.636632e+00
  1.710215e+01    1.640499e+00
  1.711802e+01    1.654079e+00
  1.713390e+01    1.675779e+00
  1.714978e+01    1.628329e+00
  1.716565e+01    1.620493e+00
  1.718153e+01    1.653241e+00
  1.719740e+01    1.612396e+00
  1.721328e+01    1.580505e+00
  1.722915e+01    1.599528e+00
  1.724503e+01    1.577111e+00
  1.726091e+01    1.588423e+00
  1.727678e+01    1.622345e+00
  1.729266e+01    1.624821e+00
  1.730853e+01    1.607727e+00
  1.732441e+01    1.613083e+00
  1.734028e+01    1.611612e+00
  1.735616e+01    1.615036e+00
  1.737203e+01    1.608543e+00
  1.738791e+01    1.585894e+00
  1.740379e+01    1.587982e+00
  1.741966e+01    1.583765e+00
  1.743554e+01    1.595596e+00
  1.745141e+01    1.599453e+00
  1.746729e+01    1.608856e+00
  1.748316e+01    1.623494e+00
  1.749904e+01    1.580744e+00
  1.751491e+01    1.544842e+00
  1.753079e+01    1.576216e+00
  1.754667e+01    1.597788e+00
  1.756254e+01    1.541419e+00
  1.757842e+01    1.555458e+00
  1.759429e+01    1.565060e+00
  1.761017e+01    1.560115e+00
  1.762604e+01    1.561890e+00
  1.764192e+01    1.533443e+00
  1.765779e+01    1.584689e+00
  1.767367e+01    1.560305e+00
  1.768955e+01    1.564117e+00
  1.770542e+01    1.535309e+00
  1.772130e+01    1.556513e+00
  1.773717e+01    1.574009e+00
  1.775305e+01    1.558243e+00
  1.776892e+01    1.517853e+00
  1.778480e+01    1.534532e+00
  1.780067e+01    1.536723e+00
  1.781655e+01    1.544313e+00
  1.783243e+01    1.524960e+00
  1.784830e+01    1.535707e+00
  1.786418e+01    1.558138e+00
  1.788005e+01    1.543657e+00
  1.789593e+01    1.526520e+00
  1.791180e+01    1.513520e+00
  1.792768e+01    1.498220e+00
  1.794355e+01    1.505728e+00
  1.795943e+01    1.528952e+00
  1.797531e+01    1.502553e+00
  1.799118e+01    1.523416e+00
  1.800706e+01    1.517942e+00
  1.802293e+01    1.498525e+00
  1.803881e+01    1.462349e+00
  1.805468e+01    1.500561e+00
  1.807056e+01    1.533837e+00
  1.808643e+01    1.481622e+00
  1.810231e+01    1.487799e+00
  1.811819e+01    1.497843e+00
  1.813406e+01    1.480375e+00
  1.814994e+01    1.469674e+00
  1.816581e+01    1.493270e+00
  1.818169e+01    1.467801e+00
  1.819756e+01    1.441783e+00
  1.821344e+01    1.458894e+00
  1.822932e+01    1.464011e+00
  1.824519e+01    1.481134e+00
  1.826107e+01    1.489976e+00
  1.827694e+01    1.467410e+00
  1.829282e+01    1.494142e+00
  1.830869e+01    1.487423e+00
  1.832457e+01    1.485118e+00
  1.834044e+01    1.473267e+00
  1.835632e+01    1.462313e+00
  1.837220e+01    1.452031e+00
  1.838807e+01    1.451733e+00
  1.840395e+01    1.436548e+00
  1.841982e+01    1.432144e+00
  1.843570e+01    1.452340e+00
  1.845157e+01    1.459180e+00
  1.846745e+01    1.461284e+00
  1.848332e+01    1.435412e+00
  1.849920e+01    1.440204e+00
  1.851508e+01    1.447316e+00
  1.853095e+01    1.445795e+00
  1.854683e+01    1.451096e+00
  1.856270e+01    1.446900e+00
  1.857858e+01    1.442700e+00
  1.859445e+01    1.448261e+00
  1.861033e+01    1.457527e+00
  1.862620e+01    1.435657e+00
  1.864208e+01    1.435695e+00
  1.865796e+01    1.418636e+00
  1.867383e+01    1.430825e+00
  1.868971e+01    1.452124e+00
  1.870558e+01    1.443053e+00
  1.872146e+01    1.413042e+00
  1.873733e+01    1.405597e+00
  1.875321e+01    1.424190e+00
  1.876908e+01    1.421945e+00
  1.878496e+01    1.382201e+00
  1.880084e+01    1.418248e+00
  1.881671e+01    1.417129e+00
  1.883259e+01    1.380927e+00
  1.884846e+01    1.378361e+00
  1.886434e+01    1.371611e+00
  1.888021e+01    1.395006e+00
  1.889609e+01    1.392067e+00
  1.891196e+01    1.385037e+00
  1.892784e+01    1.391981e+00
  1.894372e+01    1.378926e+00
  1.895959e+01    1.369369e+00
  1.897547e+01    1.417422e+00
  1.899134e+01    1.399010e+00
  1.900722e+01    1.373296e+00
  1.902309e+01    1.375313e+00
  1.903897e+01    1.358756e+00
  1.905484e+01    1.363199e+00
  1.907072e+01    1.338933e+00
  1.908660e+01    1.343091e+00
  1.910247e+01    1.379729e+00
  1.911835e+01    1.367141e+00
  1.913422e+01    1.363794e+00
  1.915010e+01    1.377576e+00
  1.916597e+01    1.379989e+00
  1.918185e+01    1.341117e+00
  1.919773e+01    1.335755e+00
  1.921360e+01    1.357818e+00
  1.922948e+01    1.343894e+00
  1.924535e+01    1.331092e+00
  1.926123e+01    1.357771e+00
  1.927710e+01    1.355564e+00
  1.929298e+01    1.341423e+00
  1.930885e+01    1.352579e+00
  1.932473e+01    1.365633e+00
  1.934061e+01    1.371967e+00
  1.935648e+01    1.349374e+00
  1.937236e+01    1.316296e+00
  1.938823e+01    1.338876e+00
  1.940411e+01    1.342621e+00
  1.941998e+01    1.355918e+00
  1.943586e+01    1.363209e+00
  1.945173e+01    1.341643e+00
  1.946761e+01    1.311606e+00
  1.948349e+01    1.329790e+00
  1.949936e+01    1.349627e+00
  1.951524e+01    1.330230e+00
  1.953111e+01    1.295456e+00
  1.954699e+01    1.312015e+00
  1.956286e+01    1.300191e+00
  1.957874e+01    1.350818e+00
  1.959461e+01    1.320970e+00
  1.961049e+01    1.278433e+00
  1.962637e+01    1.289753e+00
  1.964224e+01    1.326732e+00
  1.965812e+01    1.315604e+00
  1.967399e+01    1.317363e+00
  1.968987e+01    1.318178e+00
  1.970574e+01    1.311038e+00
  1.972162e+01    1.300545e+00
  1.973749e+01    1.319066e+00
  1.975337e+01    1.330240e+00
  1.976925e+01    1.308476e+00
  1.978512e+01    1.291286e+00
  1.980100e+01    1.300775e+00
  1.981687e+01    1.311612e+00
  1.983275e+01    1.303567e+00
  1.984862e+01    1.281314e+00
  1.986450e+01    1.302570e+00
  1.988037e+01    1.296745e+00
  1.989625e+01    1.274657e+00
  1.991213e+01    1.298497e+00
  1.992800e+01    1.305149e+00
  1.994388e+01    1.304988e+00
  1.995975e+01    1.295143e+00
  1.997563e+01    1.291371e+00
  1.999150e+01    1.261202e+00
  2.000738e+01    1.277969e+00
  2.002325e+01    1.260658e+00
  2.003913e+01    1.258637e+00
  2.005501e+01    1.259485e+00
  2.007088e+01    1.255320e+00
  2.008676e+01    1.257598e+00
  2.010263e+01    1.272802e+00
  2.011851e+01    1.260446e+00
  2.013438e+01    1.244085e+00
  2.015026e+01    1.267839e+00
  2.016614e+01    1.315630e+00
  2.018201e+01    1.296045e+00
  2.019789e+01    1.250558e+00
  2.021376e+01    1.247144e+00
  2.022964e+01    1.277701e+00
  2.024551e+01    1.281789e+00
  2.026139e+01    1.270606e+00
  2.027726e+01    1.254719e+00
  2.029314e+01    1.238201e+00
  2.030902e+01    1.220913e+00
  2.032489e+01    1.227799e+00
  2.034077e+01    1.239735e+00
  2.035664e+01    1.248141e+00
  2.037252e+01    1.238611e+00
  2.038839e+01    1.232046e+00
  2.040427e+01    1.207296e+00
  2.042014e+01    1.204398e+00
  2.043602e+01    1.222148e+00
  2.045190e+01    1.230283e+00
  2.046777e+01    1.233150e+00
  2.048365e+01    1.246874e+00
  2.049952e+01    1.254876e+00
  2.051540e+01    1.229436e+00
  2.053127e+01    1.236469e+00
  2.054715e+01    1.249001e+00
  2.056302e+01    1.247623e+00
  2.057890e+01    1.248906e+00
  2.059478e+01    1.228417e+00
  2.061065e+01    1.234363e+00
  2.062653e+01    1.250854e+00
  2.064240e+01    1.214738e+00
  2.065828e+01    1.220083e+00
  2.067415e+01    1.204722e+00
  2.069003e+01    1.252503e+00
  2.070590e+01    1.278048e+00
  2.072178e+01    1.240417e+00
  2.073766e+01    1.226483e+00
  2.075353e+01    1.233684e+00
  2.076941e+01    1.204609e+00
  2.078528e+01    1.226440e+00
  2.080116e+01    1.226695e+00
  2.081703e+01    1.204772e+00
  2.083291e+01    1.220828e+00
  2.084878e+01    1.221952e+00
  2.086466e+01    1.223635e+00
  2.088054e+01    1.237601e+00
  2.089641e+01    1.233020e+00
  2.091229e+01    1.228887e+00
  2.092816e+01    1.211216e+00
  2.094404e+01    1.227492e+00
  2.095991e+01    1.227821e+00
  2.097579e+01    1.225333e+00
  2.099166e+01    1.219123e+00
  2.100754e+01    1.215777e+00
  2.102342e+01    1.218072e+00
  2.103929e+01    1.223430e+00
  2.105517e+01    1.245870e+00
  2.107104e+01    1.214934e+00
  2.108692e+01    1.204604e+00
  2.110279e+01    1.210955e+00
  2.111867e+01    1.223449e+00
  2.113455e+01    1.237229e+00
  2.115042e+01    1.236082e+00
  2.116630e+01    1.233117e+00
  2.118217e+01    1.249528e+00
  2.119805e+01    1.224976e+00
  2.121392e+01    1.240004e+00
  2.122980e+01    1.248878e+00
  2.124567e+01    1.235232e+00
  2.126155e+01    1.241717e+00
  2.127743e+01    1.249514e+00
  2.129330e+01    1.269739e+00
  2.130918e+01    1.269445e+00
  2.132505e+01    1.239950e+00
  2.134093e+01    1.271486e+00
  2.135680e+01    1.291461e+00
  2.137268e+01    1.265990e+00
  2.138855e+01    1.276510e+00
  2.140443e+01    1.296903e+00
  2.142031e+01    1.318385e+00
  2.143618e+01    1.343004e+00
  2.145206e+01    1.357184e+00
  2.146793e+01    1.372647e+00
  2.148381e+01    1.384111e+00
  2.149968e+01    1.407676e+00
  2.151556e+01    1.407153e+00
  2.153143e+01    1.465644e+00
  2.154731e+01    1.523054e+00
  2.156319e+01    1.584492e+00
  2.157906e+01    1.650873e+00
  2.159494e+01    1.688040e+00
  2.161081e+01    1.763311e+00
  2.162669e+01    1.830832e+00
  2.164256e+01    1.920275e+00
  2.165844e+01    2.079300e+00
  2.167431e+01    2.261255e+00
  2.169019e+01    2.478518e+00
  2.170607e+01    2.748926e+00
  2.172194e+01    3.078992e+00
  2.173782e+01    3.519365e+00
  2.175369e+01    3.980178e+00
  2.176957e+01    4.500965e+00
  2.178544e+01    5.131336e+00
  2.180132e+01    5.817656e+00
  2.181719e+01    6.494709e+00
  2.183307e+01    7.144544e+00
  2.184895e+01    7.743757e+00
  2.186482e+01    8.312681e+00
  2.188070e+01    8.735880e+00
  2.189657e+01    8.889533e+00
  2.191245e+01    8.616192e+00
  2.192832e+01    8.200347e+00
  2.194420e+01    7.529065e+00
  2.196007e+01    6.625647e+00
  2.197595e+01    5.689195e+00
  2.199183e+01    4.847881e+00
  2.200770e+01    4.141020e+00
  2.202358e+01    3.623759e+00
  2.203945e+01    3.205978e+00
  2.205533e+01    2.846960e+00
  2.207120e+01    2.572496e+00
  2.208708e+01    2.322504e+00
  2.210296e+01    2.142919e+00
  2.211883e+01    1.994001e+00
  2.213471e+01    1.875521e+00
  2.215058e+01    1.747017e+00
  2.216646e+01    1.637015e+00
  2.218233e+01    1.581550e+00
  2.219821e+01    1.533209e+00
  2.221408e+01    1.505277e+00
  2.222996e+01    1.491036e+00
  2.224584e+01    1.409406e+00
  2.226171e+01    1.356607e+00
  2.227759e+01    1.345976e+00
  2.229346e+01    1.301182e+00
  2.230934e+01    1.290599e+00
  2.232521e+01    1.280792e+00
  2.234109e+01    1.249408e+00
  2.235696e+01    1.232170e+00
  2.237284e+01    1.206305e+00
  2.238872e+01    1.168257e+00
  2.240459e+01    1.194847e+00
  2.242047e+01    1.201643e+00
  2.243634e+01    1.180606e+00
  2.245222e+01    1.144551e+00
  2.246809e+01    1.134054e+00
  2.248397e+01    1.143486e+00
  2.249984e+01    1.130537e+00
  2.251572e+01    1.132017e+00
  2.253160e+01    1.117969e+00
  2.254747e+01    1.109296e+00
  2.256335e+01    1.119287e+00
  2.257922e+01    1.131657e+00
  2.259510e+01    1.128782e+00
  2.261097e+01    1.095299e+00
  2.262685e+01    1.077668e+00
  2.264272e+01    1.110390e+00
  2.265860e+01    1.094087e+00
  2.267448e+01    1.073943e+00
  2.269035e+01    1.067487e+00
  2.270623e+01    1.073808e+00
  2.272210e+01    1.072112e+00
  2.273798e+01    1.059694e+00
  2.275385e+01    1.058208e+00
  2.276973e+01    1.053277e+00
  2.278560e+01    1.030573e+00
  2.280148e+01    1.040063e+00
  2.281736e+01    1.067288e+00
  2.283323e+01    1.054120e+00
  2.284911e+01    1.049516e+00
  2.286498e+01    1.060243e+00
  2.288086e+01    1.076851e+00
  2.289673e+01    1.055890e+00
  2.291261e+01    1.040280e+00
  2.292848e+01    1.029862e+00
  2.294436e+01    1.030506e+00
  2.296024e+01    1.024132e+00
  2.297611e+01    1.008690e+00
  2.299199e+01    1.009462e+00
  2.300786e+01    1.038774e+00
  2.302374e+01    1.018009e+00
  2.303961e+01    1.011651e+00
  2.305549e+01    1.005535e+00
  2.307137e+01    1.003779e+00
  2.308724e+01    1.023109e+00
  2.310312e+01    1.000818e+00
  2.311899e+01    9.990377e-01
  2.313487e+01    1.011975e+00
  2.315074e+01    1.011987e+00
  2.316662e+01    1.002346e+00
  2.318249e+01    1.020950e+00
  2.319837e+01    1.014273e+00
  2.321425e+01    9.793252e-01
  2.323012e+01    9.819475e-01
  2.324600e+01    9.819431e-01
  2.326187e+01    9.970768e-01
  2.327775e+01    9.965581e-01
  2.329362e+01    9.864918e-01
  2.330950e+01    9.904894e-01
  2.332537e+01    9.897221e-01
  2.334125e+01    9.861499e-01
  2.335713e+01    9.874495e-01
  2.337300e+01    9.921737e-01
  2.338888e+01    9.866048e-01
  2.340475e+01    9.850246e-01
  2.342063e+01    9.773859e-01
  2.343650e+01    9.672736e-01
  2.345238e+01    9.671639e-01
  2.346825e+01    9.598293e-01
  2.348413e+01    9.715539e-01
  2.350001e+01    9.642992e-01
  2.351588e+01    9.686469e-01
  2.353176e+01    9.563470e-01
  2.354763e+01    9.627715e-01
  2.356351e+01    9.588398e-01
  2.357938e+01    9.466606e-01
  2.359526e+01    9.558324e-01
  2.361113e+01    9.439359e-01
  2.362701e+01    9.328597e-01
  2.364289e+01    9.563040e-01
  2.365876e+01    9.526643e-01
  2.367464e+01    9.365441e-01
  2.369051e+01    9.492245e-01
  2.370639e+01    9.404114e-01
  2.372226e+01    9.256203e-01
  2.373814e+01    9.406535e-01
  2.375401e+01    9.222414e-01
  2.376989e+01    9.217416e-01
  2.378577e+01    9.092041e-01
  2.380164e+01    9.219778e-01
  2.381752e+01    9.196492e-01
  2.383339e+01    9.169311e-01
  2.384927e+01    9.221061e-01
  2.386514e+01    8.982667e-01
  2.388102e+01    9.244643e-01
  2.389689e+01    9.179368e-01
  2.391277e+01    9.031319e-01
  2.392865e+01    9.044097e-01
  2.394452e+01    9.131823e-01
  2.396040e+01    9.204085e-01
  2.397627e+01    8.858685e-01
  2.399215e+01    8.808320e-01
  2.400802e+01    8.879406e-01
  2.402390e+01    9.043434e-01
  2.403978e+01    8.851992e-01
  2.405565e+01    8.939566e-01
  2.407153e+01    9.071889e-01
  2.408740e+01    8.923435e-01
  2.410328e+01    8.941768e-01
  2.411915e+01    8.845730e-01
  2.413503e+01    8.646851e-01
  2.415090e+01    8.829091e-01
  2.416678e+01    8.823716e-01
  2.418266e+01    8.943222e-01
  2.419853e+01    8.888504e-01
  2.421441e+01    8.833842e-01
  2.423028e+01    8.867986e-01
  2.424616e+01    8.735765e-01
  2.426203e+01    8.900868e-01
  2.427791e+01    8.776224e-01
  2.429378e+01    8.723807e-01
  2.430966e+01    8.991457e-01
  2.432554e+01    8.872913e-01
  2.434141e+01    8.835053e-01
  2.435729e+01    8.832743e-01
  2.437316e+01    8.864264e-01
  2.438904e+01    9.057203e-01
  2.440491e+01    8.847560e-01
  2.442079e+01    8.679405e-01
  2.443666e+01    8.846020e-01
  2.445254e+01    9.109859e-01
  2.446842e+01    8.758216e-01
  2.448429e+01    8.654896e-01
  2.450017e+01    8.613052e-01
  2.451604e+01    8.597447e-01
  2.453192e+01    8.717207e-01
  2.454779e+01    8.850718e-01
  2.456367e+01    9.004610e-01
  2.457954e+01    8.997948e-01
  2.459542e+01    8.930316e-01
  2.461130e+01    8.975030e-01
  2.462717e+01    8.845037e-01
  2.464305e+01    9.021567e-01
  2.465892e+01    9.014590e-01
  2.467480e+01    9.077503e-01
  2.469067e+01    8.870944e-01
  2.470655e+01    8.703886e-01
  2.472242e+01    9.073410e-01
  2.473830e+01    9.108273e-01
  2.475418e+01    8.967093e-01
  2.477005e+01    8.813951e-01
  2.478593e+01    8.828783e-01
  2.480180e+01    8.678355e-01
  2.481768e+01    8.871403e-01
  2.483355e+01    8.939721e-01
  2.484943e+01    9.080861e-01
  2.486530e+01    9.127963e-01
  2.488118e+01    8.920001e-01
  2.489706e+01    8.791049e-01
  2.491293e+01    8.722709e-01
  2.492881e+01    8.783157e-01
  2.494468e+01    8.757425e-01
  2.496056e+01    8.836479e-01
  2.497643e+01    8.955423e-01
  2.499231e+01    8.954562e-01
  2.500819e+01    8.880649e-01
  2.502406e+01    8.819765e-01
  2.503994e+01    8.956622e-01
  2.505581e+01    8.925740e-01
  2.507169e+01    8.914448e-01
  2.508756e+01    9.019895e-01
  2.510344e+01    8.913887e-01
  2.511931e+01    8.955177e-01
  2.513519e+01    9.115853e-01
  2.515107e+01    9.282480e-01
  2.516694e+01    9.076074e-01
  2.518282e+01    8.938808e-01
  2.519869e+01    9.242630e-01
  2.521457e+01    9.281728e-01
  2.523044e+01    9.282550e-01
  2.524632e+01    9.206894e-01
  2.526219e+01    9.412571e-01
  2.527807e+01    9.431212e-01
  2.529395e+01    9.383034e-01
  2.530982e+01    9.288258e-01
  2.532570e+01    9.454477e-01
  2.534157e+01    9.545932e-01
  2.535745e+01    9.904111e-01
  2.537332e+01    9.875260e-01
  2.538920e+01    9.596894e-01
  2.540507e+01    9.783717e-01
  2.542095e+01    9.806581e-01
  2.543683e+01    1.001914e+00
  2.545270e+01    1.016187e+00
  2.546858e+01    1.030167e+00
  2.548445e+01    1.037918e+00
  2.550033e+01    1.057701e+00
  2.551620e+01    1.060410e+00
  2.553208e+01    1.084232e+00
  2.554795e+01    1.112551e+00
  2.556383e+01    1.114527e+00
  2.557971e+01    1.145404e+00
  2.559558e+01    1.163594e+00
  2.561146e+01    1.226673e+00
  2.562733e+01    1.233367e+00
  2.564321e+01    1.300987e+00
  2.565908e+01    1.364205e+00
  2.567496e+01    1.420512e+00
  2.569083e+01    1.490118e+00
  2.570671e+01    1.566338e+00
  2.572259e+01    1.680994e+00
  2.573846e+01    1.823628e+00
  2.575434e+01    1.974421e+00
  2.577021e+01    2.189772e+00
  2.578609e+01    2.464437e+00
  2.580196e+01    2.779834e+00
  2.581784e+01    3.142257e+00
  2.583371e+01    3.622403e+00
  2.584959e+01    4.067781e+00
  2.586547e+01    4.613151e+00
  2.588134e+01    5.172984e+00
  2.589722e+01    5.733020e+00
  2.591309e+01    6.253247e+00
  2.592897e+01    6.748123e+00
  2.594484e+01    7.017229e+00
  2.596072e+01    7.090754e+00
  2.597660e+01    6.948637e+00
  2.599247e+01    6.570753e+00
  2.600835e+01    5.959609e+00
  2.602422e+01    5.263645e+00
  2.604010e+01    4.590335e+00
  2.605597e+01    3.956593e+00
  2.607185e+01    3.423188e+00
  2.608772e+01    3.006170e+00
  2.610360e+01    2.657175e+00
  2.611948e+01    2.376643e+00
  2.613535e+01    2.138094e+00
  2.615123e+01    1.949424e+00
  2.616710e+01    1.793338e+00
  2.618298e+01    1.669885e+00
  2.619885e+01    1.546117e+00
  2.621473e+01    1.464358e+00
  2.623060e+01    1.406665e+00
  2.624648e+01    1.367880e+00
  2.626236e+01    1.279929e+00
  2.627823e+01    1.247002e+00
  2.629411e+01    1.204944e+00
  2.630998e+01    1.206045e+00
  2.632586e+01    1.158090e+00
  2.634173e+01    1.142565e+00
  2.635761e+01    1.099583e+00
  2.637348e+01    1.071421e+00
  2.638936e+01    1.064032e+00
  2.640524e+01    1.028197e+00
  2.642111e+01    1.017958e+00
  2.643699e+01    1.015414e+00
  2.645286e+01    1.008704e+00
  2.646874e+01    1.031100e+00
  2.648461e+01    1.028006e+00
  2.650049e+01    1.028717e+00
  2.651636e+01    1.007730e+00
  2.653224e+01    9.928877e-01
  2.654812e+01    9.758744e-01
  2.656399e+01    9.682342e-01
  2.657987e+01    9.882310e-01
  2.659574e+01    9.695829e-01
  2.661162e+01    9.889660e-01
  2.662749e+01    9.650655e-01
  2.664337e+01    9.675508e-01
  2.665924e+01    9.635283e-01
  2.667512e+01    9.656922e-01
  2.669100e+01    9.565343e-01
  2.670687e+01    9.567345e-01
  2.672275e+01    9.508827e-01
  2.673862e+01    9.550662e-01
  2.675450e+01    9.513615e-01
  2.677037e+01    9.745821e-01
  2.678625e+01    9.768814e-01
  2.680212e+01    9.799905e-01
  2.681800e+01    9.785200e-01
  2.683388e+01    9.522792e-01
  2.684975e+01    9.785962e-01
  2.686563e+01    9.866281e-01
  2.688150e+01    9.730892e-01
  2.689738e+01    9.913340e-01
  2.691325e+01    1.023326e+00
  2.692913e+01    1.023163e+00
  2.694501e+01    1.013942e+00
  2.696088e+01    1.035957e+00
  2.697676e+01    1.067890e+00
  2.699263e+01    1.087957e+00
  2.700851e+01    1.084661e+00
  2.702438e+01    1.129778e+00
  2.704026e+01    1.206733e+00
  2.705613e+01    1.250371e+00
  2.707201e+01    1.308667e+00
  2.708789e+01    1.380465e+00
  2.710376e+01    1.485548e+00
  2.711964e+01    1.603421e+00
  2.713551e+01    1.697852e+00
  2.715139e+01    1.821106e+00
  2.716726e+01    1.920653e+00
  2.718314e+01    2.085377e+00
  2.719901e+01    2.152581e+00
  2.721489e+01    2.163635e+00
  2.723077e+01    2.166331e+00
  2.724664e+01    2.101679e+00
  2.726252e+01    1.983071e+00
  2.727839e+01    1.833998e+00
  2.729427e+01    1.703897e+00
  2.731014e+01    1.577527e+00
  2.732602e+01    1.452741e+00
  2.734189e+01    1.335022e+00
  2.735777e+01    1.288514e+00
  2.737365e+01    1.225774e+00
  2.738952e+01    1.171097e+00
  2.740540e+01    1.087986e+00
  2.742127e+01    1.077056e+00
  2.743715e+01    1.068599e+00
  2.745302e+01    1.035945e+00
  2.746890e+01    1.026490e+00
  2.748477e+01    1.016483e+00
  2.750065e+01    9.848633e-01
  2.751653e+01    9.736961e-01
  2.753240e+01    9.863337e-01
  2.754828e+01    9.672124e-01
  2.756415e+01    9.545834e-01
  2.758003e+01    9.342957e-01
  2.759590e+01    9.114743e-01
  2.761178e+01    9.123137e-01
  2.762765e+01    9.221468e-01
  2.764353e+01    9.357585e-01
  2.765941e+01    9.055681e-01
  2.767528e+01    8.886797e-01
  2.769116e+01    8.868847e-01
  2.770703e+01    8.916259e-01
  2.772291e+01    8.883129e-01
  2.773878e+01    8.952568e-01
  2.775466e+01    9.006459e-01
  2.777054e+01    9.063962e-01
  2.778641e+01    8.926949e-01
  2.780229e+01    8.815956e-01
  2.781816e+01    8.564475e-01
  2.783404e+01    8.794627e-01
  2.784991e+01    8.823830e-01
  2.786579e+01    8.736596e-01
  2.788166e+01    8.800876e-01
  2.789754e+01    8.697925e-01
  2.791342e+01    8.641297e-01
  2.792929e+01    8.686135e-01
  2.794517e+01    8.854448e-01
  2.796104e+01    8.798937e-01
  2.797692e+01    8.742852e-01
  2.799279e+01    8.719948e-01
  2.800867e+01    8.736800e-01
  2.802454e+01    8.616135e-01
  2.804042e+01    8.663417e-01
  2.805630e+01    8.521396e-01
  2.807217e+01    8.633703e-01
  2.808805e+01    8.658940e-01
  2.810392e+01    8.530765e-01
  2.811980e+01    8.393034e-01
  2.813567e+01    8.348183e-01
  2.815155e+01    8.545464e-01
  2.816742e+01    8.440726e-01
  2.818330e+01    8.464972e-01
  2.819918e+01    8.516545e-01
  2.821505e+01    8.539395e-01
  2.823093e+01    8.443509e-01
  2.824680e+01    8.556747e-01
  2.826268e+01    8.670176e-01
  2.827855e+01    8.472614e-01
  2.829443e+01    8.452638e-01
  2.831030e+01    8.555968e-01
  2.832618e+01    8.720068e-01
  2.834206e+01    8.566177e-01
  2.835793e+01    8.650789e-01
  2.837381e+01    8.436767e-01
  2.838968e+01    8.286874e-01
  2.840556e+01    8.536406e-01
  2.842143e+01    8.317239e-01
  2.843731e+01    8.530644e-01
  2.845318e+01    8.441764e-01
  2.846906e+01    8.298432e-01
  2.848494e+01    8.439432e-01
  2.850081e+01    8.442117e-01
  2.851669e+01    8.253327e-01
  2.853256e+01    8.100106e-01
  2.854844e+01    8.491582e-01
  2.856431e+01    8.544580e-01
  2.858019e+01    8.340029e-01
  2.859606e+01    8.496227e-01
  2.861194e+01    8.274870e-01
  2.862782e+01    8.307137e-01
  2.864369e+01    8.279583e-01
  2.865957e+01    8.276796e-01
  2.867544e+01    8.330415e-01
  2.869132e+01    8.414283e-01
  2.870719e+01    8.393205e-01
  2.872307e+01    8.495701e-01
  2.873895e+01    8.298343e-01
  2.875482e+01    8.217487e-01
  2.877070e+01    8.168824e-01
  2.878657e+01    8.283728e-01
  2.880245e+01    8.331391e-01
  2.881832e+01    8.342592e-01
  2.883420e+01    8.411683e-01
  2.885007e+01    8.474624e-01
  2.886595e+01    8.280163e-01
  2.888183e+01    8.369414e-01
  2.889770e+01    8.282325e-01
  2.891358e+01    8.245157e-01
  2.892945e+01    8.183959e-01
  2.894533e+01    8.141579e-01
  2.896120e+01    8.282738e-01
  2.897708e+01    8.018017e-01
  2.899295e+01    8.116322e-01
  2.900883e+01    8.256732e-01
  2.902471e+01    8.201649e-01
  2.904058e+01    8.035030e-01
  2.905646e+01    7.881309e-01
  2.907233e+01    8.208807e-01
  2.908821e+01    8.017441e-01
  2.910408e+01    8.055630e-01
  2.911996e+01    8.021156e-01
  2.913583e+01    8.113233e-01
  2.915171e+01    7.967438e-01
  2.916759e+01    7.958895e-01
  2.918346e+01    8.237886e-01
  2.919934e+01    8.228985e-01
  2.921521e+01    8.283619e-01
  2.923109e+01    8.191793e-01
  2.924696e+01    8.189311e-01
  2.926284e+01    8.156091e-01
  2.927871e+01    8.183717e-01
  2.929459e+01    8.218990e-01
  2.931047e+01    8.046868e-01
  2.932634e+01    7.968097e-01
  2.934222e+01    8.195257e-01
  2.935809e+01    8.309268e-01
  2.937397e+01    8.062391e-01
  2.938984e+01    8.096440e-01
  2.940572e+01    8.149006e-01
  2.942159e+01    8.142763e-01
  2.943747e+01    8.042154e-01
  2.945335e+01    7.998773e-01
  2.946922e+01    7.876553e-01
  2.948510e+01    8.162338e-01
  2.950097e+01    8.041444e-01
  2.951685e+01    7.930245e-01
  2.953272e+01    8.062173e-01
  2.954860e+01    7.953897e-01
  2.956447e+01    8.081291e-01
  2.958035e+01    8.194823e-01
  2.959623e+01    7.921556e-01
  2.961210e+01    7.802812e-01
  2.962798e+01    8.071454e-01
  2.964385e+01    8.261435e-01
  2.965973e+01    7.985472e-01
  2.967560e+01    8.084065e-01
  2.969148e+01    7.991299e-01
  2.970736e+01    7.923092e-01
  2.972323e+01    7.997347e-01
  2.973911e+01    7.954822e-01
  2.975498e+01    7.838268e-01
  2.977086e+01    7.979534e-01
  2.978673e+01    8.168370e-01
  2.980261e+01    8.077103e-01
  2.981848e+01    8.004289e-01
  2.983436e+01    7.972175e-01
  2.985024e+01    7.865461e-01
  2.986611e+01    7.891901e-01
  2.988199e+01    8.007290e-01
  2.989786e+01    7.975310e-01
  2.991374e+01    7.945499e-01
  2.992961e+01    7.955406e-01
  2.994549e+01    8.146508e-01
  2.996136e+01    7.986742e-01
  2.997724e+01    7.779754e-01
  2.999312e+01    8.003685e-01
  3.000899e+01    7.971447e-01
  3.002487e+01    8.068432e-01
  3.004074e+01    8.072231e-01
  3.005662e+01    8.035201e-01
  3.007249e+01    8.056416e-01
  3.008837e+01    8.075826e-01
  3.010424e+01    7.998855e-01
  3.012012e+01    8.039072e-01
  3.013600e+01    8.070480e-01
  3.015187e+01    8.062894e-01
  3.016775e+01    7.906592e-01
  3.018362e+01    7.892131e-01
  3.019950e+01    7.860627e-01
  3.021537e+01    7.843604e-01
  3.023125e+01    7.930267e-01
  3.024712e+01    7.892841e-01
  3.026300e+01    7.820789e-01
  3.027888e+01    7.903767e-01
  3.029475e+01    7.862948e-01
  3.031063e+01    8.030266e-01
  3.032650e+01    7.891190e-01
  3.034238e+01    7.724445e-01
  3.035825e+01    7.759751e-01
  3.037413e+01    8.002866e-01
  3.039000e+01    8.094323e-01
  3.040588e+01    8.078839e-01
  3.042176e+01    7.967744e-01
  3.043763e+01    7.674199e-01
  3.045351e+01    7.872740e-01
  3.046938e+01    7.688329e-01
  3.048526e+01    7.718861e-01
  3.050113e+01    7.875341e-01
  3.051701e+01    7.840698e-01
  3.053288e+01    7.908458e-01
  3.054876e+01    7.895353e-01
  3.056464e+01    7.668277e-01
  3.058051e+01    7.743005e-01
  3.059639e+01    7.838662e-01
  3.061226e+01    7.741055e-01
  3.062814e+01    7.680413e-01
  3.064401e+01    7.740256e-01
  3.065989e+01    7.902747e-01
  3.067577e+01    7.610492e-01
  3.069164e+01    7.592162e-01
  3.070752e+01    7.840055e-01
  3.072339e+01    7.808857e-01
  3.073927e+01    7.725250e-01
  3.075514e+01    7.700634e-01
  3.077102e+01    7.718223e-01
  3.078689e+01    7.775714e-01
  3.080277e+01    7.781372e-01
  3.081865e+01    7.848434e-01
  3.083452e+01    7.937189e-01
  3.085040e+01    7.671335e-01
  3.086627e+01    7.828878e-01
  3.088215e+01    7.857282e-01
  3.089802e+01    7.850366e-01
  3.091390e+01    7.779964e-01
  3.092977e+01    7.855205e-01
  3.094565e+01    7.571926e-01
  3.096153e+01    7.761856e-01
  3.097740e+01    7.858499e-01
  3.099328e+01    7.707333e-01
  3.100915e+01    7.832749e-01
  3.102503e+01    7.705892e-01
  3.104090e+01    7.785382e-01
  3.105678e+01    7.761843e-01
  3.107265e+01    7.901571e-01
  3.108853e+01    7.717052e-01
  3.110441e+01    7.531281e-01
  3.112028e+01    7.671962e-01
  3.113616e+01    7.868483e-01
  3.115203e+01    7.891418e-01
  3.116791e+01    7.939888e-01
  3.118378e+01    7.772256e-01
  3.119966e+01    7.857531e-01
  3.121553e+01    8.062453e-01
  3.123141e+01    7.960739e-01
  3.124729e+01    7.881427e-01
  3.126316e+01    7.900122e-01
  3.127904e+01    8.060902e-01
  3.129491e+01    7.868878e-01
  3.131079e+01    7.998134e-01
  3.132666e+01    7.684689e-01
  3.134254e+01    7.921296e-01
  3.135841e+01    7.922719e-01
  3.137429e+01    8.015757e-01
  3.139017e+01    8.085690e-01
  3.140604e+01    8.004176e-01
  3.142192e+01    8.168021e-01
  3.143779e+01    8.301252e-01
  3.145367e+01    7.901304e-01
  3.146954e+01    8.047495e-01
  3.148542e+01    8.231578e-01
  3.150129e+01    8.034123e-01
  3.151717e+01    8.150844e-01
  3.153305e+01    8.253540e-01
  3.154892e+01    8.492159e-01
  3.156480e+01    8.510072e-01
  3.158067e+01    8.650194e-01
  3.159655e+01    8.766418e-01
  3.161242e+01    8.576452e-01
  3.162830e+01    8.693064e-01
  3.164418e+01    9.082944e-01
  3.166005e+01    9.297054e-01
  3.167593e+01    9.450703e-01
  3.169180e+01    9.899698e-01
  3.170768e+01    1.016747e+00
  3.172355e+01    1.066904e+00
  3.173943e+01    1.123029e+00
  3.175530e+01    1.195075e+00
  3.177118e+01    1.249837e+00
  3.178706e+01    1.336186e+00
  3.180293e+01    1.459594e+00
  3.181881e+01    1.549778e+00
  3.183468e+01    1.693809e+00
  3.185056e+01    1.823369e+00
  3.186643e+01    1.952296e+00
  3.188231e+01    2.048269e+00
  3.189818e+01    2.089184e+00
  3.191406e+01    2.077220e+00
  3.192994e+01    2.045069e+00
  3.194581e+01    1.927149e+00
  3.196169e+01    1.778335e+00
  3.197756e+01    1.679755e+00
  3.199344e+01    1.580763e+00
  3.200931e+01    1.422130e+00
  3.202519e+01    1.338167e+00
  3.204106e+01    1.228900e+00
  3.205694e+01    1.149549e+00
  3.207282e+01    1.105369e+00
  3.208869e+01    1.018639e+00
  3.210457e+01    9.982316e-01
  3.212044e+01    9.705756e-01
  3.213632e+01    9.301708e-01
  3.215219e+01    9.291335e-01
  3.216807e+01    8.858274e-01
  3.218394e+01    8.698440e-01
  3.219982e+01    8.567354e-01
  3.221570e+01    8.562561e-01
  3.223157e+01    8.397861e-01
  3.224745e+01    8.281707e-01
  3.226332e+01    8.087586e-01
  3.227920e+01    8.182044e-01
  3.229507e+01    8.068518e-01
  3.231095e+01    8.114465e-01
  3.232682e+01    7.942581e-01
  3.234270e+01    7.827867e-01
  3.235858e+01    8.188294e-01
  3.237445e+01    7.946183e-01
  3.239033e+01    7.856715e-01
  3.240620e+01    7.818701e-01
  3.242208e+01    7.846577e-01
  3.243795e+01    7.987937e-01
  3.245383e+01    7.754992e-01
  3.246970e+01    7.806658e-01
  3.248558e+01    7.903980e-01
  3.250146e+01    7.704397e-01
  3.251733e+01    7.609778e-01
  3.253321e+01    7.666345e-01
  3.254908e+01    7.696227e-01
