# == pyFAI calibration ==
# Distance Sample to Detector: 0.3999999939076516 m
# PONI: 9.750e-02, 1.135e-01 m
# Rotations: -0.000175 0.000000 -0.000000 rad
# 
# == Fit2d calibration ==
# Distance Sample-beamCenter: 400.000 mm
# Center: x=1514.000, y=1300.000 pix
# Tilt: 0.010 deg  TiltPlanRot: 0.010 deg
# 
# Detector Detector	 Spline= None	 PixelSize= 7.500e-05, 7.500e-05 m
#    Detector has a mask: False 
#    Detector has a dark current: False 
#    detector has a flat field: False 
# 
# Wavelength: 6.888e-11 m
# Mask applied: user provided
# Dark current applied: False
# Flat field applied: False
# Polarization factor: 0.99
# Normalization factor: 1.0
# --> /home/myspot/data/2024_07_Rosario/Ru-CGO-ex/2024-07-27_003_Ru-CGO-ex_Reaction_dwell_000023_data_000167.dat
#       q_nm^-1             I 
  2.003187e-02    7.712225e-02
  3.590745e-02    1.358060e-01
  5.178302e-02    1.715295e-01
  6.765859e-02    2.281183e-01
  8.353417e-02    1.581455e-01
  9.940974e-02    1.712304e-01
  1.152853e-01    1.126199e-01
  1.311609e-01    6.413028e-02
  1.470365e-01    2.712295e-02
  1.629120e-01    3.535499e-04
  1.787876e-01    4.210239e-02
  1.946632e-01    6.473615e-02
  2.105388e-01    6.434748e-02
  2.264143e-01    2.887041e-02
  2.422899e-01    4.815619e-02
  2.581655e-01    3.952923e-02
  2.740411e-01    4.957276e-02
  2.899166e-01    2.924489e-02
  3.057922e-01    2.064630e-02
  3.216678e-01    6.121337e-02
  3.375433e-01    2.318640e-02
  3.534189e-01    5.782885e-02
  3.692945e-01    4.185038e-02
  3.851701e-01    1.909085e-02
  4.010456e-01    1.645129e-02
  4.169212e-01    5.357555e-02
  4.327968e-01    5.324499e-02
  4.486724e-01    4.742964e-02
  4.645479e-01    4.626974e-02
  4.804235e-01    6.072866e-02
  4.962991e-01    6.034765e-02
  5.121747e-01    3.591050e-02
  5.280502e-01    2.740679e-02
  5.439258e-01    5.785802e-02
  5.598014e-01    5.287687e-02
  5.756770e-01    2.502400e-02
  5.915525e-01    1.505586e-02
  6.074281e-01    1.316350e-02
  6.233037e-01    3.208079e-02
  6.391793e-01    3.245137e-02
  6.550548e-01    3.789865e-02
  6.709304e-01    3.685980e-02
  6.868060e-01    4.139456e-02
  7.026815e-01    5.659714e-02
  7.185571e-01    3.682001e-02
  7.344327e-01    4.565824e-02
  7.503083e-01    7.149784e-02
  7.661838e-01    9.937802e-02
  7.820594e-01    1.085077e-01
  7.979350e-01    1.933892e-01
  8.138106e-01    2.146415e-01
  8.296861e-01    2.971825e-01
  8.455617e-01    3.675472e-01
  8.614373e-01    3.580349e-01
  8.773129e-01    3.776072e-01
  8.931884e-01    6.009133e-01
  9.090640e-01    6.335878e-01
  9.249396e-01    7.065979e-01
  9.408152e-01    8.577577e-01
  9.566907e-01    9.669757e-01
  9.725663e-01    1.008827e+00
  9.884419e-01    1.074561e+00
  1.004317e+00    1.138010e+00
  1.020193e+00    1.284033e+00
  1.036069e+00    1.293490e+00
  1.051944e+00    1.269166e+00
  1.067820e+00    1.477234e+00
  1.083695e+00    1.499247e+00
  1.099571e+00    1.564791e+00
  1.115446e+00    1.677580e+00
  1.131322e+00    1.694808e+00
  1.147198e+00    1.708171e+00
  1.163073e+00    1.725869e+00
  1.178949e+00    1.694736e+00
  1.194824e+00    1.724134e+00
  1.210700e+00    1.971518e+00
  1.226575e+00    2.206158e+00
  1.242451e+00    2.425751e+00
  1.258327e+00    2.572556e+00
  1.274202e+00    2.570804e+00
  1.290078e+00    2.665026e+00
  1.305953e+00    2.653174e+00
  1.321829e+00    2.759685e+00
  1.337705e+00    2.906293e+00
  1.353580e+00    2.972760e+00
  1.369456e+00    2.826032e+00
  1.385331e+00    2.845066e+00
  1.401207e+00    2.833345e+00
  1.417082e+00    2.819736e+00
  1.432958e+00    2.803275e+00
  1.448834e+00    2.889215e+00
  1.464709e+00    3.017009e+00
  1.480585e+00    3.027254e+00
  1.496460e+00    3.092197e+00
  1.512336e+00    3.164799e+00
  1.528211e+00    3.168901e+00
  1.544087e+00    3.140531e+00
  1.559963e+00    3.067552e+00
  1.575838e+00    3.058038e+00
  1.591714e+00    2.960488e+00
  1.607589e+00    3.182494e+00
  1.623465e+00    3.243593e+00
  1.639340e+00    3.254524e+00
  1.655216e+00    3.170065e+00
  1.671092e+00    3.084874e+00
  1.686967e+00    3.170567e+00
  1.702843e+00    3.078233e+00
  1.718718e+00    2.990926e+00
  1.734594e+00    3.001435e+00
  1.750469e+00    2.930204e+00
  1.766345e+00    3.062828e+00
  1.782221e+00    3.063996e+00
  1.798096e+00    3.101417e+00
  1.813972e+00    3.105089e+00
  1.829847e+00    3.089348e+00
  1.845723e+00    3.098427e+00
  1.861598e+00    3.126910e+00
  1.877474e+00    3.151772e+00
  1.893350e+00    3.128398e+00
  1.909225e+00    3.044141e+00
  1.925101e+00    3.027097e+00
  1.940976e+00    3.031581e+00
  1.956852e+00    3.022491e+00
  1.972727e+00    3.039761e+00
  1.988603e+00    3.038017e+00
  2.004479e+00    3.080785e+00
  2.020354e+00    3.033592e+00
  2.036230e+00    2.925409e+00
  2.052105e+00    3.027886e+00
  2.067981e+00    3.033289e+00
  2.083856e+00    3.030894e+00
  2.099732e+00    3.013223e+00
  2.115608e+00    3.077655e+00
  2.131483e+00    3.060277e+00
  2.147359e+00    3.069788e+00
  2.163234e+00    3.086195e+00
  2.179110e+00    3.100432e+00
  2.194985e+00    3.064134e+00
  2.210861e+00    3.010827e+00
  2.226737e+00    3.059393e+00
  2.242612e+00    3.014375e+00
  2.258488e+00    3.078526e+00
  2.274363e+00    3.126759e+00
  2.290239e+00    3.155281e+00
  2.306115e+00    3.000065e+00
  2.321990e+00    3.062994e+00
  2.337866e+00    3.174119e+00
  2.353741e+00    3.249370e+00
  2.369617e+00    3.150890e+00
  2.385492e+00    3.151330e+00
  2.401368e+00    3.177096e+00
  2.417244e+00    3.156227e+00
  2.433119e+00    3.097166e+00
  2.448995e+00    3.113202e+00
  2.464870e+00    3.176807e+00
  2.480746e+00    3.125712e+00
  2.496621e+00    3.082570e+00
  2.512497e+00    3.188942e+00
  2.528373e+00    3.067778e+00
  2.544248e+00    3.208122e+00
  2.560124e+00    3.312170e+00
  2.575999e+00    3.217080e+00
  2.591875e+00    3.159471e+00
  2.607750e+00    3.298603e+00
  2.623626e+00    3.259125e+00
  2.639502e+00    3.149908e+00
  2.655377e+00    3.241379e+00
  2.671253e+00    3.231876e+00
  2.687128e+00    3.230496e+00
  2.703004e+00    3.212047e+00
  2.718879e+00    3.236629e+00
  2.734755e+00    3.237065e+00
  2.750631e+00    3.219806e+00
  2.766506e+00    3.153294e+00
  2.782382e+00    3.142460e+00
  2.798257e+00    3.309575e+00
  2.814133e+00    3.335309e+00
  2.830008e+00    3.244571e+00
  2.845884e+00    3.273709e+00
  2.861760e+00    3.239711e+00
  2.877635e+00    3.154624e+00
  2.893511e+00    3.207369e+00
  2.909386e+00    3.234493e+00
  2.925262e+00    3.232233e+00
  2.941137e+00    3.406037e+00
  2.957013e+00    3.386313e+00
  2.972889e+00    3.235280e+00
  2.988764e+00    3.259244e+00
  3.004640e+00    3.288659e+00
  3.020515e+00    3.411983e+00
  3.036391e+00    3.319805e+00
  3.052266e+00    3.427834e+00
  3.068142e+00    3.302222e+00
  3.084018e+00    3.317491e+00
  3.099893e+00    3.351961e+00
  3.115769e+00    3.381792e+00
  3.131644e+00    3.391773e+00
  3.147520e+00    3.428326e+00
  3.163395e+00    3.321625e+00
  3.179271e+00    3.322600e+00
  3.195147e+00    3.440425e+00
  3.211022e+00    3.358421e+00
  3.226898e+00    3.350265e+00
  3.242773e+00    3.353239e+00
  3.258649e+00    3.363218e+00
  3.274525e+00    3.367771e+00
  3.290400e+00    3.342240e+00
  3.306276e+00    3.292438e+00
  3.322151e+00    3.354313e+00
  3.338027e+00    3.364738e+00
  3.353902e+00    3.344090e+00
  3.369778e+00    3.392433e+00
  3.385654e+00    3.430221e+00
  3.401529e+00    3.498592e+00
  3.417405e+00    3.403177e+00
  3.433280e+00    3.281980e+00
  3.449156e+00    3.295590e+00
  3.465031e+00    3.385375e+00
  3.480907e+00    3.357662e+00
  3.496783e+00    3.430718e+00
  3.512658e+00    3.350070e+00
  3.528534e+00    3.398784e+00
  3.544409e+00    3.413211e+00
  3.560285e+00    3.313064e+00
  3.576160e+00    3.307952e+00
  3.592036e+00    3.452782e+00
  3.607912e+00    3.439195e+00
  3.623787e+00    3.418506e+00
  3.639663e+00    3.395604e+00
  3.655538e+00    3.298457e+00
  3.671414e+00    3.392975e+00
  3.687289e+00    3.471132e+00
  3.703165e+00    3.524879e+00
  3.719041e+00    3.447656e+00
  3.734916e+00    3.432677e+00
  3.750792e+00    3.418999e+00
  3.766667e+00    3.393119e+00
  3.782543e+00    3.432886e+00
  3.798418e+00    3.404735e+00
  3.814294e+00    3.441763e+00
  3.830170e+00    3.500381e+00
  3.846045e+00    3.491449e+00
  3.861921e+00    3.541986e+00
  3.877796e+00    3.472499e+00
  3.893672e+00    3.458364e+00
  3.909547e+00    3.465906e+00
  3.925423e+00    3.543208e+00
  3.941299e+00    3.544428e+00
  3.957174e+00    3.435665e+00
  3.973050e+00    3.427417e+00
  3.988925e+00    3.497961e+00
  4.004801e+00    3.480581e+00
  4.020676e+00    3.609411e+00
  4.036552e+00    3.601185e+00
  4.052428e+00    3.543413e+00
  4.068303e+00    3.550637e+00
  4.084179e+00    3.427476e+00
  4.100054e+00    3.431505e+00
  4.115930e+00    3.590262e+00
  4.131806e+00    3.633012e+00
  4.147681e+00    3.593073e+00
  4.163557e+00    3.525976e+00
  4.179432e+00    3.505768e+00
  4.195308e+00    3.569314e+00
  4.211183e+00    3.541497e+00
  4.227059e+00    3.541500e+00
  4.242935e+00    3.476975e+00
  4.258810e+00    3.582525e+00
  4.274686e+00    3.525700e+00
  4.290561e+00    3.467391e+00
  4.306437e+00    3.497482e+00
  4.322312e+00    3.513234e+00
  4.338188e+00    3.549394e+00
  4.354064e+00    3.547091e+00
  4.369939e+00    3.551135e+00
  4.385815e+00    3.537014e+00
  4.401690e+00    3.446438e+00
  4.417566e+00    3.438142e+00
  4.433441e+00    3.596804e+00
  4.449317e+00    3.531545e+00
  4.465193e+00    3.521386e+00
  4.481068e+00    3.569016e+00
  4.496944e+00    3.479610e+00
  4.512819e+00    3.567981e+00
  4.528695e+00    3.610262e+00
  4.544570e+00    3.573499e+00
  4.560446e+00    3.642576e+00
  4.576322e+00    3.566590e+00
  4.592197e+00    3.587182e+00
  4.608073e+00    3.554798e+00
  4.623948e+00    3.545890e+00
  4.639824e+00    3.580635e+00
  4.655699e+00    3.608495e+00
  4.671575e+00    3.590359e+00
  4.687451e+00    3.589165e+00
  4.703326e+00    3.621931e+00
  4.719202e+00    3.548257e+00
  4.735077e+00    3.663935e+00
  4.750953e+00    3.612876e+00
  4.766828e+00    3.666940e+00
  4.782704e+00    3.566263e+00
  4.798580e+00    3.602139e+00
  4.814455e+00    3.584540e+00
  4.830331e+00    3.602594e+00
  4.846206e+00    3.602022e+00
  4.862082e+00    3.626444e+00
  4.877957e+00    3.602221e+00
  4.893833e+00    3.569838e+00
  4.909709e+00    3.581559e+00
  4.925584e+00    3.626764e+00
  4.941460e+00    3.700125e+00
  4.957335e+00    3.609753e+00
  4.973211e+00    3.621200e+00
  4.989086e+00    3.552463e+00
  5.004962e+00    3.645819e+00
  5.020838e+00    3.696476e+00
  5.036713e+00    3.582227e+00
  5.052589e+00    3.662257e+00
  5.068464e+00    3.676092e+00
  5.084340e+00    3.628866e+00
  5.100216e+00    3.534847e+00
  5.116091e+00    3.602776e+00
  5.131967e+00    3.560477e+00
  5.147842e+00    3.560792e+00
  5.163718e+00    3.578365e+00
  5.179593e+00    3.583917e+00
  5.195469e+00    3.649935e+00
  5.211345e+00    3.664021e+00
  5.227220e+00    3.604575e+00
  5.243096e+00    3.621482e+00
  5.258971e+00    3.646863e+00
  5.274847e+00    3.641224e+00
  5.290722e+00    3.653832e+00
  5.306598e+00    3.682791e+00
  5.322474e+00    3.713376e+00
  5.338349e+00    3.745638e+00
  5.354225e+00    3.645223e+00
  5.370100e+00    3.596672e+00
  5.385976e+00    3.543915e+00
  5.401851e+00    3.574919e+00
  5.417727e+00    3.482162e+00
  5.433603e+00    3.557354e+00
  5.449478e+00    3.611572e+00
  5.465354e+00    3.566135e+00
  5.481229e+00    3.553612e+00
  5.497105e+00    3.600553e+00
  5.512980e+00    3.529630e+00
  5.528856e+00    3.575840e+00
  5.544732e+00    3.572645e+00
  5.560607e+00    3.571591e+00
  5.576483e+00    3.525830e+00
  5.592358e+00    3.492431e+00
  5.608234e+00    3.558171e+00
  5.624109e+00    3.563143e+00
  5.639985e+00    3.562369e+00
  5.655861e+00    3.517475e+00
  5.671736e+00    3.518373e+00
  5.687612e+00    3.474206e+00
  5.703487e+00    3.463457e+00
  5.719363e+00    3.444499e+00
  5.735238e+00    3.457207e+00
  5.751114e+00    3.536296e+00
  5.766990e+00    3.549826e+00
  5.782865e+00    3.569032e+00
  5.798741e+00    3.647840e+00
  5.814616e+00    3.570157e+00
  5.830492e+00    3.536405e+00
  5.846367e+00    3.527010e+00
  5.862243e+00    3.533130e+00
  5.878119e+00    3.468875e+00
  5.893994e+00    3.529565e+00
  5.909870e+00    3.583056e+00
  5.925745e+00    3.546879e+00
  5.941621e+00    3.521338e+00
  5.957497e+00    3.489969e+00
  5.973372e+00    3.528454e+00
  5.989248e+00    3.501676e+00
  6.005123e+00    3.532696e+00
  6.020999e+00    3.594355e+00
  6.036874e+00    3.613788e+00
  6.052750e+00    3.559818e+00
  6.068626e+00    3.583739e+00
  6.084501e+00    3.533612e+00
  6.100377e+00    3.466606e+00
  6.116252e+00    3.504932e+00
  6.132128e+00    3.580785e+00
  6.148003e+00    3.617499e+00
  6.163879e+00    3.590033e+00
  6.179755e+00    3.572588e+00
  6.195630e+00    3.488690e+00
  6.211506e+00    3.524202e+00
  6.227381e+00    3.587333e+00
  6.243257e+00    3.527202e+00
  6.259132e+00    3.491482e+00
  6.275008e+00    3.549709e+00
  6.290884e+00    3.581734e+00
  6.306759e+00    3.566885e+00
  6.322635e+00    3.519785e+00
  6.338510e+00    3.502852e+00
  6.354386e+00    3.513586e+00
  6.370261e+00    3.617461e+00
  6.386137e+00    3.505036e+00
  6.402013e+00    3.405667e+00
  6.417888e+00    3.425482e+00
  6.433764e+00    3.425479e+00
  6.449639e+00    3.506053e+00
  6.465515e+00    3.468846e+00
  6.481390e+00    3.481166e+00
  6.497266e+00    3.463033e+00
  6.513142e+00    3.532162e+00
  6.529017e+00    3.554125e+00
  6.544893e+00    3.459293e+00
  6.560768e+00    3.496212e+00
  6.576644e+00    3.505769e+00
  6.592519e+00    3.517787e+00
  6.608395e+00    3.548568e+00
  6.624271e+00    3.504014e+00
  6.640146e+00    3.549513e+00
  6.656022e+00    3.580304e+00
  6.671897e+00    3.558718e+00
  6.687773e+00    3.488298e+00
  6.703648e+00    3.520526e+00
  6.719524e+00    3.514714e+00
  6.735400e+00    3.512509e+00
  6.751275e+00    3.537335e+00
  6.767151e+00    3.594885e+00
  6.783026e+00    3.501071e+00
  6.798902e+00    3.519713e+00
  6.814777e+00    3.567700e+00
  6.830653e+00    3.535740e+00
  6.846529e+00    3.491100e+00
  6.862404e+00    3.489486e+00
  6.878280e+00    3.487964e+00
  6.894155e+00    3.474568e+00
  6.910031e+00    3.488417e+00
  6.925907e+00    3.514555e+00
  6.941782e+00    3.579086e+00
  6.957658e+00    3.552061e+00
  6.973533e+00    3.567392e+00
  6.989409e+00    3.570881e+00
  7.005284e+00    3.525482e+00
  7.021160e+00    3.562427e+00
  7.037036e+00    3.548755e+00
  7.052911e+00    3.460465e+00
  7.068787e+00    3.490963e+00
  7.084662e+00    3.457157e+00
  7.100538e+00    3.489328e+00
  7.116413e+00    3.460744e+00
  7.132289e+00    3.455042e+00
  7.148165e+00    3.478762e+00
  7.164040e+00    3.506403e+00
  7.179916e+00    3.407378e+00
  7.195791e+00    3.433404e+00
  7.211667e+00    3.532011e+00
  7.227542e+00    3.469887e+00
  7.243418e+00    3.442779e+00
  7.259294e+00    3.437400e+00
  7.275169e+00    3.462215e+00
  7.291045e+00    3.445898e+00
  7.306920e+00    3.472950e+00
  7.322796e+00    3.535133e+00
  7.338671e+00    3.534075e+00
  7.354547e+00    3.499657e+00
  7.370423e+00    3.497873e+00
  7.386298e+00    3.488848e+00
  7.402174e+00    3.532874e+00
  7.418049e+00    3.437352e+00
  7.433925e+00    3.484185e+00
  7.449800e+00    3.509924e+00
  7.465676e+00    3.443693e+00
  7.481552e+00    3.463710e+00
  7.497427e+00    3.486214e+00
  7.513303e+00    3.455825e+00
  7.529178e+00    3.432637e+00
  7.545054e+00    3.411029e+00
  7.560929e+00    3.465900e+00
  7.576805e+00    3.429727e+00
  7.592681e+00    3.426615e+00
  7.608556e+00    3.426613e+00
  7.624432e+00    3.324564e+00
  7.640307e+00    3.370525e+00
  7.656183e+00    3.452470e+00
  7.672058e+00    3.428559e+00
  7.687934e+00    3.440900e+00
  7.703810e+00    3.488439e+00
  7.719685e+00    3.446462e+00
  7.735561e+00    3.460822e+00
  7.751436e+00    3.429001e+00
  7.767312e+00    3.461074e+00
  7.783187e+00    3.457010e+00
  7.799063e+00    3.404169e+00
  7.814939e+00    3.390739e+00
  7.830814e+00    3.383068e+00
  7.846690e+00    3.387529e+00
  7.862565e+00    3.428407e+00
  7.878441e+00    3.410115e+00
  7.894317e+00    3.336851e+00
  7.910192e+00    3.380935e+00
  7.926068e+00    3.441172e+00
  7.941943e+00    3.426256e+00
  7.957819e+00    3.370728e+00
  7.973694e+00    3.419664e+00
  7.989570e+00    3.358695e+00
  8.005446e+00    3.370087e+00
  8.021321e+00    3.358486e+00
  8.037197e+00    3.353312e+00
  8.053072e+00    3.347674e+00
  8.068948e+00    3.363717e+00
  8.084823e+00    3.455819e+00
  8.100699e+00    3.463709e+00
  8.116575e+00    3.467287e+00
  8.132450e+00    3.410712e+00
  8.148326e+00    3.433163e+00
  8.164201e+00    3.468705e+00
  8.180077e+00    3.464887e+00
  8.195952e+00    3.466906e+00
  8.211828e+00    3.483415e+00
  8.227704e+00    3.439892e+00
  8.243579e+00    3.438021e+00
  8.259455e+00    3.441351e+00
  8.275330e+00    3.418487e+00
  8.291206e+00    3.339452e+00
  8.307081e+00    3.339260e+00
  8.322957e+00    3.353048e+00
  8.338833e+00    3.362343e+00
  8.354708e+00    3.391432e+00
  8.370584e+00    3.403839e+00
  8.386459e+00    3.360796e+00
  8.402335e+00    3.365553e+00
  8.418210e+00    3.359334e+00
  8.434086e+00    3.291196e+00
  8.449962e+00    3.301316e+00
  8.465837e+00    3.242721e+00
  8.481713e+00    3.330419e+00
  8.497588e+00    3.330797e+00
  8.513464e+00    3.335421e+00
  8.529339e+00    3.304960e+00
  8.545215e+00    3.304005e+00
  8.561091e+00    3.359995e+00
  8.576966e+00    3.409297e+00
  8.592842e+00    3.308153e+00
  8.608717e+00    3.348958e+00
  8.624593e+00    3.307985e+00
  8.640468e+00    3.342644e+00
  8.656344e+00    3.315822e+00
  8.672220e+00    3.308288e+00
  8.688095e+00    3.319913e+00
  8.703971e+00    3.293136e+00
  8.719846e+00    3.292366e+00
  8.735722e+00    3.325426e+00
  8.751598e+00    3.305978e+00
  8.767473e+00    3.289018e+00
  8.783349e+00    3.316554e+00
  8.799224e+00    3.281231e+00
  8.815100e+00    3.317128e+00
  8.830975e+00    3.342738e+00
  8.846851e+00    3.340780e+00
  8.862727e+00    3.378184e+00
  8.878602e+00    3.245441e+00
  8.894478e+00    3.267208e+00
  8.910353e+00    3.320845e+00
  8.926229e+00    3.331038e+00
  8.942104e+00    3.243744e+00
  8.957980e+00    3.275201e+00
  8.973856e+00    3.282812e+00
  8.989731e+00    3.252173e+00
  9.005607e+00    3.192185e+00
  9.021482e+00    3.228966e+00
  9.037358e+00    3.247971e+00
  9.053233e+00    3.290255e+00
  9.069109e+00    3.312751e+00
  9.084985e+00    3.256359e+00
  9.100860e+00    3.249535e+00
  9.116736e+00    3.253548e+00
  9.132611e+00    3.246767e+00
  9.148487e+00    3.164232e+00
  9.164362e+00    3.199778e+00
  9.180238e+00    3.240403e+00
  9.196114e+00    3.261597e+00
  9.211989e+00    3.214397e+00
  9.227865e+00    3.177535e+00
  9.243740e+00    3.157284e+00
  9.259616e+00    3.225739e+00
  9.275491e+00    3.245516e+00
  9.291367e+00    3.207812e+00
  9.307243e+00    3.213179e+00
  9.323118e+00    3.186695e+00
  9.338994e+00    3.156868e+00
  9.354869e+00    3.203484e+00
  9.370745e+00    3.236504e+00
  9.386620e+00    3.243964e+00
  9.402496e+00    3.254789e+00
  9.418372e+00    3.206734e+00
  9.434247e+00    3.182346e+00
  9.450123e+00    3.112394e+00
  9.465998e+00    3.090515e+00
  9.481874e+00    3.132069e+00
  9.497749e+00    3.155358e+00
  9.513625e+00    3.206183e+00
  9.529501e+00    3.222936e+00
  9.545376e+00    3.194887e+00
  9.561252e+00    3.195192e+00
  9.577127e+00    3.188722e+00
  9.593003e+00    3.222009e+00
  9.608878e+00    3.215941e+00
  9.624754e+00    3.155707e+00
  9.640630e+00    3.190980e+00
  9.656505e+00    3.245911e+00
  9.672381e+00    3.168608e+00
  9.688256e+00    3.128424e+00
  9.704132e+00    3.141202e+00
  9.720008e+00    3.167263e+00
  9.735883e+00    3.135344e+00
  9.751759e+00    3.162811e+00
  9.767634e+00    3.192585e+00
  9.783510e+00    3.176358e+00
  9.799385e+00    3.118175e+00
  9.815261e+00    3.192864e+00
  9.831137e+00    3.155965e+00
  9.847012e+00    3.103383e+00
  9.862888e+00    3.104012e+00
  9.878763e+00    3.092671e+00
  9.894639e+00    3.069572e+00
  9.910514e+00    3.102440e+00
  9.926390e+00    3.130145e+00
  9.942266e+00    3.113142e+00
  9.958141e+00    3.114555e+00
  9.974017e+00    3.115307e+00
  9.989892e+00    3.087348e+00
  1.000577e+01    3.146891e+00
  1.002164e+01    3.108278e+00
  1.003752e+01    3.024795e+00
  1.005339e+01    3.091408e+00
  1.006927e+01    3.072239e+00
  1.008515e+01    3.064999e+00
  1.010102e+01    3.132312e+00
  1.011690e+01    3.112284e+00
  1.013277e+01    3.078208e+00
  1.014865e+01    3.037320e+00
  1.016452e+01    3.041483e+00
  1.018040e+01    3.037869e+00
  1.019627e+01    3.023865e+00
  1.021215e+01    3.036946e+00
  1.022803e+01    3.101474e+00
  1.024390e+01    3.066011e+00
  1.025978e+01    3.044182e+00
  1.027565e+01    3.001703e+00
  1.029153e+01    3.027058e+00
  1.030740e+01    3.057426e+00
  1.032328e+01    3.030601e+00
  1.033915e+01    3.000535e+00
  1.035503e+01    2.989345e+00
  1.037091e+01    3.023087e+00
  1.038678e+01    3.000232e+00
  1.040266e+01    2.974195e+00
  1.041853e+01    2.976840e+00
  1.043441e+01    3.013500e+00
  1.045028e+01    3.049580e+00
  1.046616e+01    3.029808e+00
  1.048204e+01    3.033309e+00
  1.049791e+01    2.995636e+00
  1.051379e+01    3.014084e+00
  1.052966e+01    3.020957e+00
  1.054554e+01    3.005762e+00
  1.056141e+01    2.922994e+00
  1.057729e+01    2.930918e+00
  1.059316e+01    2.959781e+00
  1.060904e+01    2.984351e+00
  1.062492e+01    2.943652e+00
  1.064079e+01    2.981630e+00
  1.065667e+01    2.987188e+00
  1.067254e+01    2.982010e+00
  1.068842e+01    2.970125e+00
  1.070429e+01    2.955918e+00
  1.072017e+01    2.878027e+00
  1.073604e+01    2.885299e+00
  1.075192e+01    2.931399e+00
  1.076780e+01    2.941820e+00
  1.078367e+01    2.940188e+00
  1.079955e+01    2.907368e+00
  1.081542e+01    2.896862e+00
  1.083130e+01    2.953545e+00
  1.084717e+01    2.902431e+00
  1.086305e+01    2.876919e+00
  1.087892e+01    2.847899e+00
  1.089480e+01    2.922782e+00
  1.091068e+01    2.908016e+00
  1.092655e+01    2.918559e+00
  1.094243e+01    2.892613e+00
  1.095830e+01    2.873467e+00
  1.097418e+01    2.847245e+00
  1.099005e+01    2.857537e+00
  1.100593e+01    2.909109e+00
  1.102180e+01    2.892737e+00
  1.103768e+01    2.903809e+00
  1.105356e+01    2.906384e+00
  1.106943e+01    2.819840e+00
  1.108531e+01    2.841963e+00
  1.110118e+01    2.855932e+00
  1.111706e+01    2.863225e+00
  1.113293e+01    2.890234e+00
  1.114881e+01    2.887297e+00
  1.116468e+01    2.891034e+00
  1.118056e+01    2.862280e+00
  1.119644e+01    2.863259e+00
  1.121231e+01    2.898939e+00
  1.122819e+01    2.845345e+00
  1.124406e+01    2.834394e+00
  1.125994e+01    2.788812e+00
  1.127581e+01    2.794148e+00
  1.129169e+01    2.783406e+00
  1.130756e+01    2.794956e+00
  1.132344e+01    2.816659e+00
  1.133932e+01    2.860490e+00
  1.135519e+01    2.798115e+00
  1.137107e+01    2.806398e+00
  1.138694e+01    2.768312e+00
  1.140282e+01    2.745943e+00
  1.141869e+01    2.779051e+00
  1.143457e+01    2.779661e+00
  1.145045e+01    2.798391e+00
  1.146632e+01    2.826331e+00
  1.148220e+01    2.795797e+00
  1.149807e+01    2.798517e+00
  1.151395e+01    2.802393e+00
  1.152982e+01    2.804828e+00
  1.154570e+01    2.836876e+00
  1.156157e+01    2.757919e+00
  1.157745e+01    2.741897e+00
  1.159333e+01    2.700826e+00
  1.160920e+01    2.711144e+00
  1.162508e+01    2.730630e+00
  1.164095e+01    2.715296e+00
  1.165683e+01    2.715320e+00
  1.167270e+01    2.724336e+00
  1.168858e+01    2.740823e+00
  1.170445e+01    2.714179e+00
  1.172033e+01    2.723113e+00
  1.173621e+01    2.722292e+00
  1.175208e+01    2.715573e+00
  1.176796e+01    2.710993e+00
  1.178383e+01    2.714635e+00
  1.179971e+01    2.713403e+00
  1.181558e+01    2.693369e+00
  1.183146e+01    2.727128e+00
  1.184733e+01    2.751873e+00
  1.186321e+01    2.731761e+00
  1.187909e+01    2.695474e+00
  1.189496e+01    2.730891e+00
  1.191084e+01    2.687935e+00
  1.192671e+01    2.717602e+00
  1.194259e+01    2.733412e+00
  1.195846e+01    2.723754e+00
  1.197434e+01    2.740444e+00
  1.199021e+01    2.713307e+00
  1.200609e+01    2.690404e+00
  1.202197e+01    2.658131e+00
  1.203784e+01    2.669579e+00
  1.205372e+01    2.719209e+00
  1.206959e+01    2.696383e+00
  1.208547e+01    2.660845e+00
  1.210134e+01    2.669445e+00
  1.211722e+01    2.651040e+00
  1.213309e+01    2.691559e+00
  1.214897e+01    2.675919e+00
  1.216485e+01    2.655635e+00
  1.218072e+01    2.645839e+00
  1.219660e+01    2.675789e+00
  1.221247e+01    2.657466e+00
  1.222835e+01    2.634922e+00
  1.224422e+01    2.618468e+00
  1.226010e+01    2.691293e+00
  1.227597e+01    2.694907e+00
  1.229185e+01    2.690828e+00
  1.230773e+01    2.707052e+00
  1.232360e+01    2.678252e+00
  1.233948e+01    2.681261e+00
  1.235535e+01    2.656076e+00
  1.237123e+01    2.623039e+00
  1.238710e+01    2.653690e+00
  1.240298e+01    2.685713e+00
  1.241886e+01    2.663816e+00
  1.243473e+01    2.654558e+00
  1.245061e+01    2.703223e+00
  1.246648e+01    2.711931e+00
  1.248236e+01    2.718363e+00
  1.249823e+01    2.741518e+00
  1.251411e+01    2.700031e+00
  1.252998e+01    2.691142e+00
  1.254586e+01    2.704192e+00
  1.256174e+01    2.706523e+00
  1.257761e+01    2.711820e+00
  1.259349e+01    2.713346e+00
  1.260936e+01    2.762663e+00
  1.262524e+01    2.706260e+00
  1.264111e+01    2.770490e+00
  1.265699e+01    2.775896e+00
  1.267286e+01    2.792082e+00
  1.268874e+01    2.774085e+00
  1.270462e+01    2.754770e+00
  1.272049e+01    2.773165e+00
  1.273637e+01    2.830849e+00
  1.275224e+01    2.883809e+00
  1.276812e+01    2.911138e+00
  1.278399e+01    2.962742e+00
  1.279987e+01    3.016040e+00
  1.281574e+01    3.018849e+00
  1.283162e+01    3.091372e+00
  1.284750e+01    3.162814e+00
  1.286337e+01    3.258185e+00
  1.287925e+01    3.356233e+00
  1.289512e+01    3.442967e+00
  1.291100e+01    3.599792e+00
  1.292687e+01    3.861013e+00
  1.294275e+01    4.010504e+00
  1.295862e+01    4.311714e+00
  1.297450e+01    4.684378e+00
  1.299038e+01    5.183486e+00
  1.300625e+01    5.807086e+00
  1.302213e+01    6.606356e+00
  1.303800e+01    7.572323e+00
  1.305388e+01    8.725889e+00
  1.306975e+01    9.982436e+00
  1.308563e+01    1.125350e+01
  1.310150e+01    1.251918e+01
  1.311738e+01    1.361797e+01
  1.313326e+01    1.456578e+01
  1.314913e+01    1.550066e+01
  1.316501e+01    1.608418e+01
  1.318088e+01    1.614831e+01
  1.319676e+01    1.554821e+01
  1.321263e+01    1.420065e+01
  1.322851e+01    1.241613e+01
  1.324438e+01    1.064579e+01
  1.326026e+01    9.049415e+00
  1.327614e+01    7.721383e+00
  1.329201e+01    6.652939e+00
  1.330789e+01    5.829728e+00
  1.332376e+01    5.262128e+00
  1.333964e+01    4.825595e+00
  1.335551e+01    4.429873e+00
  1.337139e+01    4.170473e+00
  1.338727e+01    3.846107e+00
  1.340314e+01    3.605121e+00
  1.341902e+01    3.437910e+00
  1.343489e+01    3.305067e+00
  1.345077e+01    3.184789e+00
  1.346664e+01    3.093857e+00
  1.348252e+01    2.953188e+00
  1.349839e+01    2.908448e+00
  1.351427e+01    2.855289e+00
  1.353015e+01    2.804800e+00
  1.354602e+01    2.826232e+00
  1.356190e+01    2.762293e+00
  1.357777e+01    2.707387e+00
  1.359365e+01    2.671924e+00
  1.360952e+01    2.684218e+00
  1.362540e+01    2.658483e+00
  1.364127e+01    2.662852e+00
  1.365715e+01    2.594639e+00
  1.367303e+01    2.526184e+00
  1.368890e+01    2.540479e+00
  1.370478e+01    2.534873e+00
  1.372065e+01    2.492980e+00
  1.373653e+01    2.512292e+00
  1.375240e+01    2.515589e+00
  1.376828e+01    2.469519e+00
  1.378415e+01    2.441167e+00
  1.380003e+01    2.434921e+00
  1.381591e+01    2.439082e+00
  1.383178e+01    2.451278e+00
  1.384766e+01    2.418708e+00
  1.386353e+01    2.402842e+00
  1.387941e+01    2.422684e+00
  1.389528e+01    2.416193e+00
  1.391116e+01    2.368806e+00
  1.392703e+01    2.395681e+00
  1.394291e+01    2.380460e+00
  1.395879e+01    2.358456e+00
  1.397466e+01    2.312119e+00
  1.399054e+01    2.351686e+00
  1.400641e+01    2.366766e+00
  1.402229e+01    2.339360e+00
  1.403816e+01    2.314490e+00
  1.405404e+01    2.342666e+00
  1.406991e+01    2.313639e+00
  1.408579e+01    2.339957e+00
  1.410167e+01    2.313545e+00
  1.411754e+01    2.346951e+00
  1.413342e+01    2.306272e+00
  1.414929e+01    2.305970e+00
  1.416517e+01    2.297401e+00
  1.418104e+01    2.268267e+00
  1.419692e+01    2.264589e+00
  1.421279e+01    2.289949e+00
  1.422867e+01    2.233154e+00
  1.424455e+01    2.283879e+00
  1.426042e+01    2.290923e+00
  1.427630e+01    2.281813e+00
  1.429217e+01    2.251199e+00
  1.430805e+01    2.242486e+00
  1.432392e+01    2.253438e+00
  1.433980e+01    2.213944e+00
  1.435568e+01    2.191063e+00
  1.437155e+01    2.217593e+00
  1.438743e+01    2.207177e+00
  1.440330e+01    2.196122e+00
  1.441918e+01    2.167886e+00
  1.443505e+01    2.207495e+00
  1.445093e+01    2.235666e+00
  1.446680e+01    2.218189e+00
  1.448268e+01    2.184884e+00
  1.449856e+01    2.148736e+00
  1.451443e+01    2.168937e+00
  1.453031e+01    2.203622e+00
  1.454618e+01    2.214124e+00
  1.456206e+01    2.210715e+00
  1.457793e+01    2.224502e+00
  1.459381e+01    2.193476e+00
  1.460968e+01    2.180585e+00
  1.462556e+01    2.167878e+00
  1.464144e+01    2.197976e+00
  1.465731e+01    2.187192e+00
  1.467319e+01    2.155990e+00
  1.468906e+01    2.193750e+00
  1.470494e+01    2.225771e+00
  1.472081e+01    2.219587e+00
  1.473669e+01    2.204117e+00
  1.475256e+01    2.158125e+00
  1.476844e+01    2.150253e+00
  1.478432e+01    2.154967e+00
  1.480019e+01    2.180609e+00
  1.481607e+01    2.211920e+00
  1.483194e+01    2.198593e+00
  1.484782e+01    2.185534e+00
  1.486369e+01    2.164697e+00
  1.487957e+01    2.193533e+00
  1.489544e+01    2.229865e+00
  1.491132e+01    2.284423e+00
  1.492720e+01    2.320127e+00
  1.494307e+01    2.286025e+00
  1.495895e+01    2.298292e+00
  1.497482e+01    2.353361e+00
  1.499070e+01    2.352471e+00
  1.500657e+01    2.403604e+00
  1.502245e+01    2.471985e+00
  1.503832e+01    2.564490e+00
  1.505420e+01    2.657157e+00
  1.507008e+01    2.834150e+00
  1.508595e+01    3.019235e+00
  1.510183e+01    3.157859e+00
  1.511770e+01    3.400231e+00
  1.513358e+01    3.719487e+00
  1.514945e+01    4.112354e+00
  1.516533e+01    4.523065e+00
  1.518120e+01    4.785084e+00
  1.519708e+01    5.117665e+00
  1.521296e+01    5.352719e+00
  1.522883e+01    5.525135e+00
  1.524471e+01    5.622124e+00
  1.526058e+01    5.643777e+00
  1.527646e+01    5.603859e+00
  1.529233e+01    5.384567e+00
  1.530821e+01    5.058386e+00
  1.532409e+01    4.634648e+00
  1.533996e+01    4.185076e+00
  1.535584e+01    3.752119e+00
  1.537171e+01    3.422951e+00
  1.538759e+01    3.091325e+00
  1.540346e+01    2.904896e+00
  1.541934e+01    2.709757e+00
  1.543521e+01    2.579035e+00
  1.545109e+01    2.493264e+00
  1.546697e+01    2.428846e+00
  1.548284e+01    2.312816e+00
  1.549872e+01    2.266115e+00
  1.551459e+01    2.203505e+00
  1.553047e+01    2.195258e+00
  1.554634e+01    2.155026e+00
  1.556222e+01    2.134281e+00
  1.557809e+01    2.136345e+00
  1.559397e+01    2.083809e+00
  1.560985e+01    2.055581e+00
  1.562572e+01    2.026481e+00
  1.564160e+01    2.063191e+00
  1.565747e+01    2.039214e+00
  1.567335e+01    2.009050e+00
  1.568922e+01    1.974227e+00
  1.570510e+01    1.963781e+00
  1.572097e+01    1.949354e+00
  1.573685e+01    1.910083e+00
  1.575273e+01    1.907569e+00
  1.576860e+01    1.977728e+00
  1.578448e+01    1.952210e+00
  1.580035e+01    1.916435e+00
  1.581623e+01    1.941761e+00
  1.583210e+01    1.921314e+00
  1.584798e+01    1.898187e+00
  1.586385e+01    1.883722e+00
  1.587973e+01    1.891940e+00
  1.589561e+01    1.939632e+00
  1.591148e+01    1.896254e+00
  1.592736e+01    1.851238e+00
  1.594323e+01    1.855161e+00
  1.595911e+01    1.829292e+00
  1.597498e+01    1.857126e+00
  1.599086e+01    1.858325e+00
  1.600673e+01    1.833421e+00
  1.602261e+01    1.842285e+00
  1.603849e+01    1.851515e+00
  1.605436e+01    1.860025e+00
  1.607024e+01    1.861032e+00
  1.608611e+01    1.827013e+00
  1.610199e+01    1.785949e+00
  1.611786e+01    1.797308e+00
  1.613374e+01    1.826979e+00
  1.614961e+01    1.811111e+00
  1.616549e+01    1.804479e+00
  1.618137e+01    1.822798e+00
  1.619724e+01    1.841115e+00
  1.621312e+01    1.811401e+00
  1.622899e+01    1.791228e+00
  1.624487e+01    1.751149e+00
  1.626074e+01    1.773628e+00
  1.627662e+01    1.819965e+00
  1.629250e+01    1.830501e+00
  1.630837e+01    1.799979e+00
  1.632425e+01    1.764382e+00
  1.634012e+01    1.758539e+00
  1.635600e+01    1.757303e+00
  1.637187e+01    1.764592e+00
  1.638775e+01    1.802871e+00
  1.640362e+01    1.798560e+00
  1.641950e+01    1.762387e+00
  1.643538e+01    1.770471e+00
  1.645125e+01    1.759211e+00
  1.646713e+01    1.741785e+00
  1.648300e+01    1.724872e+00
  1.649888e+01    1.741173e+00
  1.651475e+01    1.765207e+00
  1.653063e+01    1.718801e+00
  1.654650e+01    1.726896e+00
  1.656238e+01    1.755541e+00
  1.657826e+01    1.725066e+00
  1.659413e+01    1.727325e+00
  1.661001e+01    1.717997e+00
  1.662588e+01    1.688069e+00
  1.664176e+01    1.729214e+00
  1.665763e+01    1.703607e+00
  1.667351e+01    1.712586e+00
  1.668938e+01    1.727813e+00
  1.670526e+01    1.729424e+00
  1.672114e+01    1.714174e+00
  1.673701e+01    1.708695e+00
  1.675289e+01    1.694517e+00
  1.676876e+01    1.689683e+00
  1.678464e+01    1.694865e+00
  1.680051e+01    1.710800e+00
  1.681639e+01    1.668867e+00
  1.683226e+01    1.668709e+00
  1.684814e+01    1.655294e+00
  1.686402e+01    1.652721e+00
  1.687989e+01    1.660221e+00
  1.689577e+01    1.683348e+00
  1.691164e+01    1.690438e+00
  1.692752e+01    1.660692e+00
  1.694339e+01    1.670179e+00
  1.695927e+01    1.692770e+00
  1.697514e+01    1.696154e+00
  1.699102e+01    1.666439e+00
  1.700690e+01    1.670581e+00
  1.702277e+01    1.651235e+00
  1.703865e+01    1.612739e+00
  1.705452e+01    1.629244e+00
  1.707040e+01    1.630455e+00
  1.708627e+01    1.664979e+00
  1.710215e+01    1.637592e+00
  1.711802e+01    1.640431e+00
  1.713390e+01    1.638346e+00
  1.714978e+01    1.623652e+00
  1.716565e+01    1.644497e+00
  1.718153e+01    1.646501e+00
  1.719740e+01    1.643724e+00
  1.721328e+01    1.641520e+00
  1.722915e+01    1.629364e+00
  1.724503e+01    1.609866e+00
  1.726091e+01    1.628747e+00
  1.727678e+01    1.599488e+00
  1.729266e+01    1.579201e+00
  1.730853e+01    1.608395e+00
  1.732441e+01    1.594794e+00
  1.734028e+01    1.588263e+00
  1.735616e+01    1.571019e+00
  1.737203e+01    1.591882e+00
  1.738791e+01    1.613895e+00
  1.740379e+01    1.611560e+00
  1.741966e+01    1.592032e+00
  1.743554e+01    1.560948e+00
  1.745141e+01    1.533131e+00
  1.746729e+01    1.544745e+00
  1.748316e+01    1.547229e+00
  1.749904e+01    1.548330e+00
  1.751491e+01    1.542157e+00
  1.753079e+01    1.572581e+00
  1.754667e+01    1.541898e+00
  1.756254e+01    1.556461e+00
  1.757842e+01    1.536778e+00
  1.759429e+01    1.534780e+00
  1.761017e+01    1.569298e+00
  1.762604e+01    1.536620e+00
  1.764192e+01    1.587105e+00
  1.765779e+01    1.600680e+00
  1.767367e+01    1.535320e+00
  1.768955e+01    1.538919e+00
  1.770542e+01    1.536143e+00
  1.772130e+01    1.525505e+00
  1.773717e+01    1.524236e+00
  1.775305e+01    1.514961e+00
  1.776892e+01    1.549278e+00
  1.778480e+01    1.571903e+00
  1.780067e+01    1.537789e+00
  1.781655e+01    1.528545e+00
  1.783243e+01    1.519765e+00
  1.784830e+01    1.524057e+00
  1.786418e+01    1.505197e+00
  1.788005e+01    1.513835e+00
  1.789593e+01    1.529602e+00
  1.791180e+01    1.526868e+00
  1.792768e+01    1.525184e+00
  1.794355e+01    1.505974e+00
  1.795943e+01    1.517052e+00
  1.797531e+01    1.528401e+00
  1.799118e+01    1.528282e+00
  1.800706e+01    1.483849e+00
  1.802293e+01    1.516556e+00
  1.803881e+01    1.507965e+00
  1.805468e+01    1.500149e+00
  1.807056e+01    1.487811e+00
  1.808643e+01    1.487937e+00
  1.810231e+01    1.512033e+00
  1.811819e+01    1.492559e+00
  1.813406e+01    1.457172e+00
  1.814994e+01    1.476682e+00
  1.816581e+01    1.475053e+00
  1.818169e+01    1.482674e+00
  1.819756e+01    1.450298e+00
  1.821344e+01    1.464942e+00
  1.822932e+01    1.464611e+00
  1.824519e+01    1.447143e+00
  1.826107e+01    1.452343e+00
  1.827694e+01    1.465204e+00
  1.829282e+01    1.478783e+00
  1.830869e+01    1.472035e+00
  1.832457e+01    1.481738e+00
  1.834044e+01    1.469455e+00
  1.835632e+01    1.438457e+00
  1.837220e+01    1.458290e+00
  1.838807e+01    1.471668e+00
  1.840395e+01    1.458262e+00
  1.841982e+01    1.418040e+00
  1.843570e+01    1.422612e+00
  1.845157e+01    1.429674e+00
  1.846745e+01    1.474651e+00
  1.848332e+01    1.451174e+00
  1.849920e+01    1.428195e+00
  1.851508e+01    1.433885e+00
  1.853095e+01    1.423742e+00
  1.854683e+01    1.426121e+00
  1.856270e+01    1.408765e+00
  1.857858e+01    1.430065e+00
  1.859445e+01    1.441912e+00
  1.861033e+01    1.408587e+00
  1.862620e+01    1.398177e+00
  1.864208e+01    1.411064e+00
  1.865796e+01    1.409334e+00
  1.867383e+01    1.412180e+00
  1.868971e+01    1.399220e+00
  1.870558e+01    1.400354e+00
  1.872146e+01    1.393879e+00
  1.873733e+01    1.388680e+00
  1.875321e+01    1.386691e+00
  1.876908e+01    1.385357e+00
  1.878496e+01    1.379773e+00
  1.880084e+01    1.377775e+00
  1.881671e+01    1.376242e+00
  1.883259e+01    1.411978e+00
  1.884846e+01    1.393444e+00
  1.886434e+01    1.382078e+00
  1.888021e+01    1.379217e+00
  1.889609e+01    1.420491e+00
  1.891196e+01    1.411341e+00
  1.892784e+01    1.421394e+00
  1.894372e+01    1.422915e+00
  1.895959e+01    1.416057e+00
  1.897547e+01    1.392558e+00
  1.899134e+01    1.382546e+00
  1.900722e+01    1.356513e+00
  1.902309e+01    1.358205e+00
  1.903897e+01    1.346950e+00
  1.905484e+01    1.342569e+00
  1.907072e+01    1.379098e+00
  1.908660e+01    1.354977e+00
  1.910247e+01    1.359344e+00
  1.911835e+01    1.337308e+00
  1.913422e+01    1.357751e+00
  1.915010e+01    1.338346e+00
  1.916597e+01    1.325199e+00
  1.918185e+01    1.334155e+00
  1.919773e+01    1.347052e+00
  1.921360e+01    1.352272e+00
  1.922948e+01    1.346929e+00
  1.924535e+01    1.378440e+00
  1.926123e+01    1.357284e+00
  1.927710e+01    1.332273e+00
  1.929298e+01    1.318140e+00
  1.930885e+01    1.341083e+00
  1.932473e+01    1.363860e+00
  1.934061e+01    1.362591e+00
  1.935648e+01    1.336564e+00
  1.937236e+01    1.305565e+00
  1.938823e+01    1.310880e+00
  1.940411e+01    1.324081e+00
  1.941998e+01    1.315351e+00
  1.943586e+01    1.319153e+00
  1.945173e+01    1.326431e+00
  1.946761e+01    1.335118e+00
  1.948349e+01    1.310150e+00
  1.949936e+01    1.317098e+00
  1.951524e+01    1.332566e+00
  1.953111e+01    1.306418e+00
  1.954699e+01    1.309582e+00
  1.956286e+01    1.313088e+00
  1.957874e+01    1.306621e+00
  1.959461e+01    1.323772e+00
  1.961049e+01    1.314997e+00
  1.962637e+01    1.297112e+00
  1.964224e+01    1.305467e+00
  1.965812e+01    1.306301e+00
  1.967399e+01    1.295628e+00
  1.968987e+01    1.306471e+00
  1.970574e+01    1.301080e+00
  1.972162e+01    1.296086e+00
  1.973749e+01    1.290030e+00
  1.975337e+01    1.274012e+00
  1.976925e+01    1.305766e+00
  1.978512e+01    1.306412e+00
  1.980100e+01    1.297051e+00
  1.981687e+01    1.287784e+00
  1.983275e+01    1.292074e+00
  1.984862e+01    1.260538e+00
  1.986450e+01    1.311599e+00
  1.988037e+01    1.296704e+00
  1.989625e+01    1.303145e+00
  1.991213e+01    1.285551e+00
  1.992800e+01    1.270324e+00
  1.994388e+01    1.265172e+00
  1.995975e+01    1.242437e+00
  1.997563e+01    1.259328e+00
  1.999150e+01    1.248798e+00
  2.000738e+01    1.262491e+00
  2.002325e+01    1.264070e+00
  2.003913e+01    1.272974e+00
  2.005501e+01    1.267390e+00
  2.007088e+01    1.286575e+00
  2.008676e+01    1.269258e+00
  2.010263e+01    1.268229e+00
  2.011851e+01    1.262569e+00
  2.013438e+01    1.273644e+00
  2.015026e+01    1.259141e+00
  2.016614e+01    1.243067e+00
  2.018201e+01    1.225366e+00
  2.019789e+01    1.238916e+00
  2.021376e+01    1.259394e+00
  2.022964e+01    1.276163e+00
  2.024551e+01    1.216119e+00
  2.026139e+01    1.224067e+00
  2.027726e+01    1.239720e+00
  2.029314e+01    1.253203e+00
  2.030902e+01    1.240005e+00
  2.032489e+01    1.219859e+00
  2.034077e+01    1.226635e+00
  2.035664e+01    1.249699e+00
  2.037252e+01    1.234086e+00
  2.038839e+01    1.221007e+00
  2.040427e+01    1.219920e+00
  2.042014e+01    1.241473e+00
  2.043602e+01    1.238138e+00
  2.045190e+01    1.220987e+00
  2.046777e+01    1.232210e+00
  2.048365e+01    1.211199e+00
  2.049952e+01    1.210589e+00
  2.051540e+01    1.206795e+00
  2.053127e+01    1.228990e+00
  2.054715e+01    1.215335e+00
  2.056302e+01    1.205204e+00
  2.057890e+01    1.206186e+00
  2.059478e+01    1.231647e+00
  2.061065e+01    1.218313e+00
  2.062653e+01    1.230256e+00
  2.064240e+01    1.215078e+00
  2.065828e+01    1.221075e+00
  2.067415e+01    1.233052e+00
  2.069003e+01    1.239712e+00
  2.070590e+01    1.228210e+00
  2.072178e+01    1.226142e+00
  2.073766e+01    1.229071e+00
  2.075353e+01    1.217126e+00
  2.076941e+01    1.239372e+00
  2.078528e+01    1.215237e+00
  2.080116e+01    1.228684e+00
  2.081703e+01    1.226322e+00
  2.083291e+01    1.206057e+00
  2.084878e+01    1.203464e+00
  2.086466e+01    1.218801e+00
  2.088054e+01    1.242853e+00
  2.089641e+01    1.212926e+00
  2.091229e+01    1.216101e+00
  2.092816e+01    1.236679e+00
  2.094404e+01    1.221159e+00
  2.095991e+01    1.215695e+00
  2.097579e+01    1.233317e+00
  2.099166e+01    1.238370e+00
  2.100754e+01    1.210574e+00
  2.102342e+01    1.204010e+00
  2.103929e+01    1.227185e+00
  2.105517e+01    1.191482e+00
  2.107104e+01    1.206245e+00
  2.108692e+01    1.209477e+00
  2.110279e+01    1.212444e+00
  2.111867e+01    1.235053e+00
  2.113455e+01    1.239275e+00
  2.115042e+01    1.228657e+00
  2.116630e+01    1.220769e+00
  2.118217e+01    1.236401e+00
  2.119805e+01    1.253061e+00
  2.121392e+01    1.231342e+00
  2.122980e+01    1.204169e+00
  2.124567e+01    1.232620e+00
  2.126155e+01    1.239480e+00
  2.127743e+01    1.280243e+00
  2.129330e+01    1.260586e+00
  2.130918e+01    1.274006e+00
  2.132505e+01    1.282207e+00
  2.134093e+01    1.282741e+00
  2.135680e+01    1.298035e+00
  2.137268e+01    1.273585e+00
  2.138855e+01    1.277352e+00
  2.140443e+01    1.300034e+00
  2.142031e+01    1.313048e+00
  2.143618e+01    1.335363e+00
  2.145206e+01    1.332499e+00
  2.146793e+01    1.358360e+00
  2.148381e+01    1.372816e+00
  2.149968e+01    1.378679e+00
  2.151556e+01    1.402626e+00
  2.153143e+01    1.474781e+00
  2.154731e+01    1.493643e+00
  2.156319e+01    1.531535e+00
  2.157906e+01    1.594895e+00
  2.159494e+01    1.629348e+00
  2.161081e+01    1.720077e+00
  2.162669e+01    1.830842e+00
  2.164256e+01    1.948091e+00
  2.165844e+01    2.074952e+00
  2.167431e+01    2.263088e+00
  2.169019e+01    2.439539e+00
  2.170607e+01    2.719420e+00
  2.172194e+01    3.048068e+00
  2.173782e+01    3.448295e+00
  2.175369e+01    3.922512e+00
  2.176957e+01    4.513162e+00
  2.178544e+01    5.075792e+00
  2.180132e+01    5.643758e+00
  2.181719e+01    6.375078e+00
  2.183307e+01    7.071244e+00
  2.184895e+01    7.669938e+00
  2.186482e+01    8.235377e+00
  2.188070e+01    8.622765e+00
  2.189657e+01    8.751506e+00
  2.191245e+01    8.635060e+00
  2.192832e+01    8.191218e+00
  2.194420e+01    7.357787e+00
  2.196007e+01    6.542292e+00
  2.197595e+01    5.586092e+00
  2.199183e+01    4.814767e+00
  2.200770e+01    4.116675e+00
  2.202358e+01    3.560888e+00
  2.203945e+01    3.161661e+00
  2.205533e+01    2.845778e+00
  2.207120e+01    2.545624e+00
  2.208708e+01    2.305485e+00
  2.210296e+01    2.113642e+00
  2.211883e+01    1.985663e+00
  2.213471e+01    1.864796e+00
  2.215058e+01    1.754608e+00
  2.216646e+01    1.654458e+00
  2.218233e+01    1.601149e+00
  2.219821e+01    1.528795e+00
  2.221408e+01    1.475744e+00
  2.222996e+01    1.463598e+00
  2.224584e+01    1.414874e+00
  2.226171e+01    1.377090e+00
  2.227759e+01    1.333024e+00
  2.229346e+01    1.308279e+00
  2.230934e+01    1.310321e+00
  2.232521e+01    1.261434e+00
  2.234109e+01    1.225730e+00
  2.235696e+01    1.215544e+00
  2.237284e+01    1.207985e+00
  2.238872e+01    1.198092e+00
  2.240459e+01    1.190681e+00
  2.242047e+01    1.184204e+00
  2.243634e+01    1.168004e+00
  2.245222e+01    1.145067e+00
  2.246809e+01    1.148034e+00
  2.248397e+01    1.175286e+00
  2.249984e+01    1.174932e+00
  2.251572e+01    1.148995e+00
  2.253160e+01    1.136508e+00
  2.254747e+01    1.142177e+00
  2.256335e+01    1.146059e+00
  2.257922e+01    1.097366e+00
  2.259510e+01    1.092368e+00
  2.261097e+01    1.103064e+00
  2.262685e+01    1.101923e+00
  2.264272e+01    1.097204e+00
  2.265860e+01    1.095860e+00
  2.267448e+01    1.080790e+00
  2.269035e+01    1.047202e+00
  2.270623e+01    1.053476e+00
  2.272210e+01    1.045920e+00
  2.273798e+01    1.039744e+00
  2.275385e+01    1.044419e+00
  2.276973e+01    1.039316e+00
  2.278560e+01    1.055841e+00
  2.280148e+01    1.049267e+00
  2.281736e+01    1.032179e+00
  2.283323e+01    1.019303e+00
  2.284911e+01    1.031983e+00
  2.286498e+01    1.028399e+00
  2.288086e+01    1.042779e+00
  2.289673e+01    1.041447e+00
  2.291261e+01    1.017991e+00
  2.292848e+01    1.009296e+00
  2.294436e+01    1.018273e+00
  2.296024e+01    1.010714e+00
  2.297611e+01    1.019321e+00
  2.299199e+01    1.018257e+00
  2.300786e+01    1.009864e+00
  2.302374e+01    1.021180e+00
  2.303961e+01    9.974399e-01
  2.305549e+01    1.012516e+00
  2.307137e+01    1.012914e+00
  2.308724e+01    1.003522e+00
  2.310312e+01    1.002631e+00
  2.311899e+01    9.896737e-01
  2.313487e+01    9.930474e-01
  2.315074e+01    9.907578e-01
  2.316662e+01    1.002117e+00
  2.318249e+01    9.857163e-01
  2.319837e+01    9.913819e-01
  2.321425e+01    9.729007e-01
  2.323012e+01    9.586720e-01
  2.324600e+01    9.872532e-01
  2.326187e+01    1.005310e+00
  2.327775e+01    9.938766e-01
  2.329362e+01    9.780122e-01
  2.330950e+01    9.627305e-01
  2.332537e+01    9.693678e-01
  2.334125e+01    1.001469e+00
  2.335713e+01    9.885752e-01
  2.337300e+01    9.624439e-01
  2.338888e+01    9.583892e-01
  2.340475e+01    9.769803e-01
  2.342063e+01    9.816921e-01
  2.343650e+01    9.665319e-01
  2.345238e+01    9.534698e-01
  2.346825e+01    9.580316e-01
  2.348413e+01    9.801399e-01
  2.350001e+01    9.821900e-01
  2.351588e+01    9.724790e-01
  2.353176e+01    9.606528e-01
  2.354763e+01    9.486178e-01
  2.356351e+01    9.483600e-01
  2.357938e+01    9.468645e-01
  2.359526e+01    9.616112e-01
  2.361113e+01    9.588187e-01
  2.362701e+01    9.655819e-01
  2.364289e+01    9.604774e-01
  2.365876e+01    9.443914e-01
  2.367464e+01    9.317068e-01
  2.369051e+01    9.397739e-01
  2.370639e+01    9.267943e-01
  2.372226e+01    9.222707e-01
  2.373814e+01    9.204481e-01
  2.375401e+01    9.379497e-01
  2.376989e+01    9.439655e-01
  2.378577e+01    9.373477e-01
  2.380164e+01    9.171633e-01
  2.381752e+01    8.949201e-01
  2.383339e+01    8.935193e-01
  2.384927e+01    8.929741e-01
  2.386514e+01    9.130577e-01
  2.388102e+01    8.862056e-01
  2.389689e+01    8.681037e-01
  2.391277e+01    9.029104e-01
  2.392865e+01    9.125379e-01
  2.394452e+01    8.934646e-01
  2.396040e+01    8.883760e-01
  2.397627e+01    8.917554e-01
  2.399215e+01    8.832566e-01
  2.400802e+01    8.955449e-01
  2.402390e+01    8.796763e-01
  2.403978e+01    8.856443e-01
  2.405565e+01    8.952107e-01
  2.407153e+01    8.937473e-01
  2.408740e+01    8.857949e-01
  2.410328e+01    8.685877e-01
  2.411915e+01    8.848684e-01
  2.413503e+01    8.959430e-01
  2.415090e+01    8.616583e-01
  2.416678e+01    8.538412e-01
  2.418266e+01    8.662214e-01
  2.419853e+01    8.625531e-01
  2.421441e+01    8.766934e-01
  2.423028e+01    8.664659e-01
  2.424616e+01    8.676665e-01
  2.426203e+01    8.944530e-01
  2.427791e+01    8.885788e-01
  2.429378e+01    8.863030e-01
  2.430966e+01    8.707486e-01
  2.432554e+01    8.777748e-01
  2.434141e+01    8.840158e-01
  2.435729e+01    8.741720e-01
  2.437316e+01    8.807806e-01
  2.438904e+01    8.778684e-01
  2.440491e+01    8.683535e-01
  2.442079e+01    8.892349e-01
  2.443666e+01    9.012579e-01
  2.445254e+01    9.027258e-01
  2.446842e+01    9.209458e-01
  2.448429e+01    9.059572e-01
  2.450017e+01    8.635781e-01
  2.451604e+01    8.713423e-01
  2.453192e+01    8.966483e-01
  2.454779e+01    8.989856e-01
  2.456367e+01    8.797340e-01
  2.457954e+01    8.858238e-01
  2.459542e+01    8.816279e-01
  2.461130e+01    8.729641e-01
  2.462717e+01    8.782437e-01
  2.464305e+01    8.937482e-01
  2.465892e+01    8.909020e-01
  2.467480e+01    8.895268e-01
  2.469067e+01    8.683420e-01
  2.470655e+01    8.849915e-01
  2.472242e+01    8.882961e-01
  2.473830e+01    8.726675e-01
  2.475418e+01    8.690363e-01
  2.477005e+01    8.757200e-01
  2.478593e+01    8.776062e-01
  2.480180e+01    8.916366e-01
  2.481768e+01    8.900681e-01
  2.483355e+01    8.737481e-01
  2.484943e+01    8.847723e-01
  2.486530e+01    8.991587e-01
  2.488118e+01    8.842576e-01
  2.489706e+01    8.809275e-01
  2.491293e+01    8.717214e-01
  2.492881e+01    8.812106e-01
  2.494468e+01    8.730549e-01
  2.496056e+01    8.660607e-01
  2.497643e+01    8.878754e-01
  2.499231e+01    8.904168e-01
  2.500819e+01    8.805985e-01
  2.502406e+01    8.952578e-01
  2.503994e+01    8.944772e-01
  2.505581e+01    8.895898e-01
  2.507169e+01    8.882788e-01
  2.508756e+01    8.940529e-01
  2.510344e+01    8.988501e-01
  2.511931e+01    8.879457e-01
  2.513519e+01    8.854772e-01
  2.515107e+01    8.927208e-01
  2.516694e+01    8.911961e-01
  2.518282e+01    9.061288e-01
  2.519869e+01    9.115121e-01
  2.521457e+01    9.042803e-01
  2.523044e+01    9.246051e-01
  2.524632e+01    9.288976e-01
  2.526219e+01    9.304000e-01
  2.527807e+01    9.351099e-01
  2.529395e+01    9.343671e-01
  2.530982e+01    9.326584e-01
  2.532570e+01    9.544089e-01
  2.534157e+01    9.554078e-01
  2.535745e+01    9.747579e-01
  2.537332e+01    9.806269e-01
  2.538920e+01    9.800413e-01
  2.540507e+01    9.778728e-01
  2.542095e+01    9.847391e-01
  2.543683e+01    9.835411e-01
  2.545270e+01    1.004506e+00
  2.546858e+01    1.017345e+00
  2.548445e+01    1.032890e+00
  2.550033e+01    1.038414e+00
  2.551620e+01    1.056532e+00
  2.553208e+01    1.050146e+00
  2.554795e+01    1.090241e+00
  2.556383e+01    1.115580e+00
  2.557971e+01    1.143393e+00
  2.559558e+01    1.187136e+00
  2.561146e+01    1.205574e+00
  2.562733e+01    1.219041e+00
  2.564321e+01    1.292900e+00
  2.565908e+01    1.334785e+00
  2.567496e+01    1.385134e+00
  2.569083e+01    1.488199e+00
  2.570671e+01    1.580011e+00
  2.572259e+01    1.703750e+00
  2.573846e+01    1.811116e+00
  2.575434e+01    1.979233e+00
  2.577021e+01    2.198347e+00
  2.578609e+01    2.481491e+00
  2.580196e+01    2.750794e+00
  2.581784e+01    3.134510e+00
  2.583371e+01    3.595045e+00
  2.584959e+01    4.050119e+00
  2.586547e+01    4.592179e+00
  2.588134e+01    5.132214e+00
  2.589722e+01    5.717942e+00
  2.591309e+01    6.251659e+00
  2.592897e+01    6.690811e+00
  2.594484e+01    6.974488e+00
  2.596072e+01    6.995106e+00
  2.597660e+01    6.859654e+00
  2.599247e+01    6.499920e+00
  2.600835e+01    5.907042e+00
  2.602422e+01    5.280535e+00
  2.604010e+01    4.576875e+00
  2.605597e+01    3.902596e+00
  2.607185e+01    3.358849e+00
  2.608772e+01    2.974906e+00
  2.610360e+01    2.632371e+00
  2.611948e+01    2.341702e+00
  2.613535e+01    2.130066e+00
  2.615123e+01    1.930757e+00
  2.616710e+01    1.777720e+00
  2.618298e+01    1.640901e+00
  2.619885e+01    1.546786e+00
  2.621473e+01    1.499250e+00
  2.623060e+01    1.402439e+00
  2.624648e+01    1.334594e+00
  2.626236e+01    1.289111e+00
  2.627823e+01    1.233387e+00
  2.629411e+01    1.191935e+00
  2.630998e+01    1.162345e+00
  2.632586e+01    1.152595e+00
  2.634173e+01    1.115371e+00
  2.635761e+01    1.078258e+00
  2.637348e+01    1.056610e+00
  2.638936e+01    1.042644e+00
  2.640524e+01    1.022434e+00
  2.642111e+01    1.015965e+00
  2.643699e+01    9.934189e-01
  2.645286e+01    9.989348e-01
  2.646874e+01    9.860739e-01
  2.648461e+01    9.960939e-01
  2.650049e+01    9.888517e-01
  2.651636e+01    9.814746e-01
  2.653224e+01    9.827806e-01
  2.654812e+01    9.921671e-01
  2.656399e+01    9.701656e-01
  2.657987e+01    9.615145e-01
  2.659574e+01    9.728190e-01
  2.661162e+01    9.643208e-01
  2.662749e+01    9.835758e-01
  2.664337e+01    9.740763e-01
  2.665924e+01    9.689298e-01
  2.667512e+01    9.400029e-01
  2.669100e+01    9.535162e-01
  2.670687e+01    9.301222e-01
  2.672275e+01    9.342582e-01
  2.673862e+01    9.466563e-01
  2.675450e+01    9.640318e-01
  2.677037e+01    9.657419e-01
  2.678625e+01    9.622477e-01
  2.680212e+01    9.592974e-01
  2.681800e+01    9.677137e-01
  2.683388e+01    9.594275e-01
  2.684975e+01    9.550473e-01
  2.686563e+01    9.704798e-01
  2.688150e+01    9.767225e-01
  2.689738e+01    9.727720e-01
  2.691325e+01    9.775210e-01
  2.692913e+01    1.009974e+00
  2.694501e+01    1.033540e+00
  2.696088e+01    1.026549e+00
  2.697676e+01    1.050238e+00
  2.699263e+01    1.074288e+00
  2.700851e+01    1.100954e+00
  2.702438e+01    1.130209e+00
  2.704026e+01    1.192394e+00
  2.705613e+01    1.246361e+00
  2.707201e+01    1.293509e+00
  2.708789e+01    1.346033e+00
  2.710376e+01    1.453028e+00
  2.711964e+01    1.592039e+00
  2.713551e+01    1.675099e+00
  2.715139e+01    1.827201e+00
  2.716726e+01    1.931839e+00
  2.718314e+01    2.060256e+00
  2.719901e+01    2.163682e+00
  2.721489e+01    2.177713e+00
  2.723077e+01    2.111880e+00
  2.724664e+01    2.017408e+00
  2.726252e+01    1.900717e+00
  2.727839e+01    1.796955e+00
  2.729427e+01    1.651117e+00
  2.731014e+01    1.556755e+00
  2.732602e+01    1.443407e+00
  2.734189e+01    1.349145e+00
  2.735777e+01    1.267161e+00
  2.737365e+01    1.203273e+00
  2.738952e+01    1.145153e+00
  2.740540e+01    1.094075e+00
  2.742127e+01    1.065136e+00
  2.743715e+01    1.038351e+00
  2.745302e+01    1.027065e+00
  2.746890e+01    1.017788e+00
  2.748477e+01    9.922605e-01
  2.750065e+01    9.821634e-01
  2.751653e+01    9.947353e-01
  2.753240e+01    9.619540e-01
  2.754828e+01    9.536211e-01
  2.756415e+01    9.478777e-01
  2.758003e+01    9.364150e-01
  2.759590e+01    9.158359e-01
  2.761178e+01    9.003283e-01
  2.762765e+01    9.081323e-01
  2.764353e+01    9.087526e-01
  2.765941e+01    9.058156e-01
  2.767528e+01    8.896974e-01
  2.769116e+01    8.812413e-01
  2.770703e+01    8.923320e-01
  2.772291e+01    9.136295e-01
  2.773878e+01    9.010593e-01
  2.775466e+01    8.812137e-01
  2.777054e+01    8.736007e-01
  2.778641e+01    9.067558e-01
  2.780229e+01    8.910195e-01
  2.781816e+01    8.722800e-01
  2.783404e+01    8.616000e-01
  2.784991e+01    8.623859e-01
  2.786579e+01    8.817176e-01
  2.788166e+01    8.529823e-01
  2.789754e+01    8.591976e-01
  2.791342e+01    8.648694e-01
  2.792929e+01    8.771287e-01
  2.794517e+01    8.850908e-01
  2.796104e+01    8.530392e-01
  2.797692e+01    8.368043e-01
  2.799279e+01    8.562825e-01
  2.800867e+01    8.501764e-01
  2.802454e+01    8.632404e-01
  2.804042e+01    8.566805e-01
  2.805630e+01    8.646967e-01
  2.807217e+01    8.433583e-01
  2.808805e+01    8.404943e-01
  2.810392e+01    8.545332e-01
  2.811980e+01    8.409259e-01
  2.813567e+01    8.619109e-01
  2.815155e+01    8.560949e-01
  2.816742e+01    8.560487e-01
  2.818330e+01    8.459372e-01
  2.819918e+01    8.497918e-01
  2.821505e+01    8.426273e-01
  2.823093e+01    8.558113e-01
  2.824680e+01    8.591406e-01
  2.826268e+01    8.585966e-01
  2.827855e+01    8.623929e-01
  2.829443e+01    8.453535e-01
  2.831030e+01    8.261623e-01
  2.832618e+01    8.154239e-01
  2.834206e+01    8.207225e-01
  2.835793e+01    8.626120e-01
  2.837381e+01    8.500662e-01
  2.838968e+01    8.520668e-01
  2.840556e+01    8.379400e-01
  2.842143e+01    8.193498e-01
  2.843731e+01    8.365154e-01
  2.845318e+01    8.370876e-01
  2.846906e+01    8.472149e-01
  2.848494e+01    8.463861e-01
  2.850081e+01    8.345684e-01
  2.851669e+01    8.149136e-01
  2.853256e+01    8.308578e-01
  2.854844e+01    8.196455e-01
  2.856431e+01    8.279876e-01
  2.858019e+01    8.342847e-01
  2.859606e+01    8.420466e-01
  2.861194e+01    8.536979e-01
  2.862782e+01    8.311538e-01
  2.864369e+01    8.073863e-01
  2.865957e+01    8.177493e-01
  2.867544e+01    8.132076e-01
  2.869132e+01    8.195272e-01
  2.870719e+01    8.264773e-01
  2.872307e+01    8.234625e-01
  2.873895e+01    8.082799e-01
  2.875482e+01    8.253636e-01
  2.877070e+01    8.317912e-01
  2.878657e+01    8.211037e-01
  2.880245e+01    8.104581e-01
  2.881832e+01    8.166376e-01
  2.883420e+01    8.155541e-01
  2.885007e+01    8.050487e-01
  2.886595e+01    8.345473e-01
  2.888183e+01    8.239765e-01
  2.889770e+01    8.274399e-01
  2.891358e+01    8.276896e-01
  2.892945e+01    8.334113e-01
  2.894533e+01    8.186667e-01
  2.896120e+01    8.039323e-01
  2.897708e+01    8.237262e-01
  2.899295e+01    8.179697e-01
  2.900883e+01    8.145997e-01
  2.902471e+01    7.925961e-01
  2.904058e+01    8.048060e-01
  2.905646e+01    8.426476e-01
  2.907233e+01    8.173507e-01
  2.908821e+01    8.084837e-01
  2.910408e+01    7.996187e-01
  2.911996e+01    8.176318e-01
  2.913583e+01    8.097759e-01
  2.915171e+01    8.187490e-01
  2.916759e+01    8.137184e-01
  2.918346e+01    7.981600e-01
  2.919934e+01    8.128228e-01
  2.921521e+01    8.245465e-01
  2.923109e+01    8.200871e-01
  2.924696e+01    8.089294e-01
  2.926284e+01    8.064535e-01
  2.927871e+01    7.969141e-01
  2.929459e+01    7.793397e-01
  2.931047e+01    7.985662e-01
  2.932634e+01    7.954298e-01
  2.934222e+01    7.997735e-01
  2.935809e+01    8.138200e-01
  2.937397e+01    7.999176e-01
  2.938984e+01    8.111879e-01
  2.940572e+01    7.961869e-01
  2.942159e+01    7.910967e-01
  2.943747e+01    7.888426e-01
  2.945335e+01    7.998354e-01
  2.946922e+01    7.892905e-01
  2.948510e+01    8.194705e-01
  2.950097e+01    7.949086e-01
  2.951685e+01    7.838240e-01
  2.953272e+01    7.699563e-01
  2.954860e+01    7.916343e-01
  2.956447e+01    8.043478e-01
  2.958035e+01    7.776890e-01
  2.959623e+01    7.850966e-01
  2.961210e+01    7.791917e-01
  2.962798e+01    8.010753e-01
  2.964385e+01    7.764128e-01
  2.965973e+01    7.964912e-01
  2.967560e+01    7.694761e-01
  2.969148e+01    7.830860e-01
  2.970736e+01    7.697975e-01
  2.972323e+01    8.013608e-01
  2.973911e+01    8.063470e-01
  2.975498e+01    7.693007e-01
  2.977086e+01    7.742988e-01
  2.978673e+01    7.839909e-01
  2.980261e+01    8.153331e-01
  2.981848e+01    7.834634e-01
  2.983436e+01    7.865033e-01
  2.985024e+01    7.941183e-01
  2.986611e+01    7.964338e-01
  2.988199e+01    7.883030e-01
  2.989786e+01    7.875333e-01
  2.991374e+01    7.870735e-01
  2.992961e+01    7.925501e-01
  2.994549e+01    8.047860e-01
  2.996136e+01    8.069176e-01
  2.997724e+01    8.001962e-01
  2.999312e+01    8.046921e-01
  3.000899e+01    7.794428e-01
  3.002487e+01    8.024971e-01
  3.004074e+01    8.253624e-01
  3.005662e+01    8.006824e-01
  3.007249e+01    7.992387e-01
  3.008837e+01    7.965478e-01
  3.010424e+01    7.846046e-01
  3.012012e+01    7.845533e-01
  3.013600e+01    8.009246e-01
  3.015187e+01    7.928296e-01
  3.016775e+01    7.729964e-01
  3.018362e+01    7.839559e-01
  3.019950e+01    7.919638e-01
  3.021537e+01    7.976491e-01
  3.023125e+01    7.703704e-01
  3.024712e+01    7.806318e-01
  3.026300e+01    7.738304e-01
  3.027888e+01    7.777565e-01
  3.029475e+01    7.798778e-01
  3.031063e+01    7.656651e-01
  3.032650e+01    7.671508e-01
  3.034238e+01    7.775289e-01
  3.035825e+01    7.590592e-01
  3.037413e+01    7.722701e-01
  3.039000e+01    7.835355e-01
  3.040588e+01    7.929971e-01
  3.042176e+01    7.883886e-01
  3.043763e+01    7.809493e-01
  3.045351e+01    7.665801e-01
  3.046938e+01    7.840956e-01
  3.048526e+01    7.784158e-01
  3.050113e+01    7.756076e-01
  3.051701e+01    7.754881e-01
  3.053288e+01    7.651260e-01
  3.054876e+01    7.873874e-01
  3.056464e+01    7.881391e-01
  3.058051e+01    7.753929e-01
  3.059639e+01    7.791911e-01
  3.061226e+01    7.884098e-01
  3.062814e+01    7.770373e-01
  3.064401e+01    7.686660e-01
  3.065989e+01    8.025866e-01
  3.067577e+01    7.913910e-01
  3.069164e+01    7.773356e-01
  3.070752e+01    7.858834e-01
  3.072339e+01    7.831246e-01
  3.073927e+01    7.730319e-01
  3.075514e+01    7.665107e-01
  3.077102e+01    7.744500e-01
  3.078689e+01    7.733876e-01
  3.080277e+01    7.743296e-01
  3.081865e+01    7.866274e-01
  3.083452e+01    7.821237e-01
  3.085040e+01    7.954752e-01
  3.086627e+01    7.880974e-01
  3.088215e+01    7.861565e-01
  3.089802e+01    7.653196e-01
  3.091390e+01    7.753299e-01
  3.092977e+01    7.906012e-01
  3.094565e+01    7.941398e-01
  3.096153e+01    7.983543e-01
  3.097740e+01    7.764496e-01
  3.099328e+01    7.866552e-01
  3.100915e+01    7.778060e-01
  3.102503e+01    8.013462e-01
  3.104090e+01    7.917780e-01
  3.105678e+01    7.766855e-01
  3.107265e+01    7.779123e-01
  3.108853e+01    7.700004e-01
  3.110441e+01    7.802876e-01
  3.112028e+01    7.886530e-01
  3.113616e+01    7.636259e-01
  3.115203e+01    7.865292e-01
  3.116791e+01    7.679483e-01
  3.118378e+01    7.564833e-01
  3.119966e+01    7.643953e-01
  3.121553e+01    7.708949e-01
  3.123141e+01    7.868388e-01
  3.124729e+01    7.927417e-01
  3.126316e+01    7.901001e-01
  3.127904e+01    7.868797e-01
  3.129491e+01    7.729754e-01
  3.131079e+01    7.754611e-01
  3.132666e+01    7.971137e-01
  3.134254e+01    7.873998e-01
  3.135841e+01    7.815651e-01
  3.137429e+01    7.923928e-01
  3.139017e+01    7.791719e-01
  3.140604e+01    7.745776e-01
  3.142192e+01    7.668978e-01
  3.143779e+01    7.986185e-01
  3.145367e+01    8.025633e-01
  3.146954e+01    8.163540e-01
  3.148542e+01    8.238937e-01
  3.150129e+01    8.271426e-01
  3.151717e+01    7.939718e-01
  3.153305e+01    8.125764e-01
  3.154892e+01    8.506042e-01
  3.156480e+01    8.577087e-01
  3.158067e+01    8.505948e-01
  3.159655e+01    8.379787e-01
  3.161242e+01    8.655785e-01
  3.162830e+01    8.952494e-01
  3.164418e+01    9.016671e-01
  3.166005e+01    9.261898e-01
  3.167593e+01    9.235647e-01
  3.169180e+01    9.706797e-01
  3.170768e+01    1.028243e+00
  3.172355e+01    1.023724e+00
  3.173943e+01    1.117923e+00
  3.175530e+01    1.207326e+00
  3.177118e+01    1.250384e+00
  3.178706e+01    1.329246e+00
  3.180293e+01    1.450694e+00
  3.181881e+01    1.555837e+00
  3.183468e+01    1.648704e+00
  3.185056e+01    1.790252e+00
  3.186643e+01    1.919605e+00
  3.188231e+01    2.032815e+00
  3.189818e+01    2.047497e+00
  3.191406e+01    2.077108e+00
  3.192994e+01    2.035457e+00
  3.194581e+01    1.917993e+00
  3.196169e+01    1.814013e+00
  3.197756e+01    1.692058e+00
  3.199344e+01    1.558328e+00
  3.200931e+01    1.407365e+00
  3.202519e+01    1.302908e+00
  3.204106e+01    1.209108e+00
  3.205694e+01    1.162145e+00
  3.207282e+01    1.094901e+00
  3.208869e+01    1.046593e+00
  3.210457e+01    1.001165e+00
  3.212044e+01    9.777952e-01
  3.213632e+01    9.089879e-01
  3.215219e+01    8.822978e-01
  3.216807e+01    8.941568e-01
  3.218394e+01    8.850240e-01
  3.219982e+01    8.790581e-01
  3.221570e+01    8.682942e-01
  3.223157e+01    8.490178e-01
  3.224745e+01    8.251830e-01
  3.226332e+01    8.228794e-01
  3.227920e+01    8.079070e-01
  3.229507e+01    8.116594e-01
  3.231095e+01    7.915588e-01
  3.232682e+01    8.063236e-01
  3.234270e+01    8.152792e-01
  3.235858e+01    7.981974e-01
  3.237445e+01    7.651164e-01
  3.239033e+01    7.831674e-01
  3.240620e+01    7.662376e-01
  3.242208e+01    7.694542e-01
  3.243795e+01    7.859396e-01
  3.245383e+01    7.965350e-01
  3.246970e+01    7.633918e-01
  3.248558e+01    7.460704e-01
  3.250146e+01    7.571378e-01
  3.251733e+01    7.757156e-01
  3.253321e+01    7.581586e-01
  3.254908e+01    7.746300e-01
