# == pyFAI calibration ==
# Distance Sample to Detector: 0.3999999939076516 m
# PONI: 9.750e-02, 1.135e-01 m
# Rotations: -0.000175 0.000000 -0.000000 rad
# 
# == Fit2d calibration ==
# Distance Sample-beamCenter: 400.000 mm
# Center: x=1514.000, y=1300.000 pix
# Tilt: 0.010 deg  TiltPlanRot: 0.010 deg
# 
# Detector Detector	 Spline= None	 PixelSize= 7.500e-05, 7.500e-05 m
#    Detector has a mask: False 
#    Detector has a dark current: False 
#    detector has a flat field: False 
# 
# Wavelength: 6.888e-11 m
# Mask applied: user provided
# Dark current applied: False
# Flat field applied: False
# Polarization factor: 0.99
# Normalization factor: 1.0
# --> /home/myspot/data/2024_07_Rosario/Ru-CGO-ex/2024-07-27_003_Ru-CGO-ex_Reaction_dwell_000023_data_000181.dat
#       q_nm^-1             I 
  2.003187e-02    0.000000e+00
  3.590745e-02    7.159866e-02
  5.178302e-02    1.237100e-01
  6.765859e-02    1.982143e-01
  8.353417e-02    1.849074e-01
  9.940974e-02    1.399266e-01
  1.152853e-01    6.977080e-02
  1.311609e-01    6.151725e-03
  1.470365e-01    4.617680e-02
  1.629120e-01    2.557321e-02
  1.787876e-01    1.211463e-02
  1.946632e-01    6.003013e-02
  2.105388e-01    1.525594e-02
  2.264143e-01    1.349080e-02
  2.422899e-01    4.517051e-02
  2.581655e-01    8.018862e-02
  2.740411e-01    5.590272e-02
  2.899166e-01    4.443939e-02
  3.057922e-01    5.902468e-02
  3.216678e-01    5.135583e-02
  3.375433e-01    3.061689e-02
  3.534189e-01    1.198593e-02
  3.692945e-01    2.921354e-02
  3.851701e-01    5.185674e-02
  4.010456e-01    7.712968e-02
  4.169212e-01    4.151853e-02
  4.327968e-01    6.621011e-02
  4.486724e-01    5.704179e-02
  4.645479e-01    5.231291e-02
  4.804235e-01    5.726153e-02
  4.962991e-01    3.247860e-02
  5.121747e-01    4.428494e-02
  5.280502e-01    5.249199e-02
  5.439258e-01    3.660026e-02
  5.598014e-01    3.669359e-02
  5.756770e-01    4.598604e-02
  5.915525e-01    3.989075e-02
  6.074281e-01    1.642264e-02
  6.233037e-01    4.824463e-02
  6.391793e-01    8.140198e-02
  6.550548e-01    5.627207e-02
  6.709304e-01    4.047273e-02
  6.868060e-01    4.649093e-02
  7.026815e-01    6.665643e-02
  7.185571e-01    3.930598e-02
  7.344327e-01    1.813413e-02
  7.503083e-01    4.317350e-02
  7.661838e-01    8.832412e-02
  7.820594e-01    1.218749e-01
  7.979350e-01    1.616873e-01
  8.138106e-01    2.987256e-01
  8.296861e-01    3.479142e-01
  8.455617e-01    3.520909e-01
  8.614373e-01    3.810662e-01
  8.773129e-01    4.539446e-01
  8.931884e-01    5.429807e-01
  9.090640e-01    6.859047e-01
  9.249396e-01    7.810995e-01
  9.408152e-01    7.532073e-01
  9.566907e-01    8.584840e-01
  9.725663e-01    9.848723e-01
  9.884419e-01    1.057322e+00
  1.004317e+00    1.137412e+00
  1.020193e+00    1.271086e+00
  1.036069e+00    1.392964e+00
  1.051944e+00    1.491562e+00
  1.067820e+00    1.452654e+00
  1.083695e+00    1.485856e+00
  1.099571e+00    1.490196e+00
  1.115446e+00    1.510152e+00
  1.131322e+00    1.493938e+00
  1.147198e+00    1.658376e+00
  1.163073e+00    1.651013e+00
  1.178949e+00    1.618690e+00
  1.194824e+00    1.840165e+00
  1.210700e+00    2.086920e+00
  1.226575e+00    2.324103e+00
  1.242451e+00    2.342333e+00
  1.258327e+00    2.358873e+00
  1.274202e+00    2.530770e+00
  1.290078e+00    2.446980e+00
  1.305953e+00    2.657773e+00
  1.321829e+00    2.763887e+00
  1.337705e+00    2.830135e+00
  1.353580e+00    2.763796e+00
  1.369456e+00    2.777932e+00
  1.385331e+00    2.819633e+00
  1.401207e+00    2.856958e+00
  1.417082e+00    2.789067e+00
  1.432958e+00    2.903881e+00
  1.448834e+00    2.936162e+00
  1.464709e+00    2.952821e+00
  1.480585e+00    3.132195e+00
  1.496460e+00    3.131714e+00
  1.512336e+00    3.202822e+00
  1.528211e+00    3.110982e+00
  1.544087e+00    3.040631e+00
  1.559963e+00    3.079453e+00
  1.575838e+00    3.159345e+00
  1.591714e+00    3.087872e+00
  1.607589e+00    3.207458e+00
  1.623465e+00    3.142466e+00
  1.639340e+00    3.036708e+00
  1.655216e+00    3.044831e+00
  1.671092e+00    3.091674e+00
  1.686967e+00    3.022684e+00
  1.702843e+00    3.004022e+00
  1.718718e+00    3.046592e+00
  1.734594e+00    3.066463e+00
  1.750469e+00    3.157420e+00
  1.766345e+00    3.129565e+00
  1.782221e+00    3.003555e+00
  1.798096e+00    3.049286e+00
  1.813972e+00    3.073634e+00
  1.829847e+00    3.033679e+00
  1.845723e+00    2.985288e+00
  1.861598e+00    2.909261e+00
  1.877474e+00    3.029191e+00
  1.893350e+00    3.030560e+00
  1.909225e+00    2.950604e+00
  1.925101e+00    3.052207e+00
  1.940976e+00    3.076420e+00
  1.956852e+00    2.982906e+00
  1.972727e+00    2.987292e+00
  1.988603e+00    3.024950e+00
  2.004479e+00    2.908401e+00
  2.020354e+00    3.010035e+00
  2.036230e+00    3.079835e+00
  2.052105e+00    3.098940e+00
  2.067981e+00    3.011798e+00
  2.083856e+00    3.114126e+00
  2.099732e+00    3.028289e+00
  2.115608e+00    3.005008e+00
  2.131483e+00    3.113283e+00
  2.147359e+00    3.030980e+00
  2.163234e+00    3.147299e+00
  2.179110e+00    3.187711e+00
  2.194985e+00    3.063435e+00
  2.210861e+00    3.102497e+00
  2.226737e+00    3.008445e+00
  2.242612e+00    2.989597e+00
  2.258488e+00    3.075567e+00
  2.274363e+00    3.110310e+00
  2.290239e+00    3.120937e+00
  2.306115e+00    3.068776e+00
  2.321990e+00    3.119223e+00
  2.337866e+00    3.154006e+00
  2.353741e+00    3.138278e+00
  2.369617e+00    3.232368e+00
  2.385492e+00    3.166757e+00
  2.401368e+00    3.141420e+00
  2.417244e+00    3.143637e+00
  2.433119e+00    3.114468e+00
  2.448995e+00    3.110152e+00
  2.464870e+00    2.972279e+00
  2.480746e+00    2.954727e+00
  2.496621e+00    3.153221e+00
  2.512497e+00    3.208446e+00
  2.528373e+00    3.079971e+00
  2.544248e+00    3.156100e+00
  2.560124e+00    3.211928e+00
  2.575999e+00    3.207521e+00
  2.591875e+00    3.263491e+00
  2.607750e+00    3.170793e+00
  2.623626e+00    3.212876e+00
  2.639502e+00    3.186715e+00
  2.655377e+00    3.205212e+00
  2.671253e+00    3.209097e+00
  2.687128e+00    3.304912e+00
  2.703004e+00    3.301557e+00
  2.718879e+00    3.232271e+00
  2.734755e+00    3.229812e+00
  2.750631e+00    3.272219e+00
  2.766506e+00    3.307257e+00
  2.782382e+00    3.220315e+00
  2.798257e+00    3.201560e+00
  2.814133e+00    3.287583e+00
  2.830008e+00    3.247245e+00
  2.845884e+00    3.273656e+00
  2.861760e+00    3.317362e+00
  2.877635e+00    3.254931e+00
  2.893511e+00    3.203018e+00
  2.909386e+00    3.208195e+00
  2.925262e+00    3.167783e+00
  2.941137e+00    3.245425e+00
  2.957013e+00    3.247204e+00
  2.972889e+00    3.321152e+00
  2.988764e+00    3.331270e+00
  3.004640e+00    3.372947e+00
  3.020515e+00    3.287286e+00
  3.036391e+00    3.254730e+00
  3.052266e+00    3.372922e+00
  3.068142e+00    3.280828e+00
  3.084018e+00    3.304940e+00
  3.099893e+00    3.344951e+00
  3.115769e+00    3.386934e+00
  3.131644e+00    3.299095e+00
  3.147520e+00    3.285021e+00
  3.163395e+00    3.334079e+00
  3.179271e+00    3.335217e+00
  3.195147e+00    3.328322e+00
  3.211022e+00    3.289983e+00
  3.226898e+00    3.339599e+00
  3.242773e+00    3.314243e+00
  3.258649e+00    3.257620e+00
  3.274525e+00    3.305518e+00
  3.290400e+00    3.331674e+00
  3.306276e+00    3.329509e+00
  3.322151e+00    3.249224e+00
  3.338027e+00    3.241545e+00
  3.353902e+00    3.359989e+00
  3.369778e+00    3.420130e+00
  3.385654e+00    3.413729e+00
  3.401529e+00    3.470203e+00
  3.417405e+00    3.450283e+00
  3.433280e+00    3.375980e+00
  3.449156e+00    3.419075e+00
  3.465031e+00    3.323834e+00
  3.480907e+00    3.320994e+00
  3.496783e+00    3.330735e+00
  3.512658e+00    3.376443e+00
  3.528534e+00    3.352918e+00
  3.544409e+00    3.415653e+00
  3.560285e+00    3.397805e+00
  3.576160e+00    3.328542e+00
  3.592036e+00    3.350794e+00
  3.607912e+00    3.338202e+00
  3.623787e+00    3.372595e+00
  3.639663e+00    3.407218e+00
  3.655538e+00    3.464492e+00
  3.671414e+00    3.520265e+00
  3.687289e+00    3.492416e+00
  3.703165e+00    3.490512e+00
  3.719041e+00    3.489808e+00
  3.734916e+00    3.395223e+00
  3.750792e+00    3.441628e+00
  3.766667e+00    3.425001e+00
  3.782543e+00    3.406480e+00
  3.798418e+00    3.407980e+00
  3.814294e+00    3.486900e+00
  3.830170e+00    3.516028e+00
  3.846045e+00    3.597914e+00
  3.861921e+00    3.445794e+00
  3.877796e+00    3.446048e+00
  3.893672e+00    3.537250e+00
  3.909547e+00    3.499230e+00
  3.925423e+00    3.629369e+00
  3.941299e+00    3.599092e+00
  3.957174e+00    3.453793e+00
  3.973050e+00    3.397034e+00
  3.988925e+00    3.482493e+00
  4.004801e+00    3.408571e+00
  4.020676e+00    3.386485e+00
  4.036552e+00    3.499834e+00
  4.052428e+00    3.417188e+00
  4.068303e+00    3.408363e+00
  4.084179e+00    3.439400e+00
  4.100054e+00    3.529985e+00
  4.115930e+00    3.484193e+00
  4.131806e+00    3.511697e+00
  4.147681e+00    3.510674e+00
  4.163557e+00    3.488738e+00
  4.179432e+00    3.559202e+00
  4.195308e+00    3.498260e+00
  4.211183e+00    3.500146e+00
  4.227059e+00    3.524209e+00
  4.242935e+00    3.496789e+00
  4.258810e+00    3.546978e+00
  4.274686e+00    3.560680e+00
  4.290561e+00    3.505115e+00
  4.306437e+00    3.549257e+00
  4.322312e+00    3.479817e+00
  4.338188e+00    3.496026e+00
  4.354064e+00    3.496259e+00
  4.369939e+00    3.403749e+00
  4.385815e+00    3.463009e+00
  4.401690e+00    3.603050e+00
  4.417566e+00    3.571743e+00
  4.433441e+00    3.483016e+00
  4.449317e+00    3.552628e+00
  4.465193e+00    3.545017e+00
  4.481068e+00    3.468994e+00
  4.496944e+00    3.582638e+00
  4.512819e+00    3.573721e+00
  4.528695e+00    3.597795e+00
  4.544570e+00    3.633136e+00
  4.560446e+00    3.585162e+00
  4.576322e+00    3.482920e+00
  4.592197e+00    3.524518e+00
  4.608073e+00    3.584292e+00
  4.623948e+00    3.557323e+00
  4.639824e+00    3.536707e+00
  4.655699e+00    3.552342e+00
  4.671575e+00    3.573169e+00
  4.687451e+00    3.598874e+00
  4.703326e+00    3.603948e+00
  4.719202e+00    3.601043e+00
  4.735077e+00    3.560008e+00
  4.750953e+00    3.553849e+00
  4.766828e+00    3.534004e+00
  4.782704e+00    3.528810e+00
  4.798580e+00    3.472075e+00
  4.814455e+00    3.577835e+00
  4.830331e+00    3.580970e+00
  4.846206e+00    3.644768e+00
  4.862082e+00    3.737590e+00
  4.877957e+00    3.572599e+00
  4.893833e+00    3.583341e+00
  4.909709e+00    3.593995e+00
  4.925584e+00    3.641872e+00
  4.941460e+00    3.612773e+00
  4.957335e+00    3.601339e+00
  4.973211e+00    3.641202e+00
  4.989086e+00    3.660158e+00
  5.004962e+00    3.747324e+00
  5.020838e+00    3.687400e+00
  5.036713e+00    3.547237e+00
  5.052589e+00    3.627288e+00
  5.068464e+00    3.550634e+00
  5.084340e+00    3.583960e+00
  5.100216e+00    3.681313e+00
  5.116091e+00    3.676701e+00
  5.131967e+00    3.651750e+00
  5.147842e+00    3.510387e+00
  5.163718e+00    3.565702e+00
  5.179593e+00    3.647050e+00
  5.195469e+00    3.674830e+00
  5.211345e+00    3.610564e+00
  5.227220e+00    3.621709e+00
  5.243096e+00    3.601291e+00
  5.258971e+00    3.609643e+00
  5.274847e+00    3.637331e+00
  5.290722e+00    3.539168e+00
  5.306598e+00    3.565172e+00
  5.322474e+00    3.620710e+00
  5.338349e+00    3.598479e+00
  5.354225e+00    3.694132e+00
  5.370100e+00    3.703423e+00
  5.385976e+00    3.661584e+00
  5.401851e+00    3.649399e+00
  5.417727e+00    3.637393e+00
  5.433603e+00    3.567795e+00
  5.449478e+00    3.543424e+00
  5.465354e+00    3.567378e+00
  5.481229e+00    3.560352e+00
  5.497105e+00    3.520315e+00
  5.512980e+00    3.532963e+00
  5.528856e+00    3.500006e+00
  5.544732e+00    3.498440e+00
  5.560607e+00    3.509151e+00
  5.576483e+00    3.575378e+00
  5.592358e+00    3.602747e+00
  5.608234e+00    3.504150e+00
  5.624109e+00    3.577615e+00
  5.639985e+00    3.530247e+00
  5.655861e+00    3.437489e+00
  5.671736e+00    3.506383e+00
  5.687612e+00    3.566586e+00
  5.703487e+00    3.511595e+00
  5.719363e+00    3.588289e+00
  5.735238e+00    3.607417e+00
  5.751114e+00    3.522502e+00
  5.766990e+00    3.549101e+00
  5.782865e+00    3.601835e+00
  5.798741e+00    3.493599e+00
  5.814616e+00    3.466326e+00
  5.830492e+00    3.489395e+00
  5.846367e+00    3.439736e+00
  5.862243e+00    3.462810e+00
  5.878119e+00    3.521479e+00
  5.893994e+00    3.536004e+00
  5.909870e+00    3.497951e+00
  5.925745e+00    3.530243e+00
  5.941621e+00    3.457667e+00
  5.957497e+00    3.416127e+00
  5.973372e+00    3.457423e+00
  5.989248e+00    3.422545e+00
  6.005123e+00    3.456597e+00
  6.020999e+00    3.509766e+00
  6.036874e+00    3.521924e+00
  6.052750e+00    3.542846e+00
  6.068626e+00    3.501846e+00
  6.084501e+00    3.565172e+00
  6.100377e+00    3.557673e+00
  6.116252e+00    3.554775e+00
  6.132128e+00    3.505856e+00
  6.148003e+00    3.466897e+00
  6.163879e+00    3.514679e+00
  6.179755e+00    3.589090e+00
  6.195630e+00    3.530552e+00
  6.211506e+00    3.525134e+00
  6.227381e+00    3.530586e+00
  6.243257e+00    3.538021e+00
  6.259132e+00    3.532132e+00
  6.275008e+00    3.436823e+00
  6.290884e+00    3.380709e+00
  6.306759e+00    3.432797e+00
  6.322635e+00    3.502507e+00
  6.338510e+00    3.563509e+00
  6.354386e+00    3.557786e+00
  6.370261e+00    3.601590e+00
  6.386137e+00    3.597090e+00
  6.402013e+00    3.588830e+00
  6.417888e+00    3.579757e+00
  6.433764e+00    3.504175e+00
  6.449639e+00    3.577646e+00
  6.465515e+00    3.532752e+00
  6.481390e+00    3.461228e+00
  6.497266e+00    3.483231e+00
  6.513142e+00    3.523868e+00
  6.529017e+00    3.530357e+00
  6.544893e+00    3.543485e+00
  6.560768e+00    3.563503e+00
  6.576644e+00    3.486653e+00
  6.592519e+00    3.534070e+00
  6.608395e+00    3.568452e+00
  6.624271e+00    3.481324e+00
  6.640146e+00    3.514921e+00
  6.656022e+00    3.582216e+00
  6.671897e+00    3.519321e+00
  6.687773e+00    3.553050e+00
  6.703648e+00    3.478932e+00
  6.719524e+00    3.539926e+00
  6.735400e+00    3.514950e+00
  6.751275e+00    3.465023e+00
  6.767151e+00    3.538733e+00
  6.783026e+00    3.517023e+00
  6.798902e+00    3.457631e+00
  6.814777e+00    3.525789e+00
  6.830653e+00    3.521601e+00
  6.846529e+00    3.548257e+00
  6.862404e+00    3.541614e+00
  6.878280e+00    3.552518e+00
  6.894155e+00    3.470657e+00
  6.910031e+00    3.501132e+00
  6.925907e+00    3.540091e+00
  6.941782e+00    3.521573e+00
  6.957658e+00    3.487420e+00
  6.973533e+00    3.478368e+00
  6.989409e+00    3.529573e+00
  7.005284e+00    3.442620e+00
  7.021160e+00    3.427434e+00
  7.037036e+00    3.511316e+00
  7.052911e+00    3.546858e+00
  7.068787e+00    3.522130e+00
  7.084662e+00    3.473202e+00
  7.100538e+00    3.454455e+00
  7.116413e+00    3.536317e+00
  7.132289e+00    3.475709e+00
  7.148165e+00    3.435488e+00
  7.164040e+00    3.452873e+00
  7.179916e+00    3.478567e+00
  7.195791e+00    3.465416e+00
  7.211667e+00    3.463630e+00
  7.227542e+00    3.531739e+00
  7.243418e+00    3.530709e+00
  7.259294e+00    3.464257e+00
  7.275169e+00    3.476188e+00
  7.291045e+00    3.476933e+00
  7.306920e+00    3.433934e+00
  7.322796e+00    3.499355e+00
  7.338671e+00    3.482438e+00
  7.354547e+00    3.395993e+00
  7.370423e+00    3.457677e+00
  7.386298e+00    3.462971e+00
  7.402174e+00    3.425972e+00
  7.418049e+00    3.378276e+00
  7.433925e+00    3.395063e+00
  7.449800e+00    3.467343e+00
  7.465676e+00    3.454496e+00
  7.481552e+00    3.419755e+00
  7.497427e+00    3.406428e+00
  7.513303e+00    3.417536e+00
  7.529178e+00    3.418425e+00
  7.545054e+00    3.488230e+00
  7.560929e+00    3.443206e+00
  7.576805e+00    3.382579e+00
  7.592681e+00    3.424335e+00
  7.608556e+00    3.457680e+00
  7.624432e+00    3.419376e+00
  7.640307e+00    3.426517e+00
  7.656183e+00    3.441999e+00
  7.672058e+00    3.486027e+00
  7.687934e+00    3.445495e+00
  7.703810e+00    3.419312e+00
  7.719685e+00    3.363727e+00
  7.735561e+00    3.358535e+00
  7.751436e+00    3.327742e+00
  7.767312e+00    3.329062e+00
  7.783187e+00    3.386584e+00
  7.799063e+00    3.457176e+00
  7.814939e+00    3.433711e+00
  7.830814e+00    3.353945e+00
  7.846690e+00    3.354579e+00
  7.862565e+00    3.360922e+00
  7.878441e+00    3.418157e+00
  7.894317e+00    3.428014e+00
  7.910192e+00    3.424787e+00
  7.926068e+00    3.394374e+00
  7.941943e+00    3.429205e+00
  7.957819e+00    3.335215e+00
  7.973694e+00    3.360305e+00
  7.989570e+00    3.334095e+00
  8.005446e+00    3.371541e+00
  8.021321e+00    3.398205e+00
  8.037197e+00    3.363647e+00
  8.053072e+00    3.317977e+00
  8.068948e+00    3.324303e+00
  8.084823e+00    3.365906e+00
  8.100699e+00    3.322674e+00
  8.116575e+00    3.334589e+00
  8.132450e+00    3.362941e+00
  8.148326e+00    3.396655e+00
  8.164201e+00    3.399664e+00
  8.180077e+00    3.413973e+00
  8.195952e+00    3.418584e+00
  8.211828e+00    3.369391e+00
  8.227704e+00    3.404816e+00
  8.243579e+00    3.473985e+00
  8.259455e+00    3.379509e+00
  8.275330e+00    3.373372e+00
  8.291206e+00    3.344692e+00
  8.307081e+00    3.340763e+00
  8.322957e+00    3.329324e+00
  8.338833e+00    3.319753e+00
  8.354708e+00    3.384854e+00
  8.370584e+00    3.365193e+00
  8.386459e+00    3.379597e+00
  8.402335e+00    3.382622e+00
  8.418210e+00    3.328705e+00
  8.434086e+00    3.305635e+00
  8.449962e+00    3.333336e+00
  8.465837e+00    3.380239e+00
  8.481713e+00    3.293603e+00
  8.497588e+00    3.334033e+00
  8.513464e+00    3.282049e+00
  8.529339e+00    3.309013e+00
  8.545215e+00    3.289084e+00
  8.561091e+00    3.320221e+00
  8.576966e+00    3.371037e+00
  8.592842e+00    3.339593e+00
  8.608717e+00    3.307381e+00
  8.624593e+00    3.308210e+00
  8.640468e+00    3.315579e+00
  8.656344e+00    3.301263e+00
  8.672220e+00    3.296242e+00
  8.688095e+00    3.246614e+00
  8.703971e+00    3.278734e+00
  8.719846e+00    3.270311e+00
  8.735722e+00    3.226571e+00
  8.751598e+00    3.275304e+00
  8.767473e+00    3.277498e+00
  8.783349e+00    3.226916e+00
  8.799224e+00    3.245697e+00
  8.815100e+00    3.309702e+00
  8.830975e+00    3.257909e+00
  8.846851e+00    3.221520e+00
  8.862727e+00    3.250977e+00
  8.878602e+00    3.255863e+00
  8.894478e+00    3.257131e+00
  8.910353e+00    3.304297e+00
  8.926229e+00    3.278412e+00
  8.942104e+00    3.198772e+00
  8.957980e+00    3.239480e+00
  8.973856e+00    3.221990e+00
  8.989731e+00    3.209876e+00
  9.005607e+00    3.206025e+00
  9.021482e+00    3.251354e+00
  9.037358e+00    3.172951e+00
  9.053233e+00    3.233266e+00
  9.069109e+00    3.218623e+00
  9.084985e+00    3.230911e+00
  9.100860e+00    3.255418e+00
  9.116736e+00    3.268902e+00
  9.132611e+00    3.244984e+00
  9.148487e+00    3.264907e+00
  9.164362e+00    3.214272e+00
  9.180238e+00    3.204965e+00
  9.196114e+00    3.186724e+00
  9.211989e+00    3.146787e+00
  9.227865e+00    3.175370e+00
  9.243740e+00    3.225890e+00
  9.259616e+00    3.178814e+00
  9.275491e+00    3.193097e+00
  9.291367e+00    3.209466e+00
  9.307243e+00    3.169298e+00
  9.323118e+00    3.165270e+00
  9.338994e+00    3.180896e+00
  9.354869e+00    3.203471e+00
  9.370745e+00    3.241621e+00
  9.386620e+00    3.256771e+00
  9.402496e+00    3.192046e+00
  9.418372e+00    3.174292e+00
  9.434247e+00    3.173435e+00
  9.450123e+00    3.229580e+00
  9.465998e+00    3.176545e+00
  9.481874e+00    3.163981e+00
  9.497749e+00    3.114156e+00
  9.513625e+00    3.102667e+00
  9.529501e+00    3.155881e+00
  9.545376e+00    3.198189e+00
  9.561252e+00    3.188412e+00
  9.577127e+00    3.144759e+00
  9.593003e+00    3.194849e+00
  9.608878e+00    3.218878e+00
  9.624754e+00    3.171457e+00
  9.640630e+00    3.098514e+00
  9.656505e+00    3.149419e+00
  9.672381e+00    3.154776e+00
  9.688256e+00    3.124879e+00
  9.704132e+00    3.090544e+00
  9.720008e+00    3.145347e+00
  9.735883e+00    3.097403e+00
  9.751759e+00    3.092166e+00
  9.767634e+00    3.121645e+00
  9.783510e+00    3.130189e+00
  9.799385e+00    3.134428e+00
  9.815261e+00    3.120801e+00
  9.831137e+00    3.181040e+00
  9.847012e+00    3.156408e+00
  9.862888e+00    3.106571e+00
  9.878763e+00    3.123435e+00
  9.894639e+00    3.169849e+00
  9.910514e+00    3.127040e+00
  9.926390e+00    3.074243e+00
  9.942266e+00    3.052487e+00
  9.958141e+00    3.078423e+00
  9.974017e+00    3.109275e+00
  9.989892e+00    3.122512e+00
  1.000577e+01    3.084082e+00
  1.002164e+01    3.041561e+00
  1.003752e+01    3.082697e+00
  1.005339e+01    3.098441e+00
  1.006927e+01    3.100624e+00
  1.008515e+01    3.077925e+00
  1.010102e+01    3.066828e+00
  1.011690e+01    3.023939e+00
  1.013277e+01    3.019354e+00
  1.014865e+01    3.049906e+00
  1.016452e+01    3.028537e+00
  1.018040e+01    3.005494e+00
  1.019627e+01    3.072596e+00
  1.021215e+01    3.047873e+00
  1.022803e+01    3.048801e+00
  1.024390e+01    3.027863e+00
  1.025978e+01    3.032308e+00
  1.027565e+01    3.071254e+00
  1.029153e+01    2.985418e+00
  1.030740e+01    2.987846e+00
  1.032328e+01    2.995965e+00
  1.033915e+01    2.976810e+00
  1.035503e+01    2.989526e+00
  1.037091e+01    3.023195e+00
  1.038678e+01    2.970688e+00
  1.040266e+01    3.005679e+00
  1.041853e+01    3.015765e+00
  1.043441e+01    2.965976e+00
  1.045028e+01    2.999360e+00
  1.046616e+01    2.971936e+00
  1.048204e+01    2.999297e+00
  1.049791e+01    3.002164e+00
  1.051379e+01    2.977896e+00
  1.052966e+01    2.907067e+00
  1.054554e+01    2.925392e+00
  1.056141e+01    2.990663e+00
  1.057729e+01    2.989410e+00
  1.059316e+01    2.987889e+00
  1.060904e+01    2.985424e+00
  1.062492e+01    2.959052e+00
  1.064079e+01    2.945883e+00
  1.065667e+01    2.948235e+00
  1.067254e+01    2.908182e+00
  1.068842e+01    2.902772e+00
  1.070429e+01    2.881134e+00
  1.072017e+01    2.903720e+00
  1.073604e+01    2.887490e+00
  1.075192e+01    2.858057e+00
  1.076780e+01    2.901995e+00
  1.078367e+01    2.922349e+00
  1.079955e+01    2.931134e+00
  1.081542e+01    2.842199e+00
  1.083130e+01    2.906066e+00
  1.084717e+01    2.934126e+00
  1.086305e+01    2.892983e+00
  1.087892e+01    2.891970e+00
  1.089480e+01    2.922689e+00
  1.091068e+01    2.903988e+00
  1.092655e+01    2.859162e+00
  1.094243e+01    2.864538e+00
  1.095830e+01    2.884542e+00
  1.097418e+01    2.854384e+00
  1.099005e+01    2.857809e+00
  1.100593e+01    2.855269e+00
  1.102180e+01    2.850887e+00
  1.103768e+01    2.862579e+00
  1.105356e+01    2.893837e+00
  1.106943e+01    2.864120e+00
  1.108531e+01    2.881835e+00
  1.110118e+01    2.900352e+00
  1.111706e+01    2.791098e+00
  1.113293e+01    2.780347e+00
  1.114881e+01    2.852953e+00
  1.116468e+01    2.816828e+00
  1.118056e+01    2.845753e+00
  1.119644e+01    2.830342e+00
  1.121231e+01    2.827634e+00
  1.122819e+01    2.807873e+00
  1.124406e+01    2.767024e+00
  1.125994e+01    2.774013e+00
  1.127581e+01    2.808936e+00
  1.129169e+01    2.839569e+00
  1.130756e+01    2.828773e+00
  1.132344e+01    2.798491e+00
  1.133932e+01    2.856774e+00
  1.135519e+01    2.824359e+00
  1.137107e+01    2.790286e+00
  1.138694e+01    2.791785e+00
  1.140282e+01    2.816954e+00
  1.141869e+01    2.834332e+00
  1.143457e+01    2.786364e+00
  1.145045e+01    2.715500e+00
  1.146632e+01    2.760136e+00
  1.148220e+01    2.749306e+00
  1.149807e+01    2.743949e+00
  1.151395e+01    2.747616e+00
  1.152982e+01    2.731927e+00
  1.154570e+01    2.745581e+00
  1.156157e+01    2.762671e+00
  1.157745e+01    2.737747e+00
  1.159333e+01    2.760391e+00
  1.160920e+01    2.780609e+00
  1.162508e+01    2.726633e+00
  1.164095e+01    2.740440e+00
  1.165683e+01    2.740560e+00
  1.167270e+01    2.747372e+00
  1.168858e+01    2.733729e+00
  1.170445e+01    2.717317e+00
  1.172033e+01    2.695174e+00
  1.173621e+01    2.695100e+00
  1.175208e+01    2.721424e+00
  1.176796e+01    2.661207e+00
  1.178383e+01    2.677655e+00
  1.179971e+01    2.714444e+00
  1.181558e+01    2.709485e+00
  1.183146e+01    2.732241e+00
  1.184733e+01    2.760109e+00
  1.186321e+01    2.701890e+00
  1.187909e+01    2.646618e+00
  1.189496e+01    2.664340e+00
  1.191084e+01    2.686339e+00
  1.192671e+01    2.678580e+00
  1.194259e+01    2.671484e+00
  1.195846e+01    2.650020e+00
  1.197434e+01    2.605841e+00
  1.199021e+01    2.654634e+00
  1.200609e+01    2.679916e+00
  1.202197e+01    2.668705e+00
  1.203784e+01    2.692427e+00
  1.205372e+01    2.667927e+00
  1.206959e+01    2.646440e+00
  1.208547e+01    2.630155e+00
  1.210134e+01    2.649961e+00
  1.211722e+01    2.645566e+00
  1.213309e+01    2.623793e+00
  1.214897e+01    2.638224e+00
  1.216485e+01    2.652550e+00
  1.218072e+01    2.665453e+00
  1.219660e+01    2.627313e+00
  1.221247e+01    2.605903e+00
  1.222835e+01    2.652668e+00
  1.224422e+01    2.659469e+00
  1.226010e+01    2.612094e+00
  1.227597e+01    2.668201e+00
  1.229185e+01    2.668453e+00
  1.230773e+01    2.689259e+00
  1.232360e+01    2.675153e+00
  1.233948e+01    2.636636e+00
  1.235535e+01    2.685374e+00
  1.237123e+01    2.689063e+00
  1.238710e+01    2.679152e+00
  1.240298e+01    2.713161e+00
  1.241886e+01    2.734568e+00
  1.243473e+01    2.715642e+00
  1.245061e+01    2.670269e+00
  1.246648e+01    2.635351e+00
  1.248236e+01    2.650695e+00
  1.249823e+01    2.684556e+00
  1.251411e+01    2.711567e+00
  1.252998e+01    2.711520e+00
  1.254586e+01    2.703868e+00
  1.256174e+01    2.643079e+00
  1.257761e+01    2.684909e+00
  1.259349e+01    2.662140e+00
  1.260936e+01    2.717890e+00
  1.262524e+01    2.725907e+00
  1.264111e+01    2.805946e+00
  1.265699e+01    2.794725e+00
  1.267286e+01    2.752676e+00
  1.268874e+01    2.787520e+00
  1.270462e+01    2.828145e+00
  1.272049e+01    2.823927e+00
  1.273637e+01    2.815873e+00
  1.275224e+01    2.852240e+00
  1.276812e+01    2.897672e+00
  1.278399e+01    2.877086e+00
  1.279987e+01    2.908970e+00
  1.281574e+01    3.009238e+00
  1.283162e+01    3.089676e+00
  1.284750e+01    3.151302e+00
  1.286337e+01    3.208646e+00
  1.287925e+01    3.327576e+00
  1.289512e+01    3.431509e+00
  1.291100e+01    3.608477e+00
  1.292687e+01    3.780445e+00
  1.294275e+01    4.036186e+00
  1.295862e+01    4.331155e+00
  1.297450e+01    4.728877e+00
  1.299038e+01    5.158427e+00
  1.300625e+01    5.838376e+00
  1.302213e+01    6.650977e+00
  1.303800e+01    7.555667e+00
  1.305388e+01    8.851588e+00
  1.306975e+01    1.002248e+01
  1.308563e+01    1.123926e+01
  1.310150e+01    1.248622e+01
  1.311738e+01    1.365747e+01
  1.313326e+01    1.456600e+01
  1.314913e+01    1.552133e+01
  1.316501e+01    1.609133e+01
  1.318088e+01    1.594652e+01
  1.319676e+01    1.535973e+01
  1.321263e+01    1.413108e+01
  1.322851e+01    1.228177e+01
  1.324438e+01    1.056967e+01
  1.326026e+01    8.968204e+00
  1.327614e+01    7.771115e+00
  1.329201e+01    6.667880e+00
  1.330789e+01    5.848640e+00
  1.332376e+01    5.245516e+00
  1.333964e+01    4.759234e+00
  1.335551e+01    4.344081e+00
  1.337139e+01    3.973770e+00
  1.338727e+01    3.803169e+00
  1.340314e+01    3.621236e+00
  1.341902e+01    3.389545e+00
  1.343489e+01    3.325547e+00
  1.345077e+01    3.144070e+00
  1.346664e+01    3.030362e+00
  1.348252e+01    2.988811e+00
  1.349839e+01    2.902323e+00
  1.351427e+01    2.859480e+00
  1.353015e+01    2.784922e+00
  1.354602e+01    2.787029e+00
  1.356190e+01    2.752864e+00
  1.357777e+01    2.727410e+00
  1.359365e+01    2.684749e+00
  1.360952e+01    2.604614e+00
  1.362540e+01    2.593427e+00
  1.364127e+01    2.608339e+00
  1.365715e+01    2.596469e+00
  1.367303e+01    2.537514e+00
  1.368890e+01    2.518227e+00
  1.370478e+01    2.572860e+00
  1.372065e+01    2.555234e+00
  1.373653e+01    2.534063e+00
  1.375240e+01    2.538547e+00
  1.376828e+01    2.501822e+00
  1.378415e+01    2.444343e+00
  1.380003e+01    2.442066e+00
  1.381591e+01    2.462172e+00
  1.383178e+01    2.472294e+00
  1.384766e+01    2.447028e+00
  1.386353e+01    2.397704e+00
  1.387941e+01    2.370189e+00
  1.389528e+01    2.359589e+00
  1.391116e+01    2.357676e+00
  1.392703e+01    2.399496e+00
  1.394291e+01    2.353351e+00
  1.395879e+01    2.337215e+00
  1.397466e+01    2.357208e+00
  1.399054e+01    2.349286e+00
  1.400641e+01    2.327905e+00
  1.402229e+01    2.339313e+00
  1.403816e+01    2.316076e+00
  1.405404e+01    2.321509e+00
  1.406991e+01    2.314184e+00
  1.408579e+01    2.305414e+00
  1.410167e+01    2.289500e+00
  1.411754e+01    2.285902e+00
  1.413342e+01    2.299932e+00
  1.414929e+01    2.260166e+00
  1.416517e+01    2.243498e+00
  1.418104e+01    2.299571e+00
  1.419692e+01    2.297263e+00
  1.421279e+01    2.292188e+00
  1.422867e+01    2.311882e+00
  1.424455e+01    2.219975e+00
  1.426042e+01    2.245973e+00
  1.427630e+01    2.285236e+00
  1.429217e+01    2.252342e+00
  1.430805e+01    2.248771e+00
  1.432392e+01    2.219419e+00
  1.433980e+01    2.203315e+00
  1.435568e+01    2.198124e+00
  1.437155e+01    2.227550e+00
  1.438743e+01    2.194028e+00
  1.440330e+01    2.175670e+00
  1.441918e+01    2.208412e+00
  1.443505e+01    2.182470e+00
  1.445093e+01    2.201325e+00
  1.446680e+01    2.181179e+00
  1.448268e+01    2.189082e+00
  1.449856e+01    2.175523e+00
  1.451443e+01    2.203509e+00
  1.453031e+01    2.199365e+00
  1.454618e+01    2.190405e+00
  1.456206e+01    2.207889e+00
  1.457793e+01    2.192849e+00
  1.459381e+01    2.226595e+00
  1.460968e+01    2.220261e+00
  1.462556e+01    2.187985e+00
  1.464144e+01    2.162455e+00
  1.465731e+01    2.191325e+00
  1.467319e+01    2.192626e+00
  1.468906e+01    2.179534e+00
  1.470494e+01    2.203087e+00
  1.472081e+01    2.165604e+00
  1.473669e+01    2.115097e+00
  1.475256e+01    2.114650e+00
  1.476844e+01    2.160151e+00
  1.478432e+01    2.166312e+00
  1.480019e+01    2.154660e+00
  1.481607e+01    2.193598e+00
  1.483194e+01    2.150619e+00
  1.484782e+01    2.139298e+00
  1.486369e+01    2.152396e+00
  1.487957e+01    2.242909e+00
  1.489544e+01    2.246820e+00
  1.491132e+01    2.213292e+00
  1.492720e+01    2.237228e+00
  1.494307e+01    2.243949e+00
  1.495895e+01    2.262432e+00
  1.497482e+01    2.354392e+00
  1.499070e+01    2.390833e+00
  1.500657e+01    2.400635e+00
  1.502245e+01    2.502790e+00
  1.503832e+01    2.547664e+00
  1.505420e+01    2.626187e+00
  1.507008e+01    2.792271e+00
  1.508595e+01    2.989444e+00
  1.510183e+01    3.206521e+00
  1.511770e+01    3.470708e+00
  1.513358e+01    3.769659e+00
  1.514945e+01    4.142170e+00
  1.516533e+01    4.485127e+00
  1.518120e+01    4.815478e+00
  1.519708e+01    5.112669e+00
  1.521296e+01    5.390631e+00
  1.522883e+01    5.463953e+00
  1.524471e+01    5.632759e+00
  1.526058e+01    5.741551e+00
  1.527646e+01    5.662688e+00
  1.529233e+01    5.416804e+00
  1.530821e+01    5.083421e+00
  1.532409e+01    4.630318e+00
  1.533996e+01    4.136726e+00
  1.535584e+01    3.713320e+00
  1.537171e+01    3.354211e+00
  1.538759e+01    3.121806e+00
  1.540346e+01    2.906988e+00
  1.541934e+01    2.795820e+00
  1.543521e+01    2.666846e+00
  1.545109e+01    2.513468e+00
  1.546697e+01    2.391714e+00
  1.548284e+01    2.318860e+00
  1.549872e+01    2.270891e+00
  1.551459e+01    2.213877e+00
  1.553047e+01    2.157259e+00
  1.554634e+01    2.180577e+00
  1.556222e+01    2.141906e+00
  1.557809e+01    2.110022e+00
  1.559397e+01    2.043484e+00
  1.560985e+01    2.051606e+00
  1.562572e+01    2.028342e+00
  1.564160e+01    2.025396e+00
  1.565747e+01    1.988732e+00
  1.567335e+01    2.008075e+00
  1.568922e+01    1.994150e+00
  1.570510e+01    1.968262e+00
  1.572097e+01    1.968510e+00
  1.573685e+01    1.924017e+00
  1.575273e+01    1.939381e+00
  1.576860e+01    1.944135e+00
  1.578448e+01    1.930615e+00
  1.580035e+01    1.875417e+00
  1.581623e+01    1.837848e+00
  1.583210e+01    1.853561e+00
  1.584798e+01    1.921286e+00
  1.586385e+01    1.894007e+00
  1.587973e+01    1.861083e+00
  1.589561e+01    1.886585e+00
  1.591148e+01    1.869169e+00
  1.592736e+01    1.834909e+00
  1.594323e+01    1.816699e+00
  1.595911e+01    1.779157e+00
  1.597498e+01    1.839631e+00
  1.599086e+01    1.867780e+00
  1.600673e+01    1.834834e+00
  1.602261e+01    1.836071e+00
  1.603849e+01    1.854367e+00
  1.605436e+01    1.833402e+00
  1.607024e+01    1.816730e+00
  1.608611e+01    1.820119e+00
  1.610199e+01    1.829414e+00
  1.611786e+01    1.831573e+00
  1.613374e+01    1.815445e+00
  1.614961e+01    1.829867e+00
  1.616549e+01    1.818191e+00
  1.618137e+01    1.805053e+00
  1.619724e+01    1.811866e+00
  1.621312e+01    1.813013e+00
  1.622899e+01    1.794376e+00
  1.624487e+01    1.772658e+00
  1.626074e+01    1.813494e+00
  1.627662e+01    1.792806e+00
  1.629250e+01    1.768060e+00
  1.630837e+01    1.768757e+00
  1.632425e+01    1.773367e+00
  1.634012e+01    1.726074e+00
  1.635600e+01    1.749043e+00
  1.637187e+01    1.775194e+00
  1.638775e+01    1.757766e+00
  1.640362e+01    1.755839e+00
  1.641950e+01    1.773235e+00
  1.643538e+01    1.752880e+00
  1.645125e+01    1.701977e+00
  1.646713e+01    1.735209e+00
  1.648300e+01    1.748323e+00
  1.649888e+01    1.747237e+00
  1.651475e+01    1.752255e+00
  1.653063e+01    1.743425e+00
  1.654650e+01    1.711206e+00
  1.656238e+01    1.745062e+00
  1.657826e+01    1.721266e+00
  1.659413e+01    1.716143e+00
  1.661001e+01    1.700599e+00
  1.662588e+01    1.701590e+00
  1.664176e+01    1.684060e+00
  1.665763e+01    1.694456e+00
  1.667351e+01    1.695031e+00
  1.668938e+01    1.704155e+00
  1.670526e+01    1.692571e+00
  1.672114e+01    1.685532e+00
  1.673701e+01    1.697834e+00
  1.675289e+01    1.738182e+00
  1.676876e+01    1.724098e+00
  1.678464e+01    1.700548e+00
  1.680051e+01    1.686684e+00
  1.681639e+01    1.662227e+00
  1.683226e+01    1.690889e+00
  1.684814e+01    1.666221e+00
  1.686402e+01    1.689751e+00
  1.687989e+01    1.652110e+00
  1.689577e+01    1.668186e+00
  1.691164e+01    1.667145e+00
  1.692752e+01    1.666641e+00
  1.694339e+01    1.687812e+00
  1.695927e+01    1.665674e+00
  1.697514e+01    1.657020e+00
  1.699102e+01    1.638967e+00
  1.700690e+01    1.656140e+00
  1.702277e+01    1.658970e+00
  1.703865e+01    1.632672e+00
  1.705452e+01    1.627297e+00
  1.707040e+01    1.650203e+00
  1.708627e+01    1.652159e+00
  1.710215e+01    1.628268e+00
  1.711802e+01    1.642860e+00
  1.713390e+01    1.647609e+00
  1.714978e+01    1.640781e+00
  1.716565e+01    1.644564e+00
  1.718153e+01    1.643665e+00
  1.719740e+01    1.614459e+00
  1.721328e+01    1.591393e+00
  1.722915e+01    1.613044e+00
  1.724503e+01    1.634463e+00
  1.726091e+01    1.617128e+00
  1.727678e+01    1.623026e+00
  1.729266e+01    1.599901e+00
  1.730853e+01    1.599090e+00
  1.732441e+01    1.605283e+00
  1.734028e+01    1.572198e+00
  1.735616e+01    1.576097e+00
  1.737203e+01    1.580908e+00
  1.738791e+01    1.572891e+00
  1.740379e+01    1.562106e+00
  1.741966e+01    1.553856e+00
  1.743554e+01    1.566128e+00
  1.745141e+01    1.596939e+00
  1.746729e+01    1.603882e+00
  1.748316e+01    1.598654e+00
  1.749904e+01    1.600796e+00
  1.751491e+01    1.563276e+00
  1.753079e+01    1.540656e+00
  1.754667e+01    1.574095e+00
  1.756254e+01    1.613786e+00
  1.757842e+01    1.573891e+00
  1.759429e+01    1.545629e+00
  1.761017e+01    1.543765e+00
  1.762604e+01    1.541513e+00
  1.764192e+01    1.541780e+00
  1.765779e+01    1.540293e+00
  1.767367e+01    1.519308e+00
  1.768955e+01    1.521421e+00
  1.770542e+01    1.537854e+00
  1.772130e+01    1.558388e+00
  1.773717e+01    1.549829e+00
  1.775305e+01    1.554372e+00
  1.776892e+01    1.530838e+00
  1.778480e+01    1.536847e+00
  1.780067e+01    1.534658e+00
  1.781655e+01    1.525445e+00
  1.783243e+01    1.536456e+00
  1.784830e+01    1.515140e+00
  1.786418e+01    1.513163e+00
  1.788005e+01    1.499910e+00
  1.789593e+01    1.485755e+00
  1.791180e+01    1.485090e+00
  1.792768e+01    1.483826e+00
  1.794355e+01    1.482657e+00
  1.795943e+01    1.474027e+00
  1.797531e+01    1.498782e+00
  1.799118e+01    1.485542e+00
  1.800706e+01    1.492421e+00
  1.802293e+01    1.497084e+00
  1.803881e+01    1.487718e+00
  1.805468e+01    1.459621e+00
  1.807056e+01    1.477011e+00
  1.808643e+01    1.478576e+00
  1.810231e+01    1.485505e+00
  1.811819e+01    1.465371e+00
  1.813406e+01    1.477285e+00
  1.814994e+01    1.481478e+00
  1.816581e+01    1.475008e+00
  1.818169e+01    1.469402e+00
  1.819756e+01    1.469797e+00
  1.821344e+01    1.472358e+00
  1.822932e+01    1.442347e+00
  1.824519e+01    1.484318e+00
  1.826107e+01    1.491668e+00
  1.827694e+01    1.461680e+00
  1.829282e+01    1.464202e+00
  1.830869e+01    1.442926e+00
  1.832457e+01    1.451140e+00
  1.834044e+01    1.425467e+00
  1.835632e+01    1.428465e+00
  1.837220e+01    1.429842e+00
  1.838807e+01    1.427982e+00
  1.840395e+01    1.443586e+00
  1.841982e+01    1.441919e+00
  1.843570e+01    1.437177e+00
  1.845157e+01    1.434377e+00
  1.846745e+01    1.392516e+00
  1.848332e+01    1.387757e+00
  1.849920e+01    1.414740e+00
  1.851508e+01    1.452243e+00
  1.853095e+01    1.438036e+00
  1.854683e+01    1.434940e+00
  1.856270e+01    1.441773e+00
  1.857858e+01    1.447360e+00
  1.859445e+01    1.428977e+00
  1.861033e+01    1.408973e+00
  1.862620e+01    1.421161e+00
  1.864208e+01    1.425990e+00
  1.865796e+01    1.412636e+00
  1.867383e+01    1.403954e+00
  1.868971e+01    1.392039e+00
  1.870558e+01    1.414635e+00
  1.872146e+01    1.424863e+00
  1.873733e+01    1.407599e+00
  1.875321e+01    1.415268e+00
  1.876908e+01    1.411655e+00
  1.878496e+01    1.387796e+00
  1.880084e+01    1.389629e+00
  1.881671e+01    1.399863e+00
  1.883259e+01    1.379501e+00
  1.884846e+01    1.370860e+00
  1.886434e+01    1.388820e+00
  1.888021e+01    1.388420e+00
  1.889609e+01    1.369622e+00
  1.891196e+01    1.392100e+00
  1.892784e+01    1.372489e+00
  1.894372e+01    1.377490e+00
  1.895959e+01    1.369741e+00
  1.897547e+01    1.371163e+00
  1.899134e+01    1.350994e+00
  1.900722e+01    1.356297e+00
  1.902309e+01    1.357806e+00
  1.903897e+01    1.349631e+00
  1.905484e+01    1.344277e+00
  1.907072e+01    1.340827e+00
  1.908660e+01    1.365156e+00
  1.910247e+01    1.372347e+00
  1.911835e+01    1.349327e+00
  1.913422e+01    1.327144e+00
  1.915010e+01    1.357414e+00
  1.916597e+01    1.365300e+00
  1.918185e+01    1.347927e+00
  1.919773e+01    1.343105e+00
  1.921360e+01    1.315721e+00
  1.922948e+01    1.332516e+00
  1.924535e+01    1.351554e+00
  1.926123e+01    1.362484e+00
  1.927710e+01    1.345350e+00
  1.929298e+01    1.337623e+00
  1.930885e+01    1.330983e+00
  1.932473e+01    1.361170e+00
  1.934061e+01    1.362310e+00
  1.935648e+01    1.352654e+00
  1.937236e+01    1.348698e+00
  1.938823e+01    1.357197e+00
  1.940411e+01    1.341088e+00
  1.941998e+01    1.325210e+00
  1.943586e+01    1.301996e+00
  1.945173e+01    1.330637e+00
  1.946761e+01    1.345742e+00
  1.948349e+01    1.302540e+00
  1.949936e+01    1.320708e+00
  1.951524e+01    1.338280e+00
  1.953111e+01    1.333066e+00
  1.954699e+01    1.323641e+00
  1.956286e+01    1.325813e+00
  1.957874e+01    1.319184e+00
  1.959461e+01    1.312177e+00
  1.961049e+01    1.344630e+00
  1.962637e+01    1.325534e+00
  1.964224e+01    1.310452e+00
  1.965812e+01    1.291863e+00
  1.967399e+01    1.299652e+00
  1.968987e+01    1.292241e+00
  1.970574e+01    1.286788e+00
  1.972162e+01    1.304066e+00
  1.973749e+01    1.306289e+00
  1.975337e+01    1.283433e+00
  1.976925e+01    1.283838e+00
  1.978512e+01    1.284399e+00
  1.980100e+01    1.287735e+00
  1.981687e+01    1.269157e+00
  1.983275e+01    1.247416e+00
  1.984862e+01    1.274949e+00
  1.986450e+01    1.278312e+00
  1.988037e+01    1.261588e+00
  1.989625e+01    1.289886e+00
  1.991213e+01    1.310904e+00
  1.992800e+01    1.281675e+00
  1.994388e+01    1.299353e+00
  1.995975e+01    1.278087e+00
  1.997563e+01    1.258521e+00
  1.999150e+01    1.301785e+00
  2.000738e+01    1.288737e+00
  2.002325e+01    1.254407e+00
  2.003913e+01    1.254605e+00
  2.005501e+01    1.255597e+00
  2.007088e+01    1.285253e+00
  2.008676e+01    1.266758e+00
  2.010263e+01    1.250485e+00
  2.011851e+01    1.253945e+00
  2.013438e+01    1.249776e+00
  2.015026e+01    1.243570e+00
  2.016614e+01    1.247634e+00
  2.018201e+01    1.259640e+00
  2.019789e+01    1.265082e+00
  2.021376e+01    1.236480e+00
  2.022964e+01    1.251323e+00
  2.024551e+01    1.254936e+00
  2.026139e+01    1.236585e+00
  2.027726e+01    1.251454e+00
  2.029314e+01    1.247321e+00
  2.030902e+01    1.248118e+00
  2.032489e+01    1.231649e+00
  2.034077e+01    1.218219e+00
  2.035664e+01    1.239991e+00
  2.037252e+01    1.270277e+00
  2.038839e+01    1.248382e+00
  2.040427e+01    1.250646e+00
  2.042014e+01    1.211057e+00
  2.043602e+01    1.218717e+00
  2.045190e+01    1.244587e+00
  2.046777e+01    1.242760e+00
  2.048365e+01    1.228299e+00
  2.049952e+01    1.228380e+00
  2.051540e+01    1.250684e+00
  2.053127e+01    1.227324e+00
  2.054715e+01    1.197471e+00
  2.056302e+01    1.202297e+00
  2.057890e+01    1.221738e+00
  2.059478e+01    1.215298e+00
  2.061065e+01    1.210301e+00
  2.062653e+01    1.234063e+00
  2.064240e+01    1.218848e+00
  2.065828e+01    1.209522e+00
  2.067415e+01    1.187766e+00
  2.069003e+01    1.215370e+00
  2.070590e+01    1.236668e+00
  2.072178e+01    1.208633e+00
  2.073766e+01    1.214933e+00
  2.075353e+01    1.218295e+00
  2.076941e+01    1.233231e+00
  2.078528e+01    1.211202e+00
  2.080116e+01    1.193142e+00
  2.081703e+01    1.246476e+00
  2.083291e+01    1.219765e+00
  2.084878e+01    1.209025e+00
  2.086466e+01    1.202465e+00
  2.088054e+01    1.179669e+00
  2.089641e+01    1.212154e+00
  2.091229e+01    1.218954e+00
  2.092816e+01    1.230071e+00
  2.094404e+01    1.196938e+00
  2.095991e+01    1.210316e+00
  2.097579e+01    1.203044e+00
  2.099166e+01    1.222614e+00
  2.100754e+01    1.201963e+00
  2.102342e+01    1.212959e+00
  2.103929e+01    1.222927e+00
  2.105517e+01    1.248793e+00
  2.107104e+01    1.227596e+00
  2.108692e+01    1.224109e+00
  2.110279e+01    1.224972e+00
  2.111867e+01    1.227567e+00
  2.113455e+01    1.217396e+00
  2.115042e+01    1.201584e+00
  2.116630e+01    1.214847e+00
  2.118217e+01    1.231721e+00
  2.119805e+01    1.199054e+00
  2.121392e+01    1.217159e+00
  2.122980e+01    1.213230e+00
  2.124567e+01    1.246427e+00
  2.126155e+01    1.226642e+00
  2.127743e+01    1.213311e+00
  2.129330e+01    1.235600e+00
  2.130918e+01    1.271635e+00
  2.132505e+01    1.263218e+00
  2.134093e+01    1.252286e+00
  2.135680e+01    1.264804e+00
  2.137268e+01    1.267227e+00
  2.138855e+01    1.253704e+00
  2.140443e+01    1.273330e+00
  2.142031e+01    1.305864e+00
  2.143618e+01    1.328083e+00
  2.145206e+01    1.303811e+00
  2.146793e+01    1.335911e+00
  2.148381e+01    1.367333e+00
  2.149968e+01    1.402312e+00
  2.151556e+01    1.398329e+00
  2.153143e+01    1.452614e+00
  2.154731e+01    1.522484e+00
  2.156319e+01    1.556338e+00
  2.157906e+01    1.579695e+00
  2.159494e+01    1.668545e+00
  2.161081e+01    1.755056e+00
  2.162669e+01    1.854089e+00
  2.164256e+01    1.940829e+00
  2.165844e+01    2.087551e+00
  2.167431e+01    2.277539e+00
  2.169019e+01    2.495102e+00
  2.170607e+01    2.780742e+00
  2.172194e+01    3.066545e+00
  2.173782e+01    3.450449e+00
  2.175369e+01    3.947871e+00
  2.176957e+01    4.511791e+00
  2.178544e+01    5.092286e+00
  2.180132e+01    5.761930e+00
  2.181719e+01    6.436285e+00
  2.183307e+01    7.080559e+00
  2.184895e+01    7.761615e+00
  2.186482e+01    8.252049e+00
  2.188070e+01    8.572598e+00
  2.189657e+01    8.763222e+00
  2.191245e+01    8.611015e+00
  2.192832e+01    8.151197e+00
  2.194420e+01    7.382838e+00
  2.196007e+01    6.453246e+00
  2.197595e+01    5.588170e+00
  2.199183e+01    4.795358e+00
  2.200770e+01    4.096172e+00
  2.202358e+01    3.538688e+00
  2.203945e+01    3.116656e+00
  2.205533e+01    2.786967e+00
  2.207120e+01    2.494640e+00
  2.208708e+01    2.292782e+00
  2.210296e+01    2.104327e+00
  2.211883e+01    1.952421e+00
  2.213471e+01    1.822168e+00
  2.215058e+01    1.727260e+00
  2.216646e+01    1.636474e+00
  2.218233e+01    1.557698e+00
  2.219821e+01    1.511541e+00
  2.221408e+01    1.488712e+00
  2.222996e+01    1.407568e+00
  2.224584e+01    1.384231e+00
  2.226171e+01    1.355831e+00
  2.227759e+01    1.338346e+00
  2.229346e+01    1.292882e+00
  2.230934e+01    1.264775e+00
  2.232521e+01    1.256512e+00
  2.234109e+01    1.244003e+00
  2.235696e+01    1.243613e+00
  2.237284e+01    1.214656e+00
  2.238872e+01    1.197459e+00
  2.240459e+01    1.185600e+00
  2.242047e+01    1.153037e+00
  2.243634e+01    1.182442e+00
  2.245222e+01    1.192825e+00
  2.246809e+01    1.163890e+00
  2.248397e+01    1.143340e+00
  2.249984e+01    1.132996e+00
  2.251572e+01    1.122896e+00
  2.253160e+01    1.114914e+00
  2.254747e+01    1.097420e+00
  2.256335e+01    1.094403e+00
  2.257922e+01    1.108594e+00
  2.259510e+01    1.083977e+00
  2.261097e+01    1.101041e+00
  2.262685e+01    1.080768e+00
  2.264272e+01    1.090136e+00
  2.265860e+01    1.086846e+00
  2.267448e+01    1.078464e+00
  2.269035e+01    1.067502e+00
  2.270623e+01    1.068001e+00
  2.272210e+01    1.064122e+00
  2.273798e+01    1.056823e+00
  2.275385e+01    1.072867e+00
  2.276973e+01    1.054827e+00
  2.278560e+01    1.014126e+00
  2.280148e+01    1.025761e+00
  2.281736e+01    1.036422e+00
  2.283323e+01    1.036687e+00
  2.284911e+01    1.012412e+00
  2.286498e+01    1.035105e+00
  2.288086e+01    1.008243e+00
  2.289673e+01    1.020019e+00
  2.291261e+01    1.010413e+00
  2.292848e+01    1.014626e+00
  2.294436e+01    1.005165e+00
  2.296024e+01    1.028194e+00
  2.297611e+01    1.021642e+00
  2.299199e+01    9.961523e-01
  2.300786e+01    1.021970e+00
  2.302374e+01    1.037132e+00
  2.303961e+01    1.012145e+00
  2.305549e+01    1.007786e+00
  2.307137e+01    9.979745e-01
  2.308724e+01    1.018675e+00
  2.310312e+01    1.004086e+00
  2.311899e+01    9.908458e-01
  2.313487e+01    1.009469e+00
  2.315074e+01    9.811533e-01
  2.316662e+01    9.547755e-01
  2.318249e+01    9.736754e-01
  2.319837e+01    9.779075e-01
  2.321425e+01    9.758688e-01
  2.323012e+01    9.602063e-01
  2.324600e+01    9.782485e-01
  2.326187e+01    9.720732e-01
  2.327775e+01    9.748200e-01
  2.329362e+01    9.668002e-01
  2.330950e+01    9.608328e-01
  2.332537e+01    9.656545e-01
  2.334125e+01    9.539834e-01
  2.335713e+01    9.442749e-01
  2.337300e+01    9.509883e-01
  2.338888e+01    9.571321e-01
  2.340475e+01    9.535186e-01
  2.342063e+01    9.482332e-01
  2.343650e+01    9.523185e-01
  2.345238e+01    9.604034e-01
  2.346825e+01    9.636083e-01
  2.348413e+01    9.660161e-01
  2.350001e+01    9.446579e-01
  2.351588e+01    9.438054e-01
  2.353176e+01    9.358513e-01
  2.354763e+01    9.416328e-01
  2.356351e+01    9.497743e-01
  2.357938e+01    9.432898e-01
  2.359526e+01    9.536971e-01
  2.361113e+01    9.471153e-01
  2.362701e+01    9.474173e-01
  2.364289e+01    9.422616e-01
  2.365876e+01    9.429512e-01
  2.367464e+01    9.396663e-01
  2.369051e+01    9.307278e-01
  2.370639e+01    9.263567e-01
  2.372226e+01    9.269634e-01
  2.373814e+01    9.361677e-01
  2.375401e+01    9.359720e-01
  2.376989e+01    9.315560e-01
  2.378577e+01    9.210239e-01
  2.380164e+01    9.011050e-01
  2.381752e+01    8.966759e-01
  2.383339e+01    9.067260e-01
  2.384927e+01    9.120387e-01
  2.386514e+01    9.092975e-01
  2.388102e+01    8.847844e-01
  2.389689e+01    8.737082e-01
  2.391277e+01    9.120018e-01
  2.392865e+01    9.063098e-01
  2.394452e+01    9.048363e-01
  2.396040e+01    8.859217e-01
  2.397627e+01    8.927880e-01
  2.399215e+01    8.809379e-01
  2.400802e+01    8.914961e-01
  2.402390e+01    8.798515e-01
  2.403978e+01    8.692372e-01
  2.405565e+01    8.701560e-01
  2.407153e+01    8.894463e-01
  2.408740e+01    8.928419e-01
  2.410328e+01    8.658780e-01
  2.411915e+01    8.601786e-01
  2.413503e+01    8.711365e-01
  2.415090e+01    8.527073e-01
  2.416678e+01    8.734579e-01
  2.418266e+01    8.807112e-01
  2.419853e+01    8.882563e-01
  2.421441e+01    8.600622e-01
  2.423028e+01    8.533671e-01
  2.424616e+01    8.562278e-01
  2.426203e+01    8.810949e-01
  2.427791e+01    8.456963e-01
  2.429378e+01    8.657288e-01
  2.430966e+01    8.682783e-01
  2.432554e+01    8.690835e-01
  2.434141e+01    8.736427e-01
  2.435729e+01    8.679113e-01
  2.437316e+01    8.990387e-01
  2.438904e+01    8.868502e-01
  2.440491e+01    8.839505e-01
  2.442079e+01    9.003993e-01
  2.443666e+01    8.880212e-01
  2.445254e+01    8.696539e-01
  2.446842e+01    8.747010e-01
  2.448429e+01    8.848944e-01
  2.450017e+01    8.763304e-01
  2.451604e+01    8.605931e-01
  2.453192e+01    8.749806e-01
  2.454779e+01    8.800307e-01
  2.456367e+01    8.782167e-01
  2.457954e+01    8.688096e-01
  2.459542e+01    8.898734e-01
  2.461130e+01    9.019127e-01
  2.462717e+01    8.909896e-01
  2.464305e+01    8.634803e-01
  2.465892e+01    8.651075e-01
  2.467480e+01    8.830634e-01
  2.469067e+01    8.770255e-01
  2.470655e+01    8.777863e-01
  2.472242e+01    9.042269e-01
  2.473830e+01    8.901279e-01
  2.475418e+01    8.796909e-01
  2.477005e+01    8.789073e-01
  2.478593e+01    8.890227e-01
  2.480180e+01    8.865877e-01
  2.481768e+01    8.849510e-01
  2.483355e+01    8.847574e-01
  2.484943e+01    8.705384e-01
  2.486530e+01    8.687408e-01
  2.488118e+01    8.785155e-01
  2.489706e+01    8.833390e-01
  2.491293e+01    8.852811e-01
  2.492881e+01    8.858872e-01
  2.494468e+01    8.748896e-01
  2.496056e+01    8.839291e-01
  2.497643e+01    8.858149e-01
  2.499231e+01    9.018210e-01
  2.500819e+01    8.962369e-01
  2.502406e+01    8.846201e-01
  2.503994e+01    8.735105e-01
  2.505581e+01    8.931162e-01
  2.507169e+01    8.995368e-01
  2.508756e+01    9.019637e-01
  2.510344e+01    8.931016e-01
  2.511931e+01    8.882979e-01
  2.513519e+01    9.035453e-01
  2.515107e+01    8.976090e-01
  2.516694e+01    8.911545e-01
  2.518282e+01    9.083264e-01
  2.519869e+01    8.956957e-01
  2.521457e+01    9.077917e-01
  2.523044e+01    9.040803e-01
  2.524632e+01    9.081485e-01
  2.526219e+01    9.198887e-01
  2.527807e+01    9.189535e-01
  2.529395e+01    9.461545e-01
  2.530982e+01    9.492923e-01
  2.532570e+01    9.392517e-01
  2.534157e+01    9.404870e-01
  2.535745e+01    9.586899e-01
  2.537332e+01    9.656372e-01
  2.538920e+01    9.745693e-01
  2.540507e+01    1.006227e+00
  2.542095e+01    1.007138e+00
  2.543683e+01    9.983750e-01
  2.545270e+01    9.967153e-01
  2.546858e+01    1.011445e+00
  2.548445e+01    1.042316e+00
  2.550033e+01    1.042917e+00
  2.551620e+01    1.055446e+00
  2.553208e+01    1.079484e+00
  2.554795e+01    1.105991e+00
  2.556383e+01    1.123638e+00
  2.557971e+01    1.151097e+00
  2.559558e+01    1.191516e+00
  2.561146e+01    1.217605e+00
  2.562733e+01    1.257787e+00
  2.564321e+01    1.277690e+00
  2.565908e+01    1.344511e+00
  2.567496e+01    1.400240e+00
  2.569083e+01    1.484239e+00
  2.570671e+01    1.574891e+00
  2.572259e+01    1.658428e+00
  2.573846e+01    1.825368e+00
  2.575434e+01    2.040498e+00
  2.577021e+01    2.205427e+00
  2.578609e+01    2.459316e+00
  2.580196e+01    2.762312e+00
  2.581784e+01    3.092964e+00
  2.583371e+01    3.585453e+00
  2.584959e+01    4.059413e+00
  2.586547e+01    4.592699e+00
  2.588134e+01    5.150084e+00
  2.589722e+01    5.726700e+00
  2.591309e+01    6.185657e+00
  2.592897e+01    6.595134e+00
  2.594484e+01    6.927558e+00
  2.596072e+01    7.024075e+00
  2.597660e+01    6.830220e+00
  2.599247e+01    6.395401e+00
  2.600835e+01    5.851945e+00
  2.602422e+01    5.158232e+00
  2.604010e+01    4.487556e+00
  2.605597e+01    3.913623e+00
  2.607185e+01    3.399465e+00
  2.608772e+01    2.974162e+00
  2.610360e+01    2.627928e+00
  2.611948e+01    2.317661e+00
  2.613535e+01    2.068028e+00
  2.615123e+01    1.898067e+00
  2.616710e+01    1.720519e+00
  2.618298e+01    1.623366e+00
  2.619885e+01    1.538037e+00
  2.621473e+01    1.454523e+00
  2.623060e+01    1.384497e+00
  2.624648e+01    1.328053e+00
  2.626236e+01    1.276901e+00
  2.627823e+01    1.227099e+00
  2.629411e+01    1.171394e+00
  2.630998e+01    1.146446e+00
  2.632586e+01    1.132254e+00
  2.634173e+01    1.127469e+00
  2.635761e+01    1.088911e+00
  2.637348e+01    1.066754e+00
  2.638936e+01    1.036306e+00
  2.640524e+01    1.006713e+00
  2.642111e+01    1.008976e+00
  2.643699e+01    1.018410e+00
  2.645286e+01    1.005333e+00
  2.646874e+01    9.871116e-01
  2.648461e+01    9.882702e-01
  2.650049e+01    9.978642e-01
  2.651636e+01    1.003526e+00
  2.653224e+01    9.830489e-01
  2.654812e+01    9.587376e-01
  2.656399e+01    9.751543e-01
  2.657987e+01    9.755216e-01
  2.659574e+01    9.768973e-01
  2.661162e+01    9.517030e-01
  2.662749e+01    9.578835e-01
  2.664337e+01    9.597231e-01
  2.665924e+01    9.629666e-01
  2.667512e+01    9.626727e-01
  2.669100e+01    9.410782e-01
  2.670687e+01    9.517849e-01
  2.672275e+01    9.520044e-01
  2.673862e+01    9.342274e-01
  2.675450e+01    9.398280e-01
  2.677037e+01    9.581183e-01
  2.678625e+01    9.709002e-01
  2.680212e+01    9.749537e-01
  2.681800e+01    9.827057e-01
  2.683388e+01    9.686782e-01
  2.684975e+01    9.620256e-01
  2.686563e+01    9.975942e-01
  2.688150e+01    9.800432e-01
  2.689738e+01    9.740554e-01
  2.691325e+01    9.936308e-01
  2.692913e+01    9.989256e-01
  2.694501e+01    1.028418e+00
  2.696088e+01    1.027922e+00
  2.697676e+01    1.046852e+00
  2.699263e+01    1.086900e+00
  2.700851e+01    1.110505e+00
  2.702438e+01    1.131474e+00
  2.704026e+01    1.197662e+00
  2.705613e+01    1.228587e+00
  2.707201e+01    1.295771e+00
  2.708789e+01    1.382550e+00
  2.710376e+01    1.456208e+00
  2.711964e+01    1.562618e+00
  2.713551e+01    1.696838e+00
  2.715139e+01    1.819589e+00
  2.716726e+01    1.925578e+00
  2.718314e+01    2.046212e+00
  2.719901e+01    2.128990e+00
  2.721489e+01    2.116952e+00
  2.723077e+01    2.104220e+00
  2.724664e+01    2.049006e+00
  2.726252e+01    1.913841e+00
  2.727839e+01    1.801490e+00
  2.729427e+01    1.674755e+00
  2.731014e+01    1.547246e+00
  2.732602e+01    1.467299e+00
  2.734189e+01    1.346770e+00
  2.735777e+01    1.271862e+00
  2.737365e+01    1.210942e+00
  2.738952e+01    1.162335e+00
  2.740540e+01    1.105871e+00
  2.742127e+01    1.080314e+00
  2.743715e+01    1.047675e+00
  2.745302e+01    9.978502e-01
  2.746890e+01    9.963086e-01
  2.748477e+01    9.729462e-01
  2.750065e+01    9.483998e-01
  2.751653e+01    9.718446e-01
  2.753240e+01    9.543345e-01
  2.754828e+01    9.384366e-01
  2.756415e+01    9.168378e-01
  2.758003e+01    9.100965e-01
  2.759590e+01    9.180240e-01
  2.761178e+01    9.162660e-01
  2.762765e+01    8.894284e-01
  2.764353e+01    8.945990e-01
  2.765941e+01    9.105324e-01
  2.767528e+01    9.065442e-01
  2.769116e+01    8.876174e-01
  2.770703e+01    8.884367e-01
  2.772291e+01    8.967705e-01
  2.773878e+01    8.811218e-01
  2.775466e+01    8.670484e-01
  2.777054e+01    8.663538e-01
  2.778641e+01    8.741324e-01
  2.780229e+01    8.764501e-01
  2.781816e+01    8.773251e-01
  2.783404e+01    8.657888e-01
  2.784991e+01    8.445551e-01
  2.786579e+01    8.529375e-01
  2.788166e+01    8.521842e-01
  2.789754e+01    8.709239e-01
  2.791342e+01    8.744877e-01
  2.792929e+01    8.654220e-01
  2.794517e+01    8.550626e-01
  2.796104e+01    8.685269e-01
  2.797692e+01    8.707912e-01
  2.799279e+01    8.449124e-01
  2.800867e+01    8.432640e-01
  2.802454e+01    8.452471e-01
  2.804042e+01    8.382291e-01
  2.805630e+01    8.608472e-01
  2.807217e+01    8.431212e-01
  2.808805e+01    8.527055e-01
  2.810392e+01    8.387720e-01
  2.811980e+01    8.546496e-01
  2.813567e+01    8.568687e-01
  2.815155e+01    8.523944e-01
  2.816742e+01    8.396776e-01
  2.818330e+01    8.547211e-01
  2.819918e+01    8.348168e-01
  2.821505e+01    8.362008e-01
  2.823093e+01    8.467199e-01
  2.824680e+01    8.405707e-01
  2.826268e+01    8.302836e-01
  2.827855e+01    8.540568e-01
  2.829443e+01    8.513147e-01
  2.831030e+01    8.342216e-01
  2.832618e+01    8.382709e-01
  2.834206e+01    8.322090e-01
  2.835793e+01    8.117388e-01
  2.837381e+01    8.357388e-01
  2.838968e+01    8.436047e-01
  2.840556e+01    8.409576e-01
  2.842143e+01    8.435529e-01
  2.843731e+01    8.334565e-01
  2.845318e+01    8.376716e-01
  2.846906e+01    8.306816e-01
  2.848494e+01    8.142664e-01
  2.850081e+01    8.443015e-01
  2.851669e+01    8.323642e-01
  2.853256e+01    8.154234e-01
  2.854844e+01    8.097131e-01
  2.856431e+01    8.074911e-01
  2.858019e+01    8.171746e-01
  2.859606e+01    8.395708e-01
  2.861194e+01    8.397606e-01
  2.862782e+01    8.425797e-01
  2.864369e+01    8.196540e-01
  2.865957e+01    8.291627e-01
  2.867544e+01    8.232477e-01
  2.869132e+01    8.207668e-01
  2.870719e+01    8.128834e-01
  2.872307e+01    8.159591e-01
  2.873895e+01    8.296857e-01
  2.875482e+01    8.460438e-01
  2.877070e+01    8.311613e-01
  2.878657e+01    8.126118e-01
  2.880245e+01    8.193791e-01
  2.881832e+01    8.134880e-01
  2.883420e+01    8.020722e-01
  2.885007e+01    7.923170e-01
  2.886595e+01    7.984229e-01
  2.888183e+01    8.042320e-01
  2.889770e+01    8.105060e-01
  2.891358e+01    7.977929e-01
  2.892945e+01    7.946000e-01
  2.894533e+01    8.033473e-01
  2.896120e+01    8.046461e-01
  2.897708e+01    8.244016e-01
  2.899295e+01    8.094209e-01
  2.900883e+01    7.990537e-01
  2.902471e+01    8.139049e-01
  2.904058e+01    8.141757e-01
  2.905646e+01    7.912183e-01
  2.907233e+01    8.005611e-01
  2.908821e+01    7.844196e-01
  2.910408e+01    7.864423e-01
  2.911996e+01    7.999652e-01
  2.913583e+01    8.083495e-01
  2.915171e+01    7.891966e-01
  2.916759e+01    7.873047e-01
  2.918346e+01    8.006131e-01
  2.919934e+01    8.110335e-01
  2.921521e+01    8.044302e-01
  2.923109e+01    7.833737e-01
  2.924696e+01    7.872520e-01
  2.926284e+01    7.901945e-01
  2.927871e+01    7.996624e-01
  2.929459e+01    7.951278e-01
  2.931047e+01    7.889699e-01
  2.932634e+01    7.948499e-01
  2.934222e+01    7.886741e-01
  2.935809e+01    7.968996e-01
  2.937397e+01    8.024768e-01
  2.938984e+01    7.808243e-01
  2.940572e+01    7.886506e-01
  2.942159e+01    8.045447e-01
  2.943747e+01    8.041671e-01
  2.945335e+01    7.983502e-01
  2.946922e+01    8.057973e-01
  2.948510e+01    8.019812e-01
  2.950097e+01    7.704615e-01
  2.951685e+01    7.569702e-01
  2.953272e+01    8.003232e-01
  2.954860e+01    7.818861e-01
  2.956447e+01    7.928971e-01
  2.958035e+01    7.821683e-01
  2.959623e+01    7.737008e-01
  2.961210e+01    7.976696e-01
  2.962798e+01    8.116881e-01
  2.964385e+01    7.933643e-01
  2.965973e+01    7.837015e-01
  2.967560e+01    8.046831e-01
  2.969148e+01    8.016899e-01
  2.970736e+01    7.992260e-01
  2.972323e+01    7.924562e-01
  2.973911e+01    7.983255e-01
  2.975498e+01    7.721652e-01
  2.977086e+01    7.866515e-01
  2.978673e+01    7.990417e-01
  2.980261e+01    7.772989e-01
  2.981848e+01    7.700812e-01
  2.983436e+01    7.631951e-01
  2.985024e+01    7.697100e-01
  2.986611e+01    7.653065e-01
  2.988199e+01    7.694974e-01
  2.989786e+01    7.865300e-01
  2.991374e+01    8.008448e-01
  2.992961e+01    7.940904e-01
  2.994549e+01    7.832212e-01
  2.996136e+01    7.789458e-01
  2.997724e+01    7.831548e-01
  2.999312e+01    7.963190e-01
  3.000899e+01    7.992311e-01
  3.002487e+01    7.987379e-01
  3.004074e+01    8.051932e-01
  3.005662e+01    8.139762e-01
  3.007249e+01    8.254151e-01
  3.008837e+01    7.990257e-01
  3.010424e+01    7.966231e-01
  3.012012e+01    8.018282e-01
  3.013600e+01    7.902382e-01
  3.015187e+01    7.702723e-01
  3.016775e+01    7.739727e-01
  3.018362e+01    7.633542e-01
  3.019950e+01    7.874371e-01
  3.021537e+01    7.896522e-01
  3.023125e+01    7.962921e-01
  3.024712e+01    7.998312e-01
  3.026300e+01    8.093746e-01
  3.027888e+01    8.019469e-01
  3.029475e+01    7.754235e-01
  3.031063e+01    7.683125e-01
  3.032650e+01    7.747400e-01
  3.034238e+01    7.810965e-01
  3.035825e+01    7.828985e-01
  3.037413e+01    7.701225e-01
  3.039000e+01    7.697142e-01
  3.040588e+01    7.546624e-01
  3.042176e+01    7.727087e-01
  3.043763e+01    7.831819e-01
  3.045351e+01    7.658389e-01
  3.046938e+01    7.815194e-01
  3.048526e+01    7.912757e-01
  3.050113e+01    7.533489e-01
  3.051701e+01    7.801115e-01
  3.053288e+01    7.734087e-01
  3.054876e+01    7.665516e-01
  3.056464e+01    7.614689e-01
  3.058051e+01    7.917321e-01
  3.059639e+01    7.897639e-01
  3.061226e+01    7.814032e-01
  3.062814e+01    7.873674e-01
  3.064401e+01    7.952589e-01
  3.065989e+01    7.851184e-01
  3.067577e+01    7.975522e-01
  3.069164e+01    7.865210e-01
  3.070752e+01    7.880043e-01
  3.072339e+01    7.704542e-01
  3.073927e+01    7.734044e-01
  3.075514e+01    7.811117e-01
  3.077102e+01    7.627763e-01
  3.078689e+01    7.738820e-01
  3.080277e+01    7.705663e-01
  3.081865e+01    7.765957e-01
  3.083452e+01    7.840986e-01
  3.085040e+01    7.646893e-01
  3.086627e+01    7.992744e-01
  3.088215e+01    8.059806e-01
  3.089802e+01    7.741823e-01
  3.091390e+01    7.766134e-01
  3.092977e+01    7.712168e-01
  3.094565e+01    7.777572e-01
  3.096153e+01    7.832863e-01
  3.097740e+01    7.790666e-01
  3.099328e+01    7.838839e-01
  3.100915e+01    7.969670e-01
  3.102503e+01    7.827598e-01
  3.104090e+01    7.750308e-01
  3.105678e+01    7.795073e-01
  3.107265e+01    7.770076e-01
  3.108853e+01    7.591321e-01
  3.110441e+01    7.814102e-01
  3.112028e+01    7.689916e-01
  3.113616e+01    7.972385e-01
  3.115203e+01    7.934679e-01
  3.116791e+01    7.820372e-01
  3.118378e+01    7.791643e-01
  3.119966e+01    7.813333e-01
  3.121553e+01    7.788200e-01
  3.123141e+01    7.966793e-01
  3.124729e+01    8.079402e-01
  3.126316e+01    7.868539e-01
  3.127904e+01    7.954033e-01
  3.129491e+01    7.965709e-01
  3.131079e+01    7.971562e-01
  3.132666e+01    7.892652e-01
  3.134254e+01    7.903333e-01
  3.135841e+01    7.984459e-01
  3.137429e+01    8.036737e-01
  3.139017e+01    8.024369e-01
  3.140604e+01    8.013085e-01
  3.142192e+01    8.044984e-01
  3.143779e+01    7.994043e-01
  3.145367e+01    7.894557e-01
  3.146954e+01    8.029338e-01
  3.148542e+01    8.130373e-01
  3.150129e+01    7.937108e-01
  3.151717e+01    7.913059e-01
  3.153305e+01    8.115031e-01
  3.154892e+01    8.448286e-01
  3.156480e+01    8.386703e-01
  3.158067e+01    8.492517e-01
  3.159655e+01    8.637190e-01
  3.161242e+01    8.933238e-01
  3.162830e+01    9.014614e-01
  3.164418e+01    9.119374e-01
  3.166005e+01    9.166089e-01
  3.167593e+01    9.399044e-01
  3.169180e+01    9.798837e-01
  3.170768e+01    1.033459e+00
  3.172355e+01    1.054755e+00
  3.173943e+01    1.103900e+00
  3.175530e+01    1.149190e+00
  3.177118e+01    1.208490e+00
  3.178706e+01    1.307611e+00
  3.180293e+01    1.426759e+00
  3.181881e+01    1.552372e+00
  3.183468e+01    1.669855e+00
  3.185056e+01    1.773713e+00
  3.186643e+01    1.932249e+00
  3.188231e+01    1.995287e+00
  3.189818e+01    2.030120e+00
  3.191406e+01    2.032611e+00
  3.192994e+01    1.978281e+00
  3.194581e+01    1.930204e+00
  3.196169e+01    1.835285e+00
  3.197756e+01    1.672408e+00
  3.199344e+01    1.532543e+00
  3.200931e+01    1.400748e+00
  3.202519e+01    1.327103e+00
  3.204106e+01    1.190239e+00
  3.205694e+01    1.137919e+00
  3.207282e+01    1.078138e+00
  3.208869e+01    9.925566e-01
  3.210457e+01    9.596285e-01
  3.212044e+01    9.502591e-01
  3.213632e+01    9.119410e-01
  3.215219e+01    9.063440e-01
  3.216807e+01    9.007642e-01
  3.218394e+01    8.940368e-01
  3.219982e+01    8.399999e-01
  3.221570e+01    8.340582e-01
  3.223157e+01    8.316214e-01
  3.224745e+01    8.155127e-01
  3.226332e+01    8.259773e-01
  3.227920e+01    8.300626e-01
  3.229507e+01    8.110726e-01
  3.231095e+01    7.966219e-01
  3.232682e+01    8.127691e-01
  3.234270e+01    7.822341e-01
  3.235858e+01    7.913531e-01
  3.237445e+01    7.793558e-01
  3.239033e+01    7.717501e-01
  3.240620e+01    7.854475e-01
  3.242208e+01    7.902664e-01
  3.243795e+01    7.755344e-01
  3.245383e+01    7.641711e-01
  3.246970e+01    7.586978e-01
  3.248558e+01    7.929491e-01
  3.250146e+01    7.669164e-01
  3.251733e+01    7.563077e-01
  3.253321e+01    7.812032e-01
  3.254908e+01    7.730102e-01
