# == pyFAI calibration ==
# Distance Sample to Detector: 0.3999999939076516 m
# PONI: 9.750e-02, 1.135e-01 m
# Rotations: -0.000175 0.000000 -0.000000 rad
# 
# == Fit2d calibration ==
# Distance Sample-beamCenter: 400.000 mm
# Center: x=1514.000, y=1300.000 pix
# Tilt: 0.010 deg  TiltPlanRot: 0.010 deg
# 
# Detector Detector	 Spline= None	 PixelSize= 7.500e-05, 7.500e-05 m
#    Detector has a mask: False 
#    Detector has a dark current: False 
#    detector has a flat field: False 
# 
# Wavelength: 6.888e-11 m
# Mask applied: user provided
# Dark current applied: False
# Flat field applied: False
# Polarization factor: 0.99
# Normalization factor: 1.0
# --> /home/myspot/data/2024_07_Rosario/Ru-CGO-ex/2024-07-27_003_Ru-CGO-ex_Reaction_dwell_000023_data_000068.dat
#       q_nm^-1             I 
  2.003187e-02    0.000000e+00
  3.590745e-02    7.159502e-02
  5.178302e-02    4.982200e-02
  6.765859e-02    3.249404e-02
  8.353417e-02    8.182689e-02
  9.940974e-02    4.434204e-02
  1.152853e-01    2.737308e-02
  1.311609e-01    0.000000e+00
  1.470365e-01    1.543290e-02
  1.629120e-01    4.026218e-02
  1.787876e-01    1.442671e-02
  1.946632e-01    1.976827e-02
  2.105388e-01    3.696898e-02
  2.264143e-01    6.374367e-02
  2.422899e-01    6.583267e-02
  2.581655e-01    1.917180e-02
  2.740411e-01    2.304467e-02
  2.899166e-01    2.649043e-02
  3.057922e-01    2.648416e-02
  3.216678e-01    7.734770e-02
  3.375433e-01    9.278978e-02
  3.534189e-01    7.422465e-02
  3.692945e-01    5.245586e-02
  3.851701e-01    2.898516e-02
  4.010456e-01    2.230303e-02
  4.169212e-01    2.953331e-02
  4.327968e-01    2.745653e-02
  4.486724e-01    1.659152e-02
  4.645479e-01    4.079744e-02
  4.804235e-01    5.867753e-02
  4.962991e-01    6.002546e-02
  5.121747e-01    6.163100e-02
  5.280502e-01    4.233904e-02
  5.439258e-01    3.197998e-02
  5.598014e-01    3.867015e-02
  5.756770e-01    4.303658e-02
  5.915525e-01    4.803328e-02
  6.074281e-01    3.763219e-02
  6.233037e-01    2.562050e-02
  6.391793e-01    3.826788e-02
  6.550548e-01    5.050659e-02
  6.709304e-01    3.705904e-02
  6.868060e-01    2.483786e-02
  7.026815e-01    3.873353e-02
  7.185571e-01    3.636897e-02
  7.344327e-01    5.276017e-02
  7.503083e-01    5.864640e-02
  7.661838e-01    9.990118e-02
  7.820594e-01    1.219518e-01
  7.979350e-01    1.357847e-01
  8.138106e-01    1.781309e-01
  8.296861e-01    2.305374e-01
  8.455617e-01    3.129838e-01
  8.614373e-01    3.472438e-01
  8.773129e-01    4.773719e-01
  8.931884e-01    6.021315e-01
  9.090640e-01    6.426412e-01
  9.249396e-01    7.353922e-01
  9.408152e-01    8.609849e-01
  9.566907e-01    9.021647e-01
  9.725663e-01    1.014403e+00
  9.884419e-01    1.233357e+00
  1.004317e+00    1.201709e+00
  1.020193e+00    1.207152e+00
  1.036069e+00    1.373380e+00
  1.051944e+00    1.526162e+00
  1.067820e+00    1.515060e+00
  1.083695e+00    1.586994e+00
  1.099571e+00    1.566713e+00
  1.115446e+00    1.512633e+00
  1.131322e+00    1.584191e+00
  1.147198e+00    1.617015e+00
  1.163073e+00    1.691844e+00
  1.178949e+00    1.583957e+00
  1.194824e+00    1.728528e+00
  1.210700e+00    1.882954e+00
  1.226575e+00    2.214006e+00
  1.242451e+00    2.324873e+00
  1.258327e+00    2.475005e+00
  1.274202e+00    2.601651e+00
  1.290078e+00    2.684807e+00
  1.305953e+00    2.608157e+00
  1.321829e+00    2.586065e+00
  1.337705e+00    2.597867e+00
  1.353580e+00    2.595335e+00
  1.369456e+00    2.687368e+00
  1.385331e+00    2.841953e+00
  1.401207e+00    2.839667e+00
  1.417082e+00    2.893729e+00
  1.432958e+00    2.926839e+00
  1.448834e+00    3.001138e+00
  1.464709e+00    2.980394e+00
  1.480585e+00    2.919785e+00
  1.496460e+00    2.930446e+00
  1.512336e+00    3.058419e+00
  1.528211e+00    3.185137e+00
  1.544087e+00    3.136752e+00
  1.559963e+00    3.176559e+00
  1.575838e+00    3.296628e+00
  1.591714e+00    3.236241e+00
  1.607589e+00    3.281124e+00
  1.623465e+00    3.220599e+00
  1.639340e+00    3.256450e+00
  1.655216e+00    3.241513e+00
  1.671092e+00    3.193841e+00
  1.686967e+00    3.206543e+00
  1.702843e+00    3.149121e+00
  1.718718e+00    3.121439e+00
  1.734594e+00    3.097725e+00
  1.750469e+00    3.142155e+00
  1.766345e+00    3.065172e+00
  1.782221e+00    3.038563e+00
  1.798096e+00    3.013674e+00
  1.813972e+00    3.129153e+00
  1.829847e+00    3.187297e+00
  1.845723e+00    3.062105e+00
  1.861598e+00    3.070207e+00
  1.877474e+00    2.979899e+00
  1.893350e+00    3.033727e+00
  1.909225e+00    3.108632e+00
  1.925101e+00    3.062704e+00
  1.940976e+00    3.103777e+00
  1.956852e+00    3.125809e+00
  1.972727e+00    3.053709e+00
  1.988603e+00    3.088348e+00
  2.004479e+00    3.190100e+00
  2.020354e+00    3.110065e+00
  2.036230e+00    2.985241e+00
  2.052105e+00    3.051938e+00
  2.067981e+00    3.108480e+00
  2.083856e+00    3.109647e+00
  2.099732e+00    3.143144e+00
  2.115608e+00    3.017144e+00
  2.131483e+00    3.039721e+00
  2.147359e+00    3.048580e+00
  2.163234e+00    3.068322e+00
  2.179110e+00    3.134282e+00
  2.194985e+00    3.140996e+00
  2.210861e+00    3.175702e+00
  2.226737e+00    3.086717e+00
  2.242612e+00    3.081762e+00
  2.258488e+00    3.142505e+00
  2.274363e+00    3.116097e+00
  2.290239e+00    3.011490e+00
  2.306115e+00    3.111844e+00
  2.321990e+00    3.087606e+00
  2.337866e+00    3.135381e+00
  2.353741e+00    3.186570e+00
  2.369617e+00    3.235141e+00
  2.385492e+00    3.155250e+00
  2.401368e+00    3.177582e+00
  2.417244e+00    3.215852e+00
  2.433119e+00    3.246052e+00
  2.448995e+00    3.224949e+00
  2.464870e+00    3.227084e+00
  2.480746e+00    3.203062e+00
  2.496621e+00    3.176048e+00
  2.512497e+00    3.223519e+00
  2.528373e+00    3.277319e+00
  2.544248e+00    3.207680e+00
  2.560124e+00    3.201472e+00
  2.575999e+00    3.285800e+00
  2.591875e+00    3.205512e+00
  2.607750e+00    3.188825e+00
  2.623626e+00    3.225149e+00
  2.639502e+00    3.269318e+00
  2.655377e+00    3.297926e+00
  2.671253e+00    3.250995e+00
  2.687128e+00    3.314514e+00
  2.703004e+00    3.260584e+00
  2.718879e+00    3.145101e+00
  2.734755e+00    3.291754e+00
  2.750631e+00    3.313906e+00
  2.766506e+00    3.297318e+00
  2.782382e+00    3.340807e+00
  2.798257e+00    3.411221e+00
  2.814133e+00    3.401957e+00
  2.830008e+00    3.363893e+00
  2.845884e+00    3.315469e+00
  2.861760e+00    3.412074e+00
  2.877635e+00    3.387465e+00
  2.893511e+00    3.230502e+00
  2.909386e+00    3.216025e+00
  2.925262e+00    3.359371e+00
  2.941137e+00    3.315052e+00
  2.957013e+00    3.312761e+00
  2.972889e+00    3.331856e+00
  2.988764e+00    3.324765e+00
  3.004640e+00    3.359374e+00
  3.020515e+00    3.369136e+00
  3.036391e+00    3.367129e+00
  3.052266e+00    3.362476e+00
  3.068142e+00    3.354019e+00
  3.084018e+00    3.406238e+00
  3.099893e+00    3.415006e+00
  3.115769e+00    3.345184e+00
  3.131644e+00    3.282522e+00
  3.147520e+00    3.330060e+00
  3.163395e+00    3.419645e+00
  3.179271e+00    3.361873e+00
  3.195147e+00    3.309214e+00
  3.211022e+00    3.356493e+00
  3.226898e+00    3.356508e+00
  3.242773e+00    3.334375e+00
  3.258649e+00    3.382969e+00
  3.274525e+00    3.355274e+00
  3.290400e+00    3.394577e+00
  3.306276e+00    3.373691e+00
  3.322151e+00    3.459349e+00
  3.338027e+00    3.413489e+00
  3.353902e+00    3.363550e+00
  3.369778e+00    3.419626e+00
  3.385654e+00    3.428720e+00
  3.401529e+00    3.468972e+00
  3.417405e+00    3.358189e+00
  3.433280e+00    3.326281e+00
  3.449156e+00    3.421970e+00
  3.465031e+00    3.477838e+00
  3.480907e+00    3.542664e+00
  3.496783e+00    3.428034e+00
  3.512658e+00    3.358802e+00
  3.528534e+00    3.310668e+00
  3.544409e+00    3.347144e+00
  3.560285e+00    3.462989e+00
  3.576160e+00    3.447052e+00
  3.592036e+00    3.399340e+00
  3.607912e+00    3.486184e+00
  3.623787e+00    3.557130e+00
  3.639663e+00    3.448695e+00
  3.655538e+00    3.487151e+00
  3.671414e+00    3.519550e+00
  3.687289e+00    3.544620e+00
  3.703165e+00    3.538582e+00
  3.719041e+00    3.490619e+00
  3.734916e+00    3.472648e+00
  3.750792e+00    3.512693e+00
  3.766667e+00    3.637184e+00
  3.782543e+00    3.532767e+00
  3.798418e+00    3.518512e+00
  3.814294e+00    3.588729e+00
  3.830170e+00    3.556937e+00
  3.846045e+00    3.459186e+00
  3.861921e+00    3.476189e+00
  3.877796e+00    3.521815e+00
  3.893672e+00    3.454274e+00
  3.909547e+00    3.466934e+00
  3.925423e+00    3.469873e+00
  3.941299e+00    3.478907e+00
  3.957174e+00    3.494708e+00
  3.973050e+00    3.458153e+00
  3.988925e+00    3.534832e+00
  4.004801e+00    3.502974e+00
  4.020676e+00    3.528403e+00
  4.036552e+00    3.496934e+00
  4.052428e+00    3.509960e+00
  4.068303e+00    3.565573e+00
  4.084179e+00    3.526430e+00
  4.100054e+00    3.497413e+00
  4.115930e+00    3.514235e+00
  4.131806e+00    3.551263e+00
  4.147681e+00    3.586350e+00
  4.163557e+00    3.572866e+00
  4.179432e+00    3.653051e+00
  4.195308e+00    3.567767e+00
  4.211183e+00    3.549716e+00
  4.227059e+00    3.621022e+00
  4.242935e+00    3.629175e+00
  4.258810e+00    3.546968e+00
  4.274686e+00    3.545608e+00
  4.290561e+00    3.551944e+00
  4.306437e+00    3.564810e+00
  4.322312e+00    3.589811e+00
  4.338188e+00    3.550309e+00
  4.354064e+00    3.561898e+00
  4.369939e+00    3.587386e+00
  4.385815e+00    3.569526e+00
  4.401690e+00    3.630633e+00
  4.417566e+00    3.587517e+00
  4.433441e+00    3.511494e+00
  4.449317e+00    3.617832e+00
  4.465193e+00    3.531364e+00
  4.481068e+00    3.514985e+00
  4.496944e+00    3.624552e+00
  4.512819e+00    3.635901e+00
  4.528695e+00    3.616395e+00
  4.544570e+00    3.562325e+00
  4.560446e+00    3.410748e+00
  4.576322e+00    3.510760e+00
  4.592197e+00    3.600695e+00
  4.608073e+00    3.619656e+00
  4.623948e+00    3.625886e+00
  4.639824e+00    3.703099e+00
  4.655699e+00    3.689775e+00
  4.671575e+00    3.535985e+00
  4.687451e+00    3.546517e+00
  4.703326e+00    3.686472e+00
  4.719202e+00    3.611079e+00
  4.735077e+00    3.622034e+00
  4.750953e+00    3.581365e+00
  4.766828e+00    3.493373e+00
  4.782704e+00    3.497345e+00
  4.798580e+00    3.567085e+00
  4.814455e+00    3.649135e+00
  4.830331e+00    3.635179e+00
  4.846206e+00    3.745394e+00
  4.862082e+00    3.701311e+00
  4.877957e+00    3.708979e+00
  4.893833e+00    3.680454e+00
  4.909709e+00    3.648332e+00
  4.925584e+00    3.658524e+00
  4.941460e+00    3.645849e+00
  4.957335e+00    3.644942e+00
  4.973211e+00    3.674942e+00
  4.989086e+00    3.713399e+00
  5.004962e+00    3.695194e+00
  5.020838e+00    3.648697e+00
  5.036713e+00    3.597486e+00
  5.052589e+00    3.623874e+00
  5.068464e+00    3.754022e+00
  5.084340e+00    3.692608e+00
  5.100216e+00    3.661401e+00
  5.116091e+00    3.630277e+00
  5.131967e+00    3.654684e+00
  5.147842e+00    3.605397e+00
  5.163718e+00    3.562238e+00
  5.179593e+00    3.590901e+00
  5.195469e+00    3.575532e+00
  5.211345e+00    3.632298e+00
  5.227220e+00    3.670572e+00
  5.243096e+00    3.680585e+00
  5.258971e+00    3.605633e+00
  5.274847e+00    3.612845e+00
  5.290722e+00    3.642331e+00
  5.306598e+00    3.625441e+00
  5.322474e+00    3.643600e+00
  5.338349e+00    3.666944e+00
  5.354225e+00    3.744342e+00
  5.370100e+00    3.687959e+00
  5.385976e+00    3.656088e+00
  5.401851e+00    3.645959e+00
  5.417727e+00    3.603259e+00
  5.433603e+00    3.558235e+00
  5.449478e+00    3.608121e+00
  5.465354e+00    3.592782e+00
  5.481229e+00    3.526830e+00
  5.497105e+00    3.629394e+00
  5.512980e+00    3.654644e+00
  5.528856e+00    3.671793e+00
  5.544732e+00    3.575446e+00
  5.560607e+00    3.566092e+00
  5.576483e+00    3.561452e+00
  5.592358e+00    3.514998e+00
  5.608234e+00    3.642607e+00
  5.624109e+00    3.592601e+00
  5.639985e+00    3.554601e+00
  5.655861e+00    3.526725e+00
  5.671736e+00    3.524820e+00
  5.687612e+00    3.602039e+00
  5.703487e+00    3.549472e+00
  5.719363e+00    3.539906e+00
  5.735238e+00    3.581722e+00
  5.751114e+00    3.606777e+00
  5.766990e+00    3.668361e+00
  5.782865e+00    3.580997e+00
  5.798741e+00    3.594024e+00
  5.814616e+00    3.590726e+00
  5.830492e+00    3.526864e+00
  5.846367e+00    3.497858e+00
  5.862243e+00    3.540289e+00
  5.878119e+00    3.500743e+00
  5.893994e+00    3.475021e+00
  5.909870e+00    3.546072e+00
  5.925745e+00    3.562411e+00
  5.941621e+00    3.604945e+00
  5.957497e+00    3.595020e+00
  5.973372e+00    3.577129e+00
  5.989248e+00    3.560330e+00
  6.005123e+00    3.567868e+00
  6.020999e+00    3.540808e+00
  6.036874e+00    3.506068e+00
  6.052750e+00    3.513676e+00
  6.068626e+00    3.583343e+00
  6.084501e+00    3.531956e+00
  6.100377e+00    3.562601e+00
  6.116252e+00    3.574923e+00
  6.132128e+00    3.598804e+00
  6.148003e+00    3.589158e+00
  6.163879e+00    3.572965e+00
  6.179755e+00    3.561025e+00
  6.195630e+00    3.630934e+00
  6.211506e+00    3.571521e+00
  6.227381e+00    3.584839e+00
  6.243257e+00    3.639076e+00
  6.259132e+00    3.529096e+00
  6.275008e+00    3.484234e+00
  6.290884e+00    3.580989e+00
  6.306759e+00    3.503726e+00
  6.322635e+00    3.533977e+00
  6.338510e+00    3.537125e+00
  6.354386e+00    3.508759e+00
  6.370261e+00    3.563738e+00
  6.386137e+00    3.633669e+00
  6.402013e+00    3.591551e+00
  6.417888e+00    3.536649e+00
  6.433764e+00    3.538781e+00
  6.449639e+00    3.598830e+00
  6.465515e+00    3.619343e+00
  6.481390e+00    3.574207e+00
  6.497266e+00    3.578051e+00
  6.513142e+00    3.575770e+00
  6.529017e+00    3.632504e+00
  6.544893e+00    3.564649e+00
  6.560768e+00    3.542949e+00
  6.576644e+00    3.567199e+00
  6.592519e+00    3.589826e+00
  6.608395e+00    3.513764e+00
  6.624271e+00    3.473495e+00
  6.640146e+00    3.521132e+00
  6.656022e+00    3.523977e+00
  6.671897e+00    3.498399e+00
  6.687773e+00    3.558116e+00
  6.703648e+00    3.582602e+00
  6.719524e+00    3.576783e+00
  6.735400e+00    3.649233e+00
  6.751275e+00    3.631219e+00
  6.767151e+00    3.597686e+00
  6.783026e+00    3.538452e+00
  6.798902e+00    3.512465e+00
  6.814777e+00    3.597701e+00
  6.830653e+00    3.544386e+00
  6.846529e+00    3.481153e+00
  6.862404e+00    3.478494e+00
  6.878280e+00    3.465284e+00
  6.894155e+00    3.485454e+00
  6.910031e+00    3.496053e+00
  6.925907e+00    3.563422e+00
  6.941782e+00    3.595724e+00
  6.957658e+00    3.519202e+00
  6.973533e+00    3.500659e+00
  6.989409e+00    3.482704e+00
  7.005284e+00    3.509802e+00
  7.021160e+00    3.580569e+00
  7.037036e+00    3.511335e+00
  7.052911e+00    3.524016e+00
  7.068787e+00    3.578361e+00
  7.084662e+00    3.526752e+00
  7.100538e+00    3.470584e+00
  7.116413e+00    3.535025e+00
  7.132289e+00    3.578733e+00
  7.148165e+00    3.491902e+00
  7.164040e+00    3.520319e+00
  7.179916e+00    3.499071e+00
  7.195791e+00    3.416844e+00
  7.211667e+00    3.436186e+00
  7.227542e+00    3.470214e+00
  7.243418e+00    3.529186e+00
  7.259294e+00    3.527743e+00
  7.275169e+00    3.530020e+00
  7.291045e+00    3.521881e+00
  7.306920e+00    3.465783e+00
  7.322796e+00    3.440971e+00
  7.338671e+00    3.470882e+00
  7.354547e+00    3.557574e+00
  7.370423e+00    3.581373e+00
  7.386298e+00    3.461783e+00
  7.402174e+00    3.442495e+00
  7.418049e+00    3.463702e+00
  7.433925e+00    3.455659e+00
  7.449800e+00    3.524384e+00
  7.465676e+00    3.507632e+00
  7.481552e+00    3.499943e+00
  7.497427e+00    3.426567e+00
  7.513303e+00    3.525438e+00
  7.529178e+00    3.529335e+00
  7.545054e+00    3.556647e+00
  7.560929e+00    3.467114e+00
  7.576805e+00    3.461416e+00
  7.592681e+00    3.510108e+00
  7.608556e+00    3.584156e+00
  7.624432e+00    3.494225e+00
  7.640307e+00    3.434638e+00
  7.656183e+00    3.490439e+00
  7.672058e+00    3.423637e+00
  7.687934e+00    3.502194e+00
  7.703810e+00    3.506094e+00
  7.719685e+00    3.477568e+00
  7.735561e+00    3.452114e+00
  7.751436e+00    3.404319e+00
  7.767312e+00    3.482665e+00
  7.783187e+00    3.478620e+00
  7.799063e+00    3.434657e+00
  7.814939e+00    3.471815e+00
  7.830814e+00    3.452845e+00
  7.846690e+00    3.484675e+00
  7.862565e+00    3.448661e+00
  7.878441e+00    3.418892e+00
  7.894317e+00    3.458301e+00
  7.910192e+00    3.450763e+00
  7.926068e+00    3.385872e+00
  7.941943e+00    3.395939e+00
  7.957819e+00    3.411801e+00
  7.973694e+00    3.407172e+00
  7.989570e+00    3.432522e+00
  8.005446e+00    3.412586e+00
  8.021321e+00    3.394388e+00
  8.037197e+00    3.355138e+00
  8.053072e+00    3.438492e+00
  8.068948e+00    3.431839e+00
  8.084823e+00    3.394909e+00
  8.100699e+00    3.476033e+00
  8.116575e+00    3.440775e+00
  8.132450e+00    3.413464e+00
  8.148326e+00    3.466736e+00
  8.164201e+00    3.468364e+00
  8.180077e+00    3.446761e+00
  8.195952e+00    3.433707e+00
  8.211828e+00    3.441413e+00
  8.227704e+00    3.494303e+00
  8.243579e+00    3.531035e+00
  8.259455e+00    3.457891e+00
  8.275330e+00    3.395689e+00
  8.291206e+00    3.367406e+00
  8.307081e+00    3.443786e+00
  8.322957e+00    3.436515e+00
  8.338833e+00    3.391511e+00
  8.354708e+00    3.335613e+00
  8.370584e+00    3.367939e+00
  8.386459e+00    3.400848e+00
  8.402335e+00    3.369858e+00
  8.418210e+00    3.347594e+00
  8.434086e+00    3.384610e+00
  8.449962e+00    3.383460e+00
  8.465837e+00    3.391922e+00
  8.481713e+00    3.406828e+00
  8.497588e+00    3.374571e+00
  8.513464e+00    3.362118e+00
  8.529339e+00    3.371064e+00
  8.545215e+00    3.377378e+00
  8.561091e+00    3.378071e+00
  8.576966e+00    3.355220e+00
  8.592842e+00    3.356433e+00
  8.608717e+00    3.338745e+00
  8.624593e+00    3.364801e+00
  8.640468e+00    3.327933e+00
  8.656344e+00    3.323545e+00
  8.672220e+00    3.310320e+00
  8.688095e+00    3.316637e+00
  8.703971e+00    3.319861e+00
  8.719846e+00    3.316539e+00
  8.735722e+00    3.359703e+00
  8.751598e+00    3.319094e+00
  8.767473e+00    3.351515e+00
  8.783349e+00    3.331822e+00
  8.799224e+00    3.319935e+00
  8.815100e+00    3.330314e+00
  8.830975e+00    3.288241e+00
  8.846851e+00    3.279511e+00
  8.862727e+00    3.345158e+00
  8.878602e+00    3.340437e+00
  8.894478e+00    3.324161e+00
  8.910353e+00    3.312937e+00
  8.926229e+00    3.310815e+00
  8.942104e+00    3.310476e+00
  8.957980e+00    3.331463e+00
  8.973856e+00    3.328016e+00
  8.989731e+00    3.258706e+00
  9.005607e+00    3.300789e+00
  9.021482e+00    3.288086e+00
  9.037358e+00    3.239078e+00
  9.053233e+00    3.282475e+00
  9.069109e+00    3.210414e+00
  9.084985e+00    3.239668e+00
  9.100860e+00    3.273822e+00
  9.116736e+00    3.227353e+00
  9.132611e+00    3.303976e+00
  9.148487e+00    3.298848e+00
  9.164362e+00    3.228991e+00
  9.180238e+00    3.196275e+00
  9.196114e+00    3.233759e+00
  9.211989e+00    3.183875e+00
  9.227865e+00    3.240904e+00
  9.243740e+00    3.215161e+00
  9.259616e+00    3.245003e+00
  9.275491e+00    3.278944e+00
  9.291367e+00    3.219584e+00
  9.307243e+00    3.219883e+00
  9.323118e+00    3.226517e+00
  9.338994e+00    3.213894e+00
  9.354869e+00    3.216050e+00
  9.370745e+00    3.199811e+00
  9.386620e+00    3.301300e+00
  9.402496e+00    3.230175e+00
  9.418372e+00    3.174144e+00
  9.434247e+00    3.228146e+00
  9.450123e+00    3.269665e+00
  9.465998e+00    3.193421e+00
  9.481874e+00    3.222483e+00
  9.497749e+00    3.244098e+00
  9.513625e+00    3.196898e+00
  9.529501e+00    3.209536e+00
  9.545376e+00    3.197077e+00
  9.561252e+00    3.202709e+00
  9.577127e+00    3.212300e+00
  9.593003e+00    3.214294e+00
  9.608878e+00    3.214565e+00
  9.624754e+00    3.232229e+00
  9.640630e+00    3.200125e+00
  9.656505e+00    3.176126e+00
  9.672381e+00    3.185367e+00
  9.688256e+00    3.118013e+00
  9.704132e+00    3.162128e+00
  9.720008e+00    3.215370e+00
  9.735883e+00    3.220638e+00
  9.751759e+00    3.210852e+00
  9.767634e+00    3.155723e+00
  9.783510e+00    3.094399e+00
  9.799385e+00    3.126839e+00
  9.815261e+00    3.180651e+00
  9.831137e+00    3.142548e+00
  9.847012e+00    3.182817e+00
  9.862888e+00    3.104672e+00
  9.878763e+00    3.106884e+00
  9.894639e+00    3.089955e+00
  9.910514e+00    3.064328e+00
  9.926390e+00    3.114861e+00
  9.942266e+00    3.116917e+00
  9.958141e+00    3.138068e+00
  9.974017e+00    3.130632e+00
  9.989892e+00    3.127452e+00
  1.000577e+01    3.063146e+00
  1.002164e+01    3.121100e+00
  1.003752e+01    3.102348e+00
  1.005339e+01    3.082134e+00
  1.006927e+01    3.134166e+00
  1.008515e+01    3.159765e+00
  1.010102e+01    3.131602e+00
  1.011690e+01    3.122473e+00
  1.013277e+01    3.126203e+00
  1.014865e+01    3.096975e+00
  1.016452e+01    3.077766e+00
  1.018040e+01    3.039639e+00
  1.019627e+01    3.029995e+00
  1.021215e+01    3.105009e+00
  1.022803e+01    3.054147e+00
  1.024390e+01    3.040729e+00
  1.025978e+01    3.099815e+00
  1.027565e+01    3.088060e+00
  1.029153e+01    3.076145e+00
  1.030740e+01    3.054159e+00
  1.032328e+01    3.016130e+00
  1.033915e+01    2.978290e+00
  1.035503e+01    3.020583e+00
  1.037091e+01    3.050375e+00
  1.038678e+01    3.056726e+00
  1.040266e+01    3.051769e+00
  1.041853e+01    2.994426e+00
  1.043441e+01    2.992042e+00
  1.045028e+01    3.027733e+00
  1.046616e+01    3.084459e+00
  1.048204e+01    3.008191e+00
  1.049791e+01    2.932034e+00
  1.051379e+01    3.010917e+00
  1.052966e+01    3.053185e+00
  1.054554e+01    3.010114e+00
  1.056141e+01    2.957575e+00
  1.057729e+01    2.950377e+00
  1.059316e+01    2.964082e+00
  1.060904e+01    2.994705e+00
  1.062492e+01    3.006774e+00
  1.064079e+01    3.012935e+00
  1.065667e+01    2.986907e+00
  1.067254e+01    3.032467e+00
  1.068842e+01    2.995278e+00
  1.070429e+01    2.987177e+00
  1.072017e+01    3.003494e+00
  1.073604e+01    2.969762e+00
  1.075192e+01    2.952398e+00
  1.076780e+01    2.928416e+00
  1.078367e+01    2.950748e+00
  1.079955e+01    2.975775e+00
  1.081542e+01    2.972724e+00
  1.083130e+01    2.903325e+00
  1.084717e+01    2.900285e+00
  1.086305e+01    2.973927e+00
  1.087892e+01    2.956152e+00
  1.089480e+01    2.967586e+00
  1.091068e+01    2.986581e+00
  1.092655e+01    2.929967e+00
  1.094243e+01    2.962187e+00
  1.095830e+01    2.990619e+00
  1.097418e+01    2.953046e+00
  1.099005e+01    2.909051e+00
  1.100593e+01    2.905775e+00
  1.102180e+01    2.912104e+00
  1.103768e+01    2.895881e+00
  1.105356e+01    2.897129e+00
  1.106943e+01    2.879603e+00
  1.108531e+01    2.900712e+00
  1.110118e+01    2.875012e+00
  1.111706e+01    2.876908e+00
  1.113293e+01    2.877005e+00
  1.114881e+01    2.869992e+00
  1.116468e+01    2.864583e+00
  1.118056e+01    2.866383e+00
  1.119644e+01    2.868623e+00
  1.121231e+01    2.880280e+00
  1.122819e+01    2.905460e+00
  1.124406e+01    2.863696e+00
  1.125994e+01    2.846685e+00
  1.127581e+01    2.857640e+00
  1.129169e+01    2.836957e+00
  1.130756e+01    2.862787e+00
  1.132344e+01    2.831424e+00
  1.133932e+01    2.757761e+00
  1.135519e+01    2.806465e+00
  1.137107e+01    2.837924e+00
  1.138694e+01    2.832004e+00
  1.140282e+01    2.818495e+00
  1.141869e+01    2.800421e+00
  1.143457e+01    2.776781e+00
  1.145045e+01    2.787510e+00
  1.146632e+01    2.808484e+00
  1.148220e+01    2.799633e+00
  1.149807e+01    2.824367e+00
  1.151395e+01    2.811229e+00
  1.152982e+01    2.806355e+00
  1.154570e+01    2.790451e+00
  1.156157e+01    2.802265e+00
  1.157745e+01    2.765562e+00
  1.159333e+01    2.741492e+00
  1.160920e+01    2.790032e+00
  1.162508e+01    2.767465e+00
  1.164095e+01    2.747976e+00
  1.165683e+01    2.775487e+00
  1.167270e+01    2.749120e+00
  1.168858e+01    2.819082e+00
  1.170445e+01    2.793572e+00
  1.172033e+01    2.756533e+00
  1.173621e+01    2.724814e+00
  1.175208e+01    2.726655e+00
  1.176796e+01    2.743364e+00
  1.178383e+01    2.771644e+00
  1.179971e+01    2.741347e+00
  1.181558e+01    2.766243e+00
  1.183146e+01    2.800023e+00
  1.184733e+01    2.743601e+00
  1.186321e+01    2.691450e+00
  1.187909e+01    2.707620e+00
  1.189496e+01    2.730179e+00
  1.191084e+01    2.743619e+00
  1.192671e+01    2.738592e+00
  1.194259e+01    2.706135e+00
  1.195846e+01    2.713870e+00
  1.197434e+01    2.707033e+00
  1.199021e+01    2.756526e+00
  1.200609e+01    2.783585e+00
  1.202197e+01    2.684356e+00
  1.203784e+01    2.733048e+00
  1.205372e+01    2.717497e+00
  1.206959e+01    2.689515e+00
  1.208547e+01    2.740697e+00
  1.210134e+01    2.691406e+00
  1.211722e+01    2.663535e+00
  1.213309e+01    2.711806e+00
  1.214897e+01    2.704984e+00
  1.216485e+01    2.675549e+00
  1.218072e+01    2.674340e+00
  1.219660e+01    2.699110e+00
  1.221247e+01    2.628664e+00
  1.222835e+01    2.664561e+00
  1.224422e+01    2.670478e+00
  1.226010e+01    2.653880e+00
  1.227597e+01    2.658726e+00
  1.229185e+01    2.694282e+00
  1.230773e+01    2.727023e+00
  1.232360e+01    2.709017e+00
  1.233948e+01    2.659172e+00
  1.235535e+01    2.715159e+00
  1.237123e+01    2.728721e+00
  1.238710e+01    2.691945e+00
  1.240298e+01    2.687020e+00
  1.241886e+01    2.676601e+00
  1.243473e+01    2.701911e+00
  1.245061e+01    2.703930e+00
  1.246648e+01    2.705795e+00
  1.248236e+01    2.717628e+00
  1.249823e+01    2.747056e+00
  1.251411e+01    2.697944e+00
  1.252998e+01    2.671808e+00
  1.254586e+01    2.679333e+00
  1.256174e+01    2.718044e+00
  1.257761e+01    2.760017e+00
  1.259349e+01    2.735728e+00
  1.260936e+01    2.761321e+00
  1.262524e+01    2.784142e+00
  1.264111e+01    2.814453e+00
  1.265699e+01    2.796455e+00
  1.267286e+01    2.800156e+00
  1.268874e+01    2.788874e+00
  1.270462e+01    2.815621e+00
  1.272049e+01    2.855992e+00
  1.273637e+01    2.899712e+00
  1.275224e+01    2.938288e+00
  1.276812e+01    2.920685e+00
  1.278399e+01    2.946686e+00
  1.279987e+01    2.981526e+00
  1.281574e+01    3.031232e+00
  1.283162e+01    3.142995e+00
  1.284750e+01    3.169869e+00
  1.286337e+01    3.231994e+00
  1.287925e+01    3.350942e+00
  1.289512e+01    3.498127e+00
  1.291100e+01    3.606678e+00
  1.292687e+01    3.837975e+00
  1.294275e+01    4.082176e+00
  1.295862e+01    4.448201e+00
  1.297450e+01    4.765306e+00
  1.299038e+01    5.242659e+00
  1.300625e+01    5.906815e+00
  1.302213e+01    6.739802e+00
  1.303800e+01    7.744094e+00
  1.305388e+01    9.035596e+00
  1.306975e+01    1.030433e+01
  1.308563e+01    1.149187e+01
  1.310150e+01    1.275799e+01
  1.311738e+01    1.386342e+01
  1.313326e+01    1.489002e+01
  1.314913e+01    1.576395e+01
  1.316501e+01    1.626481e+01
  1.318088e+01    1.638566e+01
  1.319676e+01    1.560543e+01
  1.321263e+01    1.416553e+01
  1.322851e+01    1.235900e+01
  1.324438e+01    1.049659e+01
  1.326026e+01    8.895278e+00
  1.327614e+01    7.695534e+00
  1.329201e+01    6.646325e+00
  1.330789e+01    5.893334e+00
  1.332376e+01    5.254852e+00
  1.333964e+01    4.768614e+00
  1.335551e+01    4.433367e+00
  1.337139e+01    4.168320e+00
  1.338727e+01    3.900668e+00
  1.340314e+01    3.667331e+00
  1.341902e+01    3.437490e+00
  1.343489e+01    3.372707e+00
  1.345077e+01    3.235840e+00
  1.346664e+01    3.117602e+00
  1.348252e+01    3.033406e+00
  1.349839e+01    2.918181e+00
  1.351427e+01    2.891819e+00
  1.353015e+01    2.822557e+00
  1.354602e+01    2.809009e+00
  1.356190e+01    2.751360e+00
  1.357777e+01    2.715028e+00
  1.359365e+01    2.701356e+00
  1.360952e+01    2.667218e+00
  1.362540e+01    2.673473e+00
  1.364127e+01    2.675803e+00
  1.365715e+01    2.625498e+00
  1.367303e+01    2.622202e+00
  1.368890e+01    2.568025e+00
  1.370478e+01    2.536376e+00
  1.372065e+01    2.534384e+00
  1.373653e+01    2.522366e+00
  1.375240e+01    2.491433e+00
  1.376828e+01    2.505342e+00
  1.378415e+01    2.511390e+00
  1.380003e+01    2.463945e+00
  1.381591e+01    2.489246e+00
  1.383178e+01    2.490014e+00
  1.384766e+01    2.437359e+00
  1.386353e+01    2.392456e+00
  1.387941e+01    2.397627e+00
  1.389528e+01    2.409319e+00
  1.391116e+01    2.380803e+00
  1.392703e+01    2.398204e+00
  1.394291e+01    2.421360e+00
  1.395879e+01    2.393480e+00
  1.397466e+01    2.360761e+00
  1.399054e+01    2.349650e+00
  1.400641e+01    2.368655e+00
  1.402229e+01    2.376262e+00
  1.403816e+01    2.354989e+00
  1.405404e+01    2.362244e+00
  1.406991e+01    2.360450e+00
  1.408579e+01    2.333287e+00
  1.410167e+01    2.293832e+00
  1.411754e+01    2.317410e+00
  1.413342e+01    2.310341e+00
  1.414929e+01    2.312210e+00
  1.416517e+01    2.298288e+00
  1.418104e+01    2.286578e+00
  1.419692e+01    2.305449e+00
  1.421279e+01    2.333791e+00
  1.422867e+01    2.340322e+00
  1.424455e+01    2.273984e+00
  1.426042e+01    2.258654e+00
  1.427630e+01    2.273305e+00
  1.429217e+01    2.291196e+00
  1.430805e+01    2.240713e+00
  1.432392e+01    2.209206e+00
  1.433980e+01    2.236634e+00
  1.435568e+01    2.267155e+00
  1.437155e+01    2.276258e+00
  1.438743e+01    2.235155e+00
  1.440330e+01    2.231640e+00
  1.441918e+01    2.237488e+00
  1.443505e+01    2.230459e+00
  1.445093e+01    2.229664e+00
  1.446680e+01    2.270924e+00
  1.448268e+01    2.260541e+00
  1.449856e+01    2.223019e+00
  1.451443e+01    2.203720e+00
  1.453031e+01    2.208163e+00
  1.454618e+01    2.205012e+00
  1.456206e+01    2.211617e+00
  1.457793e+01    2.212170e+00
  1.459381e+01    2.233454e+00
  1.460968e+01    2.180399e+00
  1.462556e+01    2.206114e+00
  1.464144e+01    2.226407e+00
  1.465731e+01    2.191369e+00
  1.467319e+01    2.258704e+00
  1.468906e+01    2.286513e+00
  1.470494e+01    2.210492e+00
  1.472081e+01    2.229010e+00
  1.473669e+01    2.190353e+00
  1.475256e+01    2.181832e+00
  1.476844e+01    2.140886e+00
  1.478432e+01    2.152734e+00
  1.480019e+01    2.181576e+00
  1.481607e+01    2.187928e+00
  1.483194e+01    2.206511e+00
  1.484782e+01    2.214083e+00
  1.486369e+01    2.256084e+00
  1.487957e+01    2.250413e+00
  1.489544e+01    2.235090e+00
  1.491132e+01    2.236582e+00
  1.492720e+01    2.275413e+00
  1.494307e+01    2.283525e+00
  1.495895e+01    2.299972e+00
  1.497482e+01    2.346944e+00
  1.499070e+01    2.384877e+00
  1.500657e+01    2.451989e+00
  1.502245e+01    2.506710e+00
  1.503832e+01    2.580410e+00
  1.505420e+01    2.713548e+00
  1.507008e+01    2.854638e+00
  1.508595e+01    3.000040e+00
  1.510183e+01    3.215319e+00
  1.511770e+01    3.460716e+00
  1.513358e+01    3.777674e+00
  1.514945e+01    4.207116e+00
  1.516533e+01    4.606814e+00
  1.518120e+01    4.872346e+00
  1.519708e+01    5.136972e+00
  1.521296e+01    5.444187e+00
  1.522883e+01    5.529601e+00
  1.524471e+01    5.709867e+00
  1.526058e+01    5.833941e+00
  1.527646e+01    5.760439e+00
  1.529233e+01    5.439407e+00
  1.530821e+01    5.132424e+00
  1.532409e+01    4.664669e+00
  1.533996e+01    4.128684e+00
  1.535584e+01    3.691278e+00
  1.537171e+01    3.422822e+00
  1.538759e+01    3.174187e+00
  1.540346e+01    2.934423e+00
  1.541934e+01    2.738885e+00
  1.543521e+01    2.576467e+00
  1.545109e+01    2.479010e+00
  1.546697e+01    2.398580e+00
  1.548284e+01    2.333913e+00
  1.549872e+01    2.251033e+00
  1.551459e+01    2.267274e+00
  1.553047e+01    2.233061e+00
  1.554634e+01    2.168941e+00
  1.556222e+01    2.147998e+00
  1.557809e+01    2.171801e+00
  1.559397e+01    2.100455e+00
  1.560985e+01    2.061955e+00
  1.562572e+01    2.079717e+00
  1.564160e+01    2.043737e+00
  1.565747e+01    2.040871e+00
  1.567335e+01    2.011884e+00
  1.568922e+01    2.011821e+00
  1.570510e+01    2.000166e+00
  1.572097e+01    1.943355e+00
  1.573685e+01    1.948840e+00
  1.575273e+01    1.962928e+00
  1.576860e+01    1.947229e+00
  1.578448e+01    1.981744e+00
  1.580035e+01    1.926291e+00
  1.581623e+01    1.938248e+00
  1.583210e+01    1.910693e+00
  1.584798e+01    1.916579e+00
  1.586385e+01    1.911055e+00
  1.587973e+01    1.901354e+00
  1.589561e+01    1.868972e+00
  1.591148e+01    1.885315e+00
  1.592736e+01    1.898471e+00
  1.594323e+01    1.886489e+00
  1.595911e+01    1.880611e+00
  1.597498e+01    1.897568e+00
  1.599086e+01    1.903647e+00
  1.600673e+01    1.849012e+00
  1.602261e+01    1.852910e+00
  1.603849e+01    1.842966e+00
  1.605436e+01    1.861481e+00
  1.607024e+01    1.872373e+00
  1.608611e+01    1.861902e+00
  1.610199e+01    1.866963e+00
  1.611786e+01    1.807992e+00
  1.613374e+01    1.853770e+00
  1.614961e+01    1.852494e+00
  1.616549e+01    1.800020e+00
  1.618137e+01    1.812174e+00
  1.619724e+01    1.809340e+00
  1.621312e+01    1.848062e+00
  1.622899e+01    1.820541e+00
  1.624487e+01    1.813283e+00
  1.626074e+01    1.810850e+00
  1.627662e+01    1.793602e+00
  1.629250e+01    1.789186e+00
  1.630837e+01    1.784241e+00
  1.632425e+01    1.800667e+00
  1.634012e+01    1.839875e+00
  1.635600e+01    1.803741e+00
  1.637187e+01    1.762599e+00
  1.638775e+01    1.773797e+00
  1.640362e+01    1.754658e+00
  1.641950e+01    1.786634e+00
  1.643538e+01    1.750711e+00
  1.645125e+01    1.758887e+00
  1.646713e+01    1.756216e+00
  1.648300e+01    1.719640e+00
  1.649888e+01    1.721034e+00
  1.651475e+01    1.724926e+00
  1.653063e+01    1.735977e+00
  1.654650e+01    1.768717e+00
  1.656238e+01    1.752515e+00
  1.657826e+01    1.750334e+00
  1.659413e+01    1.734445e+00
  1.661001e+01    1.746390e+00
  1.662588e+01    1.736429e+00
  1.664176e+01    1.749299e+00
  1.665763e+01    1.755065e+00
  1.667351e+01    1.766686e+00
  1.668938e+01    1.723793e+00
  1.670526e+01    1.708444e+00
  1.672114e+01    1.696214e+00
  1.673701e+01    1.688550e+00
  1.675289e+01    1.723500e+00
  1.676876e+01    1.719257e+00
  1.678464e+01    1.693190e+00
  1.680051e+01    1.665087e+00
  1.681639e+01    1.696182e+00
  1.683226e+01    1.691472e+00
  1.684814e+01    1.708005e+00
  1.686402e+01    1.707113e+00
  1.687989e+01    1.701605e+00
  1.689577e+01    1.680752e+00
  1.691164e+01    1.702972e+00
  1.692752e+01    1.708664e+00
  1.694339e+01    1.667818e+00
  1.695927e+01    1.658977e+00
  1.697514e+01    1.671088e+00
  1.699102e+01    1.678387e+00
  1.700690e+01    1.652583e+00
  1.702277e+01    1.676801e+00
  1.703865e+01    1.649283e+00
  1.705452e+01    1.665274e+00
  1.707040e+01    1.675650e+00
  1.708627e+01    1.661870e+00
  1.710215e+01    1.655829e+00
  1.711802e+01    1.651886e+00
  1.713390e+01    1.649643e+00
  1.714978e+01    1.636994e+00
  1.716565e+01    1.636998e+00
  1.718153e+01    1.671913e+00
  1.719740e+01    1.632008e+00
  1.721328e+01    1.597266e+00
  1.722915e+01    1.648835e+00
  1.724503e+01    1.645206e+00
  1.726091e+01    1.656826e+00
  1.727678e+01    1.641364e+00
  1.729266e+01    1.630441e+00
  1.730853e+01    1.629043e+00
  1.732441e+01    1.614305e+00
  1.734028e+01    1.596921e+00
  1.735616e+01    1.620430e+00
  1.737203e+01    1.600445e+00
  1.738791e+01    1.608966e+00
  1.740379e+01    1.571440e+00
  1.741966e+01    1.593208e+00
  1.743554e+01    1.609459e+00
  1.745141e+01    1.566191e+00
  1.746729e+01    1.569139e+00
  1.748316e+01    1.571078e+00
  1.749904e+01    1.573863e+00
  1.751491e+01    1.576422e+00
  1.753079e+01    1.570183e+00
  1.754667e+01    1.565814e+00
  1.756254e+01    1.591456e+00
  1.757842e+01    1.565393e+00
  1.759429e+01    1.555145e+00
  1.761017e+01    1.539487e+00
  1.762604e+01    1.569405e+00
  1.764192e+01    1.550075e+00
  1.765779e+01    1.580512e+00
  1.767367e+01    1.579604e+00
  1.768955e+01    1.535390e+00
  1.770542e+01    1.543927e+00
  1.772130e+01    1.560351e+00
  1.773717e+01    1.551389e+00
  1.775305e+01    1.568033e+00
  1.776892e+01    1.527847e+00
  1.778480e+01    1.526922e+00
  1.780067e+01    1.524573e+00
  1.781655e+01    1.548801e+00
  1.783243e+01    1.559825e+00
  1.784830e+01    1.539493e+00
  1.786418e+01    1.511274e+00
  1.788005e+01    1.517847e+00
  1.789593e+01    1.528971e+00
  1.791180e+01    1.534195e+00
  1.792768e+01    1.500329e+00
  1.794355e+01    1.514238e+00
  1.795943e+01    1.523979e+00
  1.797531e+01    1.533992e+00
  1.799118e+01    1.516202e+00
  1.800706e+01    1.527619e+00
  1.802293e+01    1.504429e+00
  1.803881e+01    1.506883e+00
  1.805468e+01    1.508269e+00
  1.807056e+01    1.512184e+00
  1.808643e+01    1.525950e+00
  1.810231e+01    1.510645e+00
  1.811819e+01    1.481623e+00
  1.813406e+01    1.477951e+00
  1.814994e+01    1.499451e+00
  1.816581e+01    1.488314e+00
  1.818169e+01    1.493591e+00
  1.819756e+01    1.493193e+00
  1.821344e+01    1.493632e+00
  1.822932e+01    1.481449e+00
  1.824519e+01    1.485671e+00
  1.826107e+01    1.454282e+00
  1.827694e+01    1.449524e+00
  1.829282e+01    1.424596e+00
  1.830869e+01    1.453291e+00
  1.832457e+01    1.472070e+00
  1.834044e+01    1.476866e+00
  1.835632e+01    1.468647e+00
  1.837220e+01    1.473651e+00
  1.838807e+01    1.458944e+00
  1.840395e+01    1.460160e+00
  1.841982e+01    1.447143e+00
  1.843570e+01    1.468735e+00
  1.845157e+01    1.462122e+00
  1.846745e+01    1.453762e+00
  1.848332e+01    1.433355e+00
  1.849920e+01    1.433406e+00
  1.851508e+01    1.440348e+00
  1.853095e+01    1.438503e+00
  1.854683e+01    1.420307e+00
  1.856270e+01    1.428095e+00
  1.857858e+01    1.446882e+00
  1.859445e+01    1.437502e+00
  1.861033e+01    1.422544e+00
  1.862620e+01    1.422254e+00
  1.864208e+01    1.445259e+00
  1.865796e+01    1.428553e+00
  1.867383e+01    1.426781e+00
  1.868971e+01    1.417860e+00
  1.870558e+01    1.435391e+00
  1.872146e+01    1.437825e+00
  1.873733e+01    1.419146e+00
  1.875321e+01    1.406860e+00
  1.876908e+01    1.423458e+00
  1.878496e+01    1.408869e+00
  1.880084e+01    1.416089e+00
  1.881671e+01    1.390859e+00
  1.883259e+01    1.410815e+00
  1.884846e+01    1.384212e+00
  1.886434e+01    1.388657e+00
  1.888021e+01    1.377874e+00
  1.889609e+01    1.400474e+00
  1.891196e+01    1.377204e+00
  1.892784e+01    1.377239e+00
  1.894372e+01    1.387295e+00
  1.895959e+01    1.368178e+00
  1.897547e+01    1.355241e+00
  1.899134e+01    1.347314e+00
  1.900722e+01    1.375847e+00
  1.902309e+01    1.395387e+00
  1.903897e+01    1.399354e+00
  1.905484e+01    1.381156e+00
  1.907072e+01    1.381449e+00
  1.908660e+01    1.386072e+00
  1.910247e+01    1.387923e+00
  1.911835e+01    1.379869e+00
  1.913422e+01    1.357761e+00
  1.915010e+01    1.379795e+00
  1.916597e+01    1.401051e+00
  1.918185e+01    1.377010e+00
  1.919773e+01    1.342110e+00
  1.921360e+01    1.351312e+00
  1.922948e+01    1.372231e+00
  1.924535e+01    1.375494e+00
  1.926123e+01    1.365049e+00
  1.927710e+01    1.338228e+00
  1.929298e+01    1.346056e+00
  1.930885e+01    1.345318e+00
  1.932473e+01    1.344067e+00
  1.934061e+01    1.349025e+00
  1.935648e+01    1.358895e+00
  1.937236e+01    1.348219e+00
  1.938823e+01    1.319335e+00
  1.940411e+01    1.327124e+00
  1.941998e+01    1.318843e+00
  1.943586e+01    1.319929e+00
  1.945173e+01    1.314617e+00
  1.946761e+01    1.312019e+00
  1.948349e+01    1.328799e+00
  1.949936e+01    1.351873e+00
  1.951524e+01    1.343643e+00
  1.953111e+01    1.318814e+00
  1.954699e+01    1.290359e+00
  1.956286e+01    1.309026e+00
  1.957874e+01    1.327027e+00
  1.959461e+01    1.325028e+00
  1.961049e+01    1.315977e+00
  1.962637e+01    1.290551e+00
  1.964224e+01    1.312104e+00
  1.965812e+01    1.333485e+00
  1.967399e+01    1.328119e+00
  1.968987e+01    1.320436e+00
  1.970574e+01    1.334975e+00
  1.972162e+01    1.294444e+00
  1.973749e+01    1.284370e+00
  1.975337e+01    1.307527e+00
  1.976925e+01    1.305959e+00
  1.978512e+01    1.279180e+00
  1.980100e+01    1.306051e+00
  1.981687e+01    1.311719e+00
  1.983275e+01    1.294793e+00
  1.984862e+01    1.290190e+00
  1.986450e+01    1.293193e+00
  1.988037e+01    1.288733e+00
  1.989625e+01    1.304706e+00
  1.991213e+01    1.303314e+00
  1.992800e+01    1.296294e+00
  1.994388e+01    1.292289e+00
  1.995975e+01    1.270014e+00
  1.997563e+01    1.296625e+00
  1.999150e+01    1.282105e+00
  2.000738e+01    1.277825e+00
  2.002325e+01    1.274614e+00
  2.003913e+01    1.286116e+00
  2.005501e+01    1.273599e+00
  2.007088e+01    1.278708e+00
  2.008676e+01    1.265387e+00
  2.010263e+01    1.281990e+00
  2.011851e+01    1.286331e+00
  2.013438e+01    1.281377e+00
  2.015026e+01    1.271473e+00
  2.016614e+01    1.243290e+00
  2.018201e+01    1.259475e+00
  2.019789e+01    1.255052e+00
  2.021376e+01    1.251533e+00
  2.022964e+01    1.264990e+00
  2.024551e+01    1.248877e+00
  2.026139e+01    1.231375e+00
  2.027726e+01    1.250996e+00
  2.029314e+01    1.268044e+00
  2.030902e+01    1.260761e+00
  2.032489e+01    1.269093e+00
  2.034077e+01    1.284474e+00
  2.035664e+01    1.269188e+00
  2.037252e+01    1.262534e+00
  2.038839e+01    1.264101e+00
  2.040427e+01    1.264250e+00
  2.042014e+01    1.242939e+00
  2.043602e+01    1.233363e+00
  2.045190e+01    1.210343e+00
  2.046777e+01    1.247303e+00
  2.048365e+01    1.238844e+00
  2.049952e+01    1.229773e+00
  2.051540e+01    1.232723e+00
  2.053127e+01    1.248234e+00
  2.054715e+01    1.257374e+00
  2.056302e+01    1.247065e+00
  2.057890e+01    1.247623e+00
  2.059478e+01    1.266287e+00
  2.061065e+01    1.230702e+00
  2.062653e+01    1.214447e+00
  2.064240e+01    1.216272e+00
  2.065828e+01    1.248614e+00
  2.067415e+01    1.209909e+00
  2.069003e+01    1.211640e+00
  2.070590e+01    1.232814e+00
  2.072178e+01    1.257939e+00
  2.073766e+01    1.250507e+00
  2.075353e+01    1.227319e+00
  2.076941e+01    1.219541e+00
  2.078528e+01    1.224926e+00
  2.080116e+01    1.216769e+00
  2.081703e+01    1.229239e+00
  2.083291e+01    1.252295e+00
  2.084878e+01    1.229525e+00
  2.086466e+01    1.222298e+00
  2.088054e+01    1.220289e+00
  2.089641e+01    1.204550e+00
  2.091229e+01    1.207770e+00
  2.092816e+01    1.239729e+00
  2.094404e+01    1.238750e+00
  2.095991e+01    1.222696e+00
  2.097579e+01    1.208985e+00
  2.099166e+01    1.240600e+00
  2.100754e+01    1.208146e+00
  2.102342e+01    1.207919e+00
  2.103929e+01    1.221713e+00
  2.105517e+01    1.198004e+00
  2.107104e+01    1.223598e+00
  2.108692e+01    1.209968e+00
  2.110279e+01    1.203580e+00
  2.111867e+01    1.222210e+00
  2.113455e+01    1.204192e+00
  2.115042e+01    1.203536e+00
  2.116630e+01    1.212385e+00
  2.118217e+01    1.211557e+00
  2.119805e+01    1.210591e+00
  2.121392e+01    1.216896e+00
  2.122980e+01    1.246835e+00
  2.124567e+01    1.242563e+00
  2.126155e+01    1.248918e+00
  2.127743e+01    1.279424e+00
  2.129330e+01    1.267076e+00
  2.130918e+01    1.258296e+00
  2.132505e+01    1.268547e+00
  2.134093e+01    1.267500e+00
  2.135680e+01    1.296272e+00
  2.137268e+01    1.307280e+00
  2.138855e+01    1.302554e+00
  2.140443e+01    1.294268e+00
  2.142031e+01    1.317797e+00
  2.143618e+01    1.366267e+00
  2.145206e+01    1.385894e+00
  2.146793e+01    1.387663e+00
  2.148381e+01    1.393375e+00
  2.149968e+01    1.431026e+00
  2.151556e+01    1.433196e+00
  2.153143e+01    1.469092e+00
  2.154731e+01    1.569138e+00
  2.156319e+01    1.592896e+00
  2.157906e+01    1.637726e+00
  2.159494e+01    1.711211e+00
  2.161081e+01    1.768255e+00
  2.162669e+01    1.838232e+00
  2.164256e+01    1.979849e+00
  2.165844e+01    2.126721e+00
  2.167431e+01    2.308039e+00
  2.169019e+01    2.542748e+00
  2.170607e+01    2.809560e+00
  2.172194e+01    3.213466e+00
  2.173782e+01    3.650599e+00
  2.175369e+01    4.079528e+00
  2.176957e+01    4.590131e+00
  2.178544e+01    5.248997e+00
  2.180132e+01    5.920378e+00
  2.181719e+01    6.571353e+00
  2.183307e+01    7.251691e+00
  2.184895e+01    7.843504e+00
  2.186482e+01    8.404814e+00
  2.188070e+01    8.772372e+00
  2.189657e+01    8.914631e+00
  2.191245e+01    8.703414e+00
  2.192832e+01    8.207230e+00
  2.194420e+01    7.409232e+00
  2.196007e+01    6.506145e+00
  2.197595e+01    5.553555e+00
  2.199183e+01    4.749099e+00
  2.200770e+01    4.105436e+00
  2.202358e+01    3.542537e+00
  2.203945e+01    3.145732e+00
  2.205533e+01    2.806929e+00
  2.207120e+01    2.507659e+00
  2.208708e+01    2.268478e+00
  2.210296e+01    2.100489e+00
  2.211883e+01    1.961390e+00
  2.213471e+01    1.852220e+00
  2.215058e+01    1.761661e+00
  2.216646e+01    1.683498e+00
  2.218233e+01    1.606458e+00
  2.219821e+01    1.575608e+00
  2.221408e+01    1.510561e+00
  2.222996e+01    1.435654e+00
  2.224584e+01    1.394504e+00
  2.226171e+01    1.358719e+00
  2.227759e+01    1.351426e+00
  2.229346e+01    1.327877e+00
  2.230934e+01    1.287656e+00
  2.232521e+01    1.280436e+00
  2.234109e+01    1.262074e+00
  2.235696e+01    1.230807e+00
  2.237284e+01    1.226627e+00
  2.238872e+01    1.238170e+00
  2.240459e+01    1.206836e+00
  2.242047e+01    1.186561e+00
  2.243634e+01    1.170839e+00
  2.245222e+01    1.157372e+00
  2.246809e+01    1.174255e+00
  2.248397e+01    1.165057e+00
  2.249984e+01    1.156614e+00
  2.251572e+01    1.138377e+00
  2.253160e+01    1.122941e+00
  2.254747e+01    1.116027e+00
  2.256335e+01    1.106885e+00
  2.257922e+01    1.124072e+00
  2.259510e+01    1.114468e+00
  2.261097e+01    1.091922e+00
  2.262685e+01    1.121834e+00
  2.264272e+01    1.109790e+00
  2.265860e+01    1.096649e+00
  2.267448e+01    1.095369e+00
  2.269035e+01    1.066412e+00
  2.270623e+01    1.082422e+00
  2.272210e+01    1.072535e+00
  2.273798e+01    1.068782e+00
  2.275385e+01    1.070636e+00
  2.276973e+01    1.051317e+00
  2.278560e+01    1.049935e+00
  2.280148e+01    1.045055e+00
  2.281736e+01    1.056434e+00
  2.283323e+01    1.058698e+00
  2.284911e+01    1.051892e+00
  2.286498e+01    1.018385e+00
  2.288086e+01    1.026156e+00
  2.289673e+01    1.041103e+00
  2.291261e+01    1.044844e+00
  2.292848e+01    1.043901e+00
  2.294436e+01    1.041838e+00
  2.296024e+01    1.018317e+00
  2.297611e+01    1.035779e+00
  2.299199e+01    1.021698e+00
  2.300786e+01    1.027294e+00
  2.302374e+01    1.005824e+00
  2.303961e+01    1.019848e+00
  2.305549e+01    1.022059e+00
  2.307137e+01    1.010789e+00
  2.308724e+01    1.002472e+00
  2.310312e+01    1.000186e+00
  2.311899e+01    9.823032e-01
  2.313487e+01    9.865631e-01
  2.315074e+01    9.943804e-01
  2.316662e+01    9.962704e-01
  2.318249e+01    1.008170e+00
  2.319837e+01    1.019446e+00
  2.321425e+01    1.002122e+00
  2.323012e+01    9.850494e-01
  2.324600e+01    9.806643e-01
  2.326187e+01    9.981824e-01
  2.327775e+01    1.004874e+00
  2.329362e+01    9.849650e-01
  2.330950e+01    1.008463e+00
  2.332537e+01    1.005359e+00
  2.334125e+01    9.892607e-01
  2.335713e+01    9.883800e-01
  2.337300e+01    9.852658e-01
  2.338888e+01    9.749446e-01
  2.340475e+01    9.647567e-01
  2.342063e+01    9.640095e-01
  2.343650e+01    9.684744e-01
  2.345238e+01    9.923018e-01
  2.346825e+01    9.846683e-01
  2.348413e+01    9.809625e-01
  2.350001e+01    9.704651e-01
  2.351588e+01    9.742088e-01
  2.353176e+01    9.722016e-01
  2.354763e+01    9.518276e-01
  2.356351e+01    9.563691e-01
  2.357938e+01    9.468641e-01
  2.359526e+01    9.715842e-01
  2.361113e+01    9.736849e-01
  2.362701e+01    9.535003e-01
  2.364289e+01    9.568790e-01
  2.365876e+01    9.502044e-01
  2.367464e+01    9.319929e-01
  2.369051e+01    9.452302e-01
  2.370639e+01    9.371321e-01
  2.372226e+01    9.205816e-01
  2.373814e+01    9.500715e-01
  2.375401e+01    9.360723e-01
  2.376989e+01    9.364020e-01
  2.378577e+01    9.408255e-01
  2.380164e+01    9.353667e-01
  2.381752e+01    9.070512e-01
  2.383339e+01    9.017681e-01
  2.384927e+01    9.047447e-01
  2.386514e+01    8.956317e-01
  2.388102e+01    9.059892e-01
  2.389689e+01    9.178602e-01
  2.391277e+01    9.183347e-01
  2.392865e+01    8.937753e-01
  2.394452e+01    9.202787e-01
  2.396040e+01    9.246988e-01
  2.397627e+01    9.054178e-01
  2.399215e+01    8.893744e-01
  2.400802e+01    9.008108e-01
  2.402390e+01    8.798042e-01
  2.403978e+01    8.936741e-01
  2.405565e+01    8.830011e-01
  2.407153e+01    8.946095e-01
  2.408740e+01    8.947434e-01
  2.410328e+01    8.759905e-01
  2.411915e+01    8.846887e-01
  2.413503e+01    8.852154e-01
  2.415090e+01    8.861002e-01
  2.416678e+01    8.924723e-01
  2.418266e+01    8.926504e-01
  2.419853e+01    8.770962e-01
  2.421441e+01    8.802245e-01
  2.423028e+01    8.951513e-01
  2.424616e+01    8.850358e-01
  2.426203e+01    8.888721e-01
  2.427791e+01    8.917777e-01
  2.429378e+01    8.903996e-01
  2.430966e+01    8.992574e-01
  2.432554e+01    8.874950e-01
  2.434141e+01    8.772931e-01
  2.435729e+01    8.937149e-01
  2.437316e+01    8.935822e-01
  2.438904e+01    8.893093e-01
  2.440491e+01    8.697473e-01
  2.442079e+01    8.852524e-01
  2.443666e+01    8.866533e-01
  2.445254e+01    8.784820e-01
  2.446842e+01    8.915918e-01
  2.448429e+01    8.881501e-01
  2.450017e+01    8.748724e-01
  2.451604e+01    8.935522e-01
  2.453192e+01    9.070799e-01
  2.454779e+01    9.102916e-01
  2.456367e+01    9.225832e-01
  2.457954e+01    9.022747e-01
  2.459542e+01    8.954996e-01
  2.461130e+01    8.959725e-01
  2.462717e+01    8.889767e-01
  2.464305e+01    8.676192e-01
  2.465892e+01    8.994098e-01
  2.467480e+01    9.082937e-01
  2.469067e+01    8.881756e-01
  2.470655e+01    9.010705e-01
  2.472242e+01    8.982619e-01
  2.473830e+01    8.880709e-01
  2.475418e+01    8.893324e-01
  2.477005e+01    8.834856e-01
  2.478593e+01    8.978887e-01
  2.480180e+01    9.214999e-01
  2.481768e+01    9.052006e-01
  2.483355e+01    8.953826e-01
  2.484943e+01    9.039291e-01
  2.486530e+01    8.903487e-01
  2.488118e+01    8.879769e-01
  2.489706e+01    8.839351e-01
  2.491293e+01    8.869490e-01
  2.492881e+01    8.900470e-01
  2.494468e+01    9.007235e-01
  2.496056e+01    8.895201e-01
  2.497643e+01    8.961555e-01
  2.499231e+01    8.726894e-01
  2.500819e+01    8.753763e-01
  2.502406e+01    9.075525e-01
  2.503994e+01    8.952281e-01
  2.505581e+01    9.077208e-01
  2.507169e+01    9.143512e-01
  2.508756e+01    9.081549e-01
  2.510344e+01    9.159853e-01
  2.511931e+01    9.059716e-01
  2.513519e+01    9.017636e-01
  2.515107e+01    8.931747e-01
  2.516694e+01    9.200424e-01
  2.518282e+01    9.306303e-01
  2.519869e+01    9.192020e-01
  2.521457e+01    9.214370e-01
  2.523044e+01    9.183739e-01
  2.524632e+01    9.336077e-01
  2.526219e+01    9.258922e-01
  2.527807e+01    9.162512e-01
  2.529395e+01    9.509587e-01
  2.530982e+01    9.614635e-01
  2.532570e+01    9.577529e-01
  2.534157e+01    9.807835e-01
  2.535745e+01    9.822620e-01
  2.537332e+01    9.779480e-01
  2.538920e+01    9.643134e-01
  2.540507e+01    9.692610e-01
  2.542095e+01    1.006424e+00
  2.543683e+01    9.993875e-01
  2.545270e+01    1.002996e+00
  2.546858e+01    1.055106e+00
  2.548445e+01    1.058556e+00
  2.550033e+01    1.057528e+00
  2.551620e+01    1.065210e+00
  2.553208e+01    1.092022e+00
  2.554795e+01    1.110109e+00
  2.556383e+01    1.119597e+00
  2.557971e+01    1.152786e+00
  2.559558e+01    1.173620e+00
  2.561146e+01    1.209986e+00
  2.562733e+01    1.251006e+00
  2.564321e+01    1.321846e+00
  2.565908e+01    1.365863e+00
  2.567496e+01    1.442749e+00
  2.569083e+01    1.534089e+00
  2.570671e+01    1.623258e+00
  2.572259e+01    1.715192e+00
  2.573846e+01    1.851466e+00
  2.575434e+01    2.032269e+00
  2.577021e+01    2.265513e+00
  2.578609e+01    2.535315e+00
  2.580196e+01    2.846448e+00
  2.581784e+01    3.205653e+00
  2.583371e+01    3.669228e+00
  2.584959e+01    4.201569e+00
  2.586547e+01    4.745534e+00
  2.588134e+01    5.336154e+00
  2.589722e+01    5.864500e+00
  2.591309e+01    6.375834e+00
  2.592897e+01    6.809040e+00
  2.594484e+01    7.061831e+00
  2.596072e+01    7.112156e+00
  2.597660e+01    6.979133e+00
  2.599247e+01    6.511676e+00
  2.600835e+01    5.862072e+00
  2.602422e+01    5.184796e+00
  2.604010e+01    4.513784e+00
  2.605597e+01    3.907635e+00
  2.607185e+01    3.395031e+00
  2.608772e+01    2.965587e+00
  2.610360e+01    2.626130e+00
  2.611948e+01    2.335024e+00
  2.613535e+01    2.084778e+00
  2.615123e+01    1.907989e+00
  2.616710e+01    1.780120e+00
  2.618298e+01    1.642606e+00
  2.619885e+01    1.583869e+00
  2.621473e+01    1.488273e+00
  2.623060e+01    1.398479e+00
  2.624648e+01    1.339706e+00
  2.626236e+01    1.282137e+00
  2.627823e+01    1.247522e+00
  2.629411e+01    1.226354e+00
  2.630998e+01    1.156548e+00
  2.632586e+01    1.144516e+00
  2.634173e+01    1.111778e+00
  2.635761e+01    1.106161e+00
  2.637348e+01    1.100187e+00
  2.638936e+01    1.072580e+00
  2.640524e+01    1.058677e+00
  2.642111e+01    1.050416e+00
  2.643699e+01    1.042198e+00
  2.645286e+01    1.044937e+00
  2.646874e+01    1.032531e+00
  2.648461e+01    9.969856e-01
  2.650049e+01    1.022918e+00
  2.651636e+01    1.011989e+00
  2.653224e+01    9.930180e-01
  2.654812e+01    9.808825e-01
  2.656399e+01    9.843227e-01
  2.657987e+01    1.012443e+00
  2.659574e+01    1.005723e+00
  2.661162e+01    9.803139e-01
  2.662749e+01    9.683822e-01
  2.664337e+01    9.710317e-01
  2.665924e+01    9.919047e-01
  2.667512e+01    9.861767e-01
  2.669100e+01    9.757426e-01
  2.670687e+01    9.653000e-01
  2.672275e+01    9.720955e-01
  2.673862e+01    9.623033e-01
  2.675450e+01    9.425256e-01
  2.677037e+01    9.658927e-01
  2.678625e+01    9.733842e-01
  2.680212e+01    9.671303e-01
  2.681800e+01    9.933257e-01
  2.683388e+01    9.902665e-01
  2.684975e+01    9.677394e-01
  2.686563e+01    9.622917e-01
  2.688150e+01    9.739262e-01
  2.689738e+01    9.944385e-01
  2.691325e+01    1.028671e+00
  2.692913e+01    1.035766e+00
  2.694501e+01    1.012808e+00
  2.696088e+01    1.039917e+00
  2.697676e+01    1.071767e+00
  2.699263e+01    1.107111e+00
  2.700851e+01    1.126141e+00
  2.702438e+01    1.158113e+00
  2.704026e+01    1.194454e+00
  2.705613e+01    1.269643e+00
  2.707201e+01    1.324476e+00
  2.708789e+01    1.405293e+00
  2.710376e+01    1.514601e+00
  2.711964e+01    1.611011e+00
  2.713551e+01    1.750587e+00
  2.715139e+01    1.866055e+00
  2.716726e+01    2.002666e+00
  2.718314e+01    2.118369e+00
  2.719901e+01    2.191767e+00
  2.721489e+01    2.194295e+00
  2.723077e+01    2.148537e+00
  2.724664e+01    2.067554e+00
  2.726252e+01    1.930326e+00
  2.727839e+01    1.813863e+00
  2.729427e+01    1.689425e+00
  2.731014e+01    1.563616e+00
  2.732602e+01    1.454365e+00
  2.734189e+01    1.323711e+00
  2.735777e+01    1.292041e+00
  2.737365e+01    1.217489e+00
  2.738952e+01    1.161474e+00
  2.740540e+01    1.120721e+00
  2.742127e+01    1.066440e+00
  2.743715e+01    1.062873e+00
  2.745302e+01    1.040886e+00
  2.746890e+01    1.028428e+00
  2.748477e+01    9.962172e-01
  2.750065e+01    9.803914e-01
  2.751653e+01    9.927096e-01
  2.753240e+01    9.723253e-01
  2.754828e+01    9.595153e-01
  2.756415e+01    9.419753e-01
  2.758003e+01    9.414334e-01
  2.759590e+01    9.387091e-01
  2.761178e+01    9.305725e-01
  2.762765e+01    9.284369e-01
  2.764353e+01    9.309753e-01
  2.765941e+01    9.145012e-01
  2.767528e+01    9.113775e-01
  2.769116e+01    9.217802e-01
  2.770703e+01    9.245884e-01
  2.772291e+01    8.972397e-01
  2.773878e+01    9.049224e-01
  2.775466e+01    8.898639e-01
  2.777054e+01    8.835141e-01
  2.778641e+01    9.094288e-01
  2.780229e+01    9.019237e-01
  2.781816e+01    8.894675e-01
  2.783404e+01    8.611099e-01
  2.784991e+01    8.742372e-01
  2.786579e+01    8.811924e-01
  2.788166e+01    8.791707e-01
  2.789754e+01    8.852483e-01
  2.791342e+01    8.943185e-01
  2.792929e+01    8.791786e-01
  2.794517e+01    8.741441e-01
  2.796104e+01    8.845032e-01
  2.797692e+01    8.781782e-01
  2.799279e+01    8.938901e-01
  2.800867e+01    8.901175e-01
  2.802454e+01    8.776985e-01
  2.804042e+01    8.486403e-01
  2.805630e+01    8.527796e-01
  2.807217e+01    8.690885e-01
  2.808805e+01    8.659159e-01
  2.810392e+01    8.590025e-01
  2.811980e+01    8.482745e-01
  2.813567e+01    8.567742e-01
  2.815155e+01    8.656115e-01
  2.816742e+01    8.407406e-01
  2.818330e+01    8.645825e-01
  2.819918e+01    8.541340e-01
  2.821505e+01    8.294691e-01
  2.823093e+01    8.565395e-01
  2.824680e+01    8.594397e-01
  2.826268e+01    8.635161e-01
  2.827855e+01    8.584179e-01
  2.829443e+01    8.484612e-01
  2.831030e+01    8.455564e-01
  2.832618e+01    8.506786e-01
  2.834206e+01    8.573800e-01
  2.835793e+01    8.669734e-01
  2.837381e+01    8.345735e-01
  2.838968e+01    8.414704e-01
  2.840556e+01    8.404949e-01
  2.842143e+01    8.346676e-01
  2.843731e+01    8.403828e-01
  2.845318e+01    8.402942e-01
  2.846906e+01    8.351033e-01
  2.848494e+01    8.429241e-01
  2.850081e+01    8.489671e-01
  2.851669e+01    8.464006e-01
  2.853256e+01    8.519189e-01
  2.854844e+01    8.304161e-01
  2.856431e+01    8.210094e-01
  2.858019e+01    8.229746e-01
  2.859606e+01    8.216369e-01
  2.861194e+01    8.521427e-01
  2.862782e+01    8.240092e-01
  2.864369e+01    8.121125e-01
  2.865957e+01    8.317499e-01
  2.867544e+01    8.390278e-01
  2.869132e+01    8.446555e-01
  2.870719e+01    8.297078e-01
  2.872307e+01    8.077539e-01
  2.873895e+01    8.044900e-01
  2.875482e+01    8.281660e-01
  2.877070e+01    8.320035e-01
  2.878657e+01    8.329461e-01
  2.880245e+01    8.209183e-01
  2.881832e+01    8.075522e-01
  2.883420e+01    8.253198e-01
  2.885007e+01    8.263679e-01
  2.886595e+01    8.331190e-01
  2.888183e+01    8.309336e-01
  2.889770e+01    8.260872e-01
  2.891358e+01    8.185898e-01
  2.892945e+01    7.972027e-01
  2.894533e+01    8.302841e-01
  2.896120e+01    8.037027e-01
  2.897708e+01    8.103390e-01
  2.899295e+01    8.176543e-01
  2.900883e+01    8.300470e-01
  2.902471e+01    8.486599e-01
  2.904058e+01    8.158630e-01
  2.905646e+01    8.423352e-01
  2.907233e+01    8.250515e-01
  2.908821e+01    8.114201e-01
  2.910408e+01    8.196690e-01
  2.911996e+01    8.330962e-01
  2.913583e+01    8.286368e-01
  2.915171e+01    8.321207e-01
  2.916759e+01    8.325233e-01
  2.918346e+01    8.107145e-01
  2.919934e+01    7.931342e-01
  2.921521e+01    8.200474e-01
  2.923109e+01    8.182929e-01
  2.924696e+01    8.154301e-01
  2.926284e+01    8.024363e-01
  2.927871e+01    8.111175e-01
  2.929459e+01    8.180770e-01
  2.931047e+01    8.045408e-01
  2.932634e+01    7.989067e-01
  2.934222e+01    8.122643e-01
  2.935809e+01    8.064851e-01
  2.937397e+01    7.726892e-01
  2.938984e+01    7.883991e-01
  2.940572e+01    8.128928e-01
  2.942159e+01    8.140171e-01
  2.943747e+01    8.220347e-01
  2.945335e+01    8.198411e-01
  2.946922e+01    7.857543e-01
  2.948510e+01    7.992681e-01
  2.950097e+01    8.174010e-01
  2.951685e+01    8.089113e-01
  2.953272e+01    8.157837e-01
  2.954860e+01    8.009455e-01
  2.956447e+01    8.019482e-01
  2.958035e+01    8.048798e-01
  2.959623e+01    8.034211e-01
  2.961210e+01    7.945359e-01
  2.962798e+01    7.953953e-01
  2.964385e+01    7.733619e-01
  2.965973e+01    7.785976e-01
  2.967560e+01    7.858555e-01
  2.969148e+01    7.649077e-01
  2.970736e+01    7.763155e-01
  2.972323e+01    7.817904e-01
  2.973911e+01    7.848074e-01
  2.975498e+01    7.864027e-01
  2.977086e+01    7.982718e-01
  2.978673e+01    7.804356e-01
  2.980261e+01    7.957978e-01
  2.981848e+01    7.881035e-01
  2.983436e+01    7.914758e-01
  2.985024e+01    8.159572e-01
  2.986611e+01    7.971355e-01
  2.988199e+01    7.846982e-01
  2.989786e+01    7.810928e-01
  2.991374e+01    7.756192e-01
  2.992961e+01    7.888620e-01
  2.994549e+01    8.106138e-01
  2.996136e+01    7.956367e-01
  2.997724e+01    7.977502e-01
  2.999312e+01    7.959632e-01
  3.000899e+01    8.124293e-01
  3.002487e+01    8.126656e-01
  3.004074e+01    8.090029e-01
  3.005662e+01    8.094498e-01
  3.007249e+01    8.081497e-01
  3.008837e+01    8.199005e-01
  3.010424e+01    8.072962e-01
  3.012012e+01    7.929661e-01
  3.013600e+01    7.814384e-01
  3.015187e+01    7.915786e-01
  3.016775e+01    7.885332e-01
  3.018362e+01    7.850096e-01
  3.019950e+01    7.760919e-01
  3.021537e+01    7.938207e-01
  3.023125e+01    8.018806e-01
  3.024712e+01    7.819521e-01
  3.026300e+01    7.842609e-01
  3.027888e+01    7.714353e-01
  3.029475e+01    7.781519e-01
  3.031063e+01    7.955445e-01
  3.032650e+01    7.968013e-01
  3.034238e+01    7.857761e-01
  3.035825e+01    7.721088e-01
  3.037413e+01    7.905720e-01
  3.039000e+01    7.949805e-01
  3.040588e+01    7.980516e-01
  3.042176e+01    8.051090e-01
  3.043763e+01    7.884690e-01
  3.045351e+01    7.586283e-01
  3.046938e+01    7.563477e-01
  3.048526e+01    7.908855e-01
  3.050113e+01    7.868187e-01
  3.051701e+01    7.951860e-01
  3.053288e+01    7.709629e-01
  3.054876e+01    7.825495e-01
  3.056464e+01    7.780275e-01
  3.058051e+01    7.779068e-01
  3.059639e+01    7.735363e-01
  3.061226e+01    7.894431e-01
  3.062814e+01    7.780035e-01
  3.064401e+01    7.892167e-01
  3.065989e+01    7.850681e-01
  3.067577e+01    7.889035e-01
  3.069164e+01    7.860618e-01
  3.070752e+01    7.757279e-01
  3.072339e+01    7.781002e-01
  3.073927e+01    7.735974e-01
  3.075514e+01    7.861528e-01
  3.077102e+01    7.854944e-01
  3.078689e+01    7.870347e-01
  3.080277e+01    7.807302e-01
  3.081865e+01    7.842664e-01
  3.083452e+01    7.845832e-01
  3.085040e+01    7.824948e-01
  3.086627e+01    7.696126e-01
  3.088215e+01    7.977979e-01
  3.089802e+01    7.770658e-01
  3.091390e+01    7.940741e-01
  3.092977e+01    8.144805e-01
  3.094565e+01    7.721770e-01
  3.096153e+01    7.848256e-01
  3.097740e+01    7.816995e-01
  3.099328e+01    7.576426e-01
  3.100915e+01    7.574362e-01
  3.102503e+01    7.807189e-01
  3.104090e+01    7.866040e-01
  3.105678e+01    7.899415e-01
  3.107265e+01    7.911706e-01
  3.108853e+01    7.920553e-01
  3.110441e+01    7.887553e-01
  3.112028e+01    7.821705e-01
  3.113616e+01    7.884834e-01
  3.115203e+01    7.883774e-01
  3.116791e+01    7.975659e-01
  3.118378e+01    7.907338e-01
  3.119966e+01    8.086139e-01
  3.121553e+01    8.032320e-01
  3.123141e+01    7.941590e-01
  3.124729e+01    7.816423e-01
  3.126316e+01    7.983829e-01
  3.127904e+01    7.949929e-01
  3.129491e+01    7.990980e-01
  3.131079e+01    7.913774e-01
  3.132666e+01    7.946141e-01
  3.134254e+01    7.947583e-01
  3.135841e+01    7.928233e-01
  3.137429e+01    7.838662e-01
  3.139017e+01    8.256926e-01
  3.140604e+01    8.162110e-01
  3.142192e+01    8.343430e-01
  3.143779e+01    8.299343e-01
  3.145367e+01    8.134631e-01
  3.146954e+01    8.202043e-01
  3.148542e+01    8.045956e-01
  3.150129e+01    8.195209e-01
  3.151717e+01    8.299126e-01
  3.153305e+01    8.393968e-01
  3.154892e+01    8.493934e-01
  3.156480e+01    8.784065e-01
  3.158067e+01    8.620266e-01
  3.159655e+01    8.670077e-01
  3.161242e+01    8.738456e-01
  3.162830e+01    8.959226e-01
  3.164418e+01    9.350039e-01
  3.166005e+01    9.510224e-01
  3.167593e+01    9.721097e-01
  3.169180e+01    1.009760e+00
  3.170768e+01    1.058042e+00
  3.172355e+01    1.080063e+00
  3.173943e+01    1.136204e+00
  3.175530e+01    1.212851e+00
  3.177118e+01    1.277573e+00
  3.178706e+01    1.395133e+00
  3.180293e+01    1.461181e+00
  3.181881e+01    1.569786e+00
  3.183468e+01    1.717194e+00
  3.185056e+01    1.853805e+00
  3.186643e+01    1.977519e+00
  3.188231e+01    2.074386e+00
  3.189818e+01    2.088751e+00
  3.191406e+01    2.054040e+00
  3.192994e+01    1.983961e+00
  3.194581e+01    1.896123e+00
  3.196169e+01    1.786075e+00
  3.197756e+01    1.654324e+00
  3.199344e+01    1.514434e+00
  3.200931e+01    1.397638e+00
  3.202519e+01    1.302550e+00
  3.204106e+01    1.232504e+00
  3.205694e+01    1.150783e+00
  3.207282e+01    1.081628e+00
  3.208869e+01    1.027479e+00
  3.210457e+01    1.003173e+00
  3.212044e+01    9.856090e-01
  3.213632e+01    9.454904e-01
  3.215219e+01    9.121137e-01
  3.216807e+01    8.677742e-01
  3.218394e+01    8.459326e-01
  3.219982e+01    8.610170e-01
  3.221570e+01    8.794701e-01
  3.223157e+01    8.819075e-01
  3.224745e+01    8.335792e-01
  3.226332e+01    8.174341e-01
  3.227920e+01    8.266686e-01
  3.229507e+01    7.877028e-01
  3.231095e+01    7.809798e-01
  3.232682e+01    8.015209e-01
  3.234270e+01    8.193042e-01
  3.235858e+01    7.933035e-01
  3.237445e+01    7.784228e-01
  3.239033e+01    7.994430e-01
  3.240620e+01    7.898061e-01
  3.242208e+01    7.988392e-01
  3.243795e+01    8.017163e-01
  3.245383e+01    8.017603e-01
  3.246970e+01    7.912793e-01
  3.248558e+01    7.774173e-01
  3.250146e+01    7.808462e-01
  3.251733e+01    7.648596e-01
  3.253321e+01    7.768221e-01
  3.254908e+01    7.928657e-01
