# == pyFAI calibration ==
# Distance Sample to Detector: 0.3999999939076516 m
# PONI: 9.750e-02, 1.135e-01 m
# Rotations: -0.000175 0.000000 -0.000000 rad
# 
# == Fit2d calibration ==
# Distance Sample-beamCenter: 400.000 mm
# Center: x=1514.000, y=1300.000 pix
# Tilt: 0.010 deg  TiltPlanRot: 0.010 deg
# 
# Detector Detector	 Spline= None	 PixelSize= 7.500e-05, 7.500e-05 m
#    Detector has a mask: False 
#    Detector has a dark current: False 
#    detector has a flat field: False 
# 
# Wavelength: 6.888e-11 m
# Mask applied: user provided
# Dark current applied: False
# Flat field applied: False
# Polarization factor: 0.99
# Normalization factor: 1.0
# --> /home/myspot/data/2024_07_Rosario/Ru-CGO-ex/2024-07-27_003_Ru-CGO-ex_Reaction_dwell_000023_data_000090.dat
#       q_nm^-1             I 
  2.003187e-02    0.000000e+00
  3.590745e-02    6.855699e-02
  5.178302e-02    1.905794e-01
  6.765859e-02    1.576640e-01
  8.353417e-02    2.009160e-01
  9.940974e-02    1.806750e-01
  1.152853e-01    2.997023e-02
  1.311609e-01    8.790557e-02
  1.470365e-01    9.547535e-02
  1.629120e-01    3.182117e-02
  1.787876e-01    1.161120e-02
  1.946632e-01    6.525567e-02
  2.105388e-01    6.579411e-02
  2.264143e-01    3.941229e-02
  2.422899e-01    3.961842e-02
  2.581655e-01    1.059986e-02
  2.740411e-01    2.632853e-02
  2.899166e-01    4.076477e-02
  3.057922e-01    2.908503e-02
  3.216678e-01    1.277561e-02
  3.375433e-01    3.796670e-02
  3.534189e-01    3.736715e-02
  3.692945e-01    1.556806e-02
  3.851701e-01    2.570735e-02
  4.010456e-01    3.498175e-02
  4.169212e-01    3.933766e-02
  4.327968e-01    2.922189e-02
  4.486724e-01    5.090791e-02
  4.645479e-01    5.645718e-02
  4.804235e-01    3.494079e-02
  4.962991e-01    5.812487e-02
  5.121747e-01    5.198077e-02
  5.280502e-01    6.092151e-02
  5.439258e-01    6.143810e-02
  5.598014e-01    8.419302e-02
  5.756770e-01    6.317730e-02
  5.915525e-01    7.056747e-02
  6.074281e-01    5.505647e-02
  6.233037e-01    3.545672e-02
  6.391793e-01    1.460789e-02
  6.550548e-01    2.188383e-02
  6.709304e-01    9.355648e-03
  6.868060e-01    2.775591e-02
  7.026815e-01    3.829588e-02
  7.185571e-01    3.080793e-02
  7.344327e-01    3.417232e-02
  7.503083e-01    4.461093e-02
  7.661838e-01    1.048904e-01
  7.820594e-01    9.069188e-02
  7.979350e-01    1.394228e-01
  8.138106e-01    2.249312e-01
  8.296861e-01    2.883641e-01
  8.455617e-01    3.050649e-01
  8.614373e-01    3.781263e-01
  8.773129e-01    4.962365e-01
  8.931884e-01    4.806981e-01
  9.090640e-01    5.559890e-01
  9.249396e-01    6.898383e-01
  9.408152e-01    8.015348e-01
  9.566907e-01    8.843628e-01
  9.725663e-01    9.348006e-01
  9.884419e-01    1.104542e+00
  1.004317e+00    1.243947e+00
  1.020193e+00    1.333377e+00
  1.036069e+00    1.371271e+00
  1.051944e+00    1.501349e+00
  1.067820e+00    1.514408e+00
  1.083695e+00    1.481622e+00
  1.099571e+00    1.599482e+00
  1.115446e+00    1.629257e+00
  1.131322e+00    1.715908e+00
  1.147198e+00    1.736753e+00
  1.163073e+00    1.699104e+00
  1.178949e+00    1.715205e+00
  1.194824e+00    1.781313e+00
  1.210700e+00    1.928793e+00
  1.226575e+00    2.313272e+00
  1.242451e+00    2.439805e+00
  1.258327e+00    2.422228e+00
  1.274202e+00    2.513183e+00
  1.290078e+00    2.658604e+00
  1.305953e+00    2.687119e+00
  1.321829e+00    2.804305e+00
  1.337705e+00    2.874516e+00
  1.353580e+00    2.793945e+00
  1.369456e+00    2.756942e+00
  1.385331e+00    2.880167e+00
  1.401207e+00    2.972293e+00
  1.417082e+00    2.982786e+00
  1.432958e+00    3.076641e+00
  1.448834e+00    3.019181e+00
  1.464709e+00    2.956616e+00
  1.480585e+00    2.978851e+00
  1.496460e+00    3.070752e+00
  1.512336e+00    3.158976e+00
  1.528211e+00    3.369733e+00
  1.544087e+00    3.288175e+00
  1.559963e+00    3.133725e+00
  1.575838e+00    3.157558e+00
  1.591714e+00    3.069340e+00
  1.607589e+00    3.005023e+00
  1.623465e+00    3.041168e+00
  1.639340e+00    3.124099e+00
  1.655216e+00    3.159879e+00
  1.671092e+00    3.058101e+00
  1.686967e+00    3.064933e+00
  1.702843e+00    3.112249e+00
  1.718718e+00    3.116920e+00
  1.734594e+00    3.011125e+00
  1.750469e+00    3.042016e+00
  1.766345e+00    3.097216e+00
  1.782221e+00    3.033530e+00
  1.798096e+00    2.990038e+00
  1.813972e+00    2.999403e+00
  1.829847e+00    3.058983e+00
  1.845723e+00    3.173442e+00
  1.861598e+00    3.199964e+00
  1.877474e+00    3.247998e+00
  1.893350e+00    3.173382e+00
  1.909225e+00    3.101172e+00
  1.925101e+00    3.112344e+00
  1.940976e+00    3.137141e+00
  1.956852e+00    3.093999e+00
  1.972727e+00    2.989924e+00
  1.988603e+00    3.044859e+00
  2.004479e+00    3.020129e+00
  2.020354e+00    2.929384e+00
  2.036230e+00    2.865744e+00
  2.052105e+00    3.070425e+00
  2.067981e+00    3.097552e+00
  2.083856e+00    3.067782e+00
  2.099732e+00    3.131032e+00
  2.115608e+00    3.148054e+00
  2.131483e+00    3.119473e+00
  2.147359e+00    3.144080e+00
  2.163234e+00    3.112888e+00
  2.179110e+00    3.145351e+00
  2.194985e+00    3.159051e+00
  2.210861e+00    3.166941e+00
  2.226737e+00    3.120763e+00
  2.242612e+00    3.146016e+00
  2.258488e+00    3.178382e+00
  2.274363e+00    3.165399e+00
  2.290239e+00    3.120735e+00
  2.306115e+00    3.132810e+00
  2.321990e+00    3.097266e+00
  2.337866e+00    3.120272e+00
  2.353741e+00    3.208337e+00
  2.369617e+00    3.120978e+00
  2.385492e+00    3.179650e+00
  2.401368e+00    3.266626e+00
  2.417244e+00    3.187015e+00
  2.433119e+00    3.285231e+00
  2.448995e+00    3.239307e+00
  2.464870e+00    3.226953e+00
  2.480746e+00    3.181910e+00
  2.496621e+00    3.292000e+00
  2.512497e+00    3.288351e+00
  2.528373e+00    3.199653e+00
  2.544248e+00    3.191046e+00
  2.560124e+00    3.100861e+00
  2.575999e+00    3.201930e+00
  2.591875e+00    3.279620e+00
  2.607750e+00    3.306814e+00
  2.623626e+00    3.242487e+00
  2.639502e+00    3.317246e+00
  2.655377e+00    3.297359e+00
  2.671253e+00    3.247790e+00
  2.687128e+00    3.208849e+00
  2.703004e+00    3.200616e+00
  2.718879e+00    3.200751e+00
  2.734755e+00    3.236685e+00
  2.750631e+00    3.128302e+00
  2.766506e+00    3.183427e+00
  2.782382e+00    3.306826e+00
  2.798257e+00    3.332313e+00
  2.814133e+00    3.260580e+00
  2.830008e+00    3.301675e+00
  2.845884e+00    3.339655e+00
  2.861760e+00    3.176614e+00
  2.877635e+00    3.260091e+00
  2.893511e+00    3.309604e+00
  2.909386e+00    3.275321e+00
  2.925262e+00    3.297514e+00
  2.941137e+00    3.376416e+00
  2.957013e+00    3.275146e+00
  2.972889e+00    3.390500e+00
  2.988764e+00    3.351132e+00
  3.004640e+00    3.365007e+00
  3.020515e+00    3.419086e+00
  3.036391e+00    3.339635e+00
  3.052266e+00    3.289339e+00
  3.068142e+00    3.327945e+00
  3.084018e+00    3.456145e+00
  3.099893e+00    3.277107e+00
  3.115769e+00    3.289386e+00
  3.131644e+00    3.421560e+00
  3.147520e+00    3.288916e+00
  3.163395e+00    3.322698e+00
  3.179271e+00    3.459399e+00
  3.195147e+00    3.507357e+00
  3.211022e+00    3.435088e+00
  3.226898e+00    3.451756e+00
  3.242773e+00    3.461163e+00
  3.258649e+00    3.391238e+00
  3.274525e+00    3.432084e+00
  3.290400e+00    3.389699e+00
  3.306276e+00    3.328174e+00
  3.322151e+00    3.394356e+00
  3.338027e+00    3.437233e+00
  3.353902e+00    3.416922e+00
  3.369778e+00    3.307630e+00
  3.385654e+00    3.305555e+00
  3.401529e+00    3.411999e+00
  3.417405e+00    3.445532e+00
  3.433280e+00    3.385164e+00
  3.449156e+00    3.410258e+00
  3.465031e+00    3.412380e+00
  3.480907e+00    3.423878e+00
  3.496783e+00    3.451201e+00
  3.512658e+00    3.418447e+00
  3.528534e+00    3.492706e+00
  3.544409e+00    3.414389e+00
  3.560285e+00    3.468524e+00
  3.576160e+00    3.456992e+00
  3.592036e+00    3.507319e+00
  3.607912e+00    3.469062e+00
  3.623787e+00    3.431742e+00
  3.639663e+00    3.440294e+00
  3.655538e+00    3.448163e+00
  3.671414e+00    3.460055e+00
  3.687289e+00    3.552490e+00
  3.703165e+00    3.551856e+00
  3.719041e+00    3.492763e+00
  3.734916e+00    3.459105e+00
  3.750792e+00    3.488384e+00
  3.766667e+00    3.564895e+00
  3.782543e+00    3.534759e+00
  3.798418e+00    3.564707e+00
  3.814294e+00    3.568106e+00
  3.830170e+00    3.546977e+00
  3.846045e+00    3.524858e+00
  3.861921e+00    3.543670e+00
  3.877796e+00    3.447280e+00
  3.893672e+00    3.462669e+00
  3.909547e+00    3.479626e+00
  3.925423e+00    3.532349e+00
  3.941299e+00    3.547140e+00
  3.957174e+00    3.594018e+00
  3.973050e+00    3.599676e+00
  3.988925e+00    3.559652e+00
  4.004801e+00    3.585947e+00
  4.020676e+00    3.542777e+00
  4.036552e+00    3.524542e+00
  4.052428e+00    3.643682e+00
  4.068303e+00    3.650813e+00
  4.084179e+00    3.569818e+00
  4.100054e+00    3.583594e+00
  4.115930e+00    3.551354e+00
  4.131806e+00    3.583543e+00
  4.147681e+00    3.517176e+00
  4.163557e+00    3.488591e+00
  4.179432e+00    3.532783e+00
  4.195308e+00    3.574120e+00
  4.211183e+00    3.584424e+00
  4.227059e+00    3.574044e+00
  4.242935e+00    3.544888e+00
  4.258810e+00    3.562715e+00
  4.274686e+00    3.568534e+00
  4.290561e+00    3.482495e+00
  4.306437e+00    3.508817e+00
  4.322312e+00    3.596205e+00
  4.338188e+00    3.584753e+00
  4.354064e+00    3.583346e+00
  4.369939e+00    3.567683e+00
  4.385815e+00    3.610189e+00
  4.401690e+00    3.636045e+00
  4.417566e+00    3.593359e+00
  4.433441e+00    3.617984e+00
  4.449317e+00    3.587172e+00
  4.465193e+00    3.590001e+00
  4.481068e+00    3.662422e+00
  4.496944e+00    3.663202e+00
  4.512819e+00    3.584800e+00
  4.528695e+00    3.566230e+00
  4.544570e+00    3.563262e+00
  4.560446e+00    3.632113e+00
  4.576322e+00    3.587568e+00
  4.592197e+00    3.544161e+00
  4.608073e+00    3.607586e+00
  4.623948e+00    3.668715e+00
  4.639824e+00    3.535918e+00
  4.655699e+00    3.544974e+00
  4.671575e+00    3.591971e+00
  4.687451e+00    3.622508e+00
  4.703326e+00    3.601977e+00
  4.719202e+00    3.641644e+00
  4.735077e+00    3.627985e+00
  4.750953e+00    3.552178e+00
  4.766828e+00    3.660098e+00
  4.782704e+00    3.608722e+00
  4.798580e+00    3.617769e+00
  4.814455e+00    3.716975e+00
  4.830331e+00    3.713264e+00
  4.846206e+00    3.700140e+00
  4.862082e+00    3.606926e+00
  4.877957e+00    3.604994e+00
  4.893833e+00    3.615433e+00
  4.909709e+00    3.623775e+00
  4.925584e+00    3.619440e+00
  4.941460e+00    3.617084e+00
  4.957335e+00    3.635584e+00
  4.973211e+00    3.635491e+00
  4.989086e+00    3.591586e+00
  5.004962e+00    3.676408e+00
  5.020838e+00    3.658741e+00
  5.036713e+00    3.663362e+00
  5.052589e+00    3.661148e+00
  5.068464e+00    3.563634e+00
  5.084340e+00    3.681203e+00
  5.100216e+00    3.637292e+00
  5.116091e+00    3.580408e+00
  5.131967e+00    3.638712e+00
  5.147842e+00    3.662839e+00
  5.163718e+00    3.558129e+00
  5.179593e+00    3.634160e+00
  5.195469e+00    3.638730e+00
  5.211345e+00    3.631426e+00
  5.227220e+00    3.726035e+00
  5.243096e+00    3.710829e+00
  5.258971e+00    3.667335e+00
  5.274847e+00    3.607656e+00
  5.290722e+00    3.637361e+00
  5.306598e+00    3.680607e+00
  5.322474e+00    3.589211e+00
  5.338349e+00    3.605203e+00
  5.354225e+00    3.636720e+00
  5.370100e+00    3.645507e+00
  5.385976e+00    3.658925e+00
  5.401851e+00    3.603934e+00
  5.417727e+00    3.653534e+00
  5.433603e+00    3.573611e+00
  5.449478e+00    3.581309e+00
  5.465354e+00    3.577236e+00
  5.481229e+00    3.581094e+00
  5.497105e+00    3.667460e+00
  5.512980e+00    3.647630e+00
  5.528856e+00    3.656748e+00
  5.544732e+00    3.617757e+00
  5.560607e+00    3.556183e+00
  5.576483e+00    3.547193e+00
  5.592358e+00    3.601672e+00
  5.608234e+00    3.514954e+00
  5.624109e+00    3.613294e+00
  5.639985e+00    3.624811e+00
  5.655861e+00    3.549656e+00
  5.671736e+00    3.579009e+00
  5.687612e+00    3.591339e+00
  5.703487e+00    3.608562e+00
  5.719363e+00    3.696564e+00
  5.735238e+00    3.609854e+00
  5.751114e+00    3.623311e+00
  5.766990e+00    3.621589e+00
  5.782865e+00    3.607362e+00
  5.798741e+00    3.554987e+00
  5.814616e+00    3.607247e+00
  5.830492e+00    3.536274e+00
  5.846367e+00    3.598161e+00
  5.862243e+00    3.609970e+00
  5.878119e+00    3.572052e+00
  5.893994e+00    3.583148e+00
  5.909870e+00    3.493530e+00
  5.925745e+00    3.490391e+00
  5.941621e+00    3.599085e+00
  5.957497e+00    3.694136e+00
  5.973372e+00    3.596517e+00
  5.989248e+00    3.530351e+00
  6.005123e+00    3.493138e+00
  6.020999e+00    3.528771e+00
  6.036874e+00    3.547527e+00
  6.052750e+00    3.540636e+00
  6.068626e+00    3.529774e+00
  6.084501e+00    3.582693e+00
  6.100377e+00    3.533745e+00
  6.116252e+00    3.549822e+00
  6.132128e+00    3.599399e+00
  6.148003e+00    3.567484e+00
  6.163879e+00    3.594907e+00
  6.179755e+00    3.554644e+00
  6.195630e+00    3.557805e+00
  6.211506e+00    3.531147e+00
  6.227381e+00    3.572657e+00
  6.243257e+00    3.533712e+00
  6.259132e+00    3.566010e+00
  6.275008e+00    3.588003e+00
  6.290884e+00    3.594363e+00
  6.306759e+00    3.592851e+00
  6.322635e+00    3.591494e+00
  6.338510e+00    3.541948e+00
  6.354386e+00    3.582664e+00
  6.370261e+00    3.548505e+00
  6.386137e+00    3.531128e+00
  6.402013e+00    3.493990e+00
  6.417888e+00    3.528145e+00
  6.433764e+00    3.513679e+00
  6.449639e+00    3.501601e+00
  6.465515e+00    3.581307e+00
  6.481390e+00    3.605378e+00
  6.497266e+00    3.571427e+00
  6.513142e+00    3.600904e+00
  6.529017e+00    3.579931e+00
  6.544893e+00    3.507238e+00
  6.560768e+00    3.470747e+00
  6.576644e+00    3.561153e+00
  6.592519e+00    3.577172e+00
  6.608395e+00    3.525905e+00
  6.624271e+00    3.595618e+00
  6.640146e+00    3.598407e+00
  6.656022e+00    3.509427e+00
  6.671897e+00    3.486111e+00
  6.687773e+00    3.467628e+00
  6.703648e+00    3.476603e+00
  6.719524e+00    3.515826e+00
  6.735400e+00    3.611825e+00
  6.751275e+00    3.536357e+00
  6.767151e+00    3.576846e+00
  6.783026e+00    3.571343e+00
  6.798902e+00    3.572505e+00
  6.814777e+00    3.614878e+00
  6.830653e+00    3.601989e+00
  6.846529e+00    3.597595e+00
  6.862404e+00    3.581887e+00
  6.878280e+00    3.540102e+00
  6.894155e+00    3.542740e+00
  6.910031e+00    3.528930e+00
  6.925907e+00    3.602092e+00
  6.941782e+00    3.575189e+00
  6.957658e+00    3.562515e+00
  6.973533e+00    3.504978e+00
  6.989409e+00    3.497419e+00
  7.005284e+00    3.630253e+00
  7.021160e+00    3.509273e+00
  7.037036e+00    3.448375e+00
  7.052911e+00    3.465516e+00
  7.068787e+00    3.512420e+00
  7.084662e+00    3.592526e+00
  7.100538e+00    3.591893e+00
  7.116413e+00    3.579980e+00
  7.132289e+00    3.498398e+00
  7.148165e+00    3.540960e+00
  7.164040e+00    3.569775e+00
  7.179916e+00    3.556860e+00
  7.195791e+00    3.491024e+00
  7.211667e+00    3.494531e+00
  7.227542e+00    3.473166e+00
  7.243418e+00    3.489039e+00
  7.259294e+00    3.552239e+00
  7.275169e+00    3.500337e+00
  7.291045e+00    3.516157e+00
  7.306920e+00    3.527287e+00
  7.322796e+00    3.622184e+00
  7.338671e+00    3.623494e+00
  7.354547e+00    3.511478e+00
  7.370423e+00    3.528499e+00
  7.386298e+00    3.508714e+00
  7.402174e+00    3.472722e+00
  7.418049e+00    3.451073e+00
  7.433925e+00    3.493858e+00
  7.449800e+00    3.500643e+00
  7.465676e+00    3.518031e+00
  7.481552e+00    3.488820e+00
  7.497427e+00    3.473180e+00
  7.513303e+00    3.436485e+00
  7.529178e+00    3.484664e+00
  7.545054e+00    3.539112e+00
  7.560929e+00    3.508782e+00
  7.576805e+00    3.518761e+00
  7.592681e+00    3.469354e+00
  7.608556e+00    3.454872e+00
  7.624432e+00    3.384168e+00
  7.640307e+00    3.397587e+00
  7.656183e+00    3.480198e+00
  7.672058e+00    3.496405e+00
  7.687934e+00    3.492343e+00
  7.703810e+00    3.419002e+00
  7.719685e+00    3.523225e+00
  7.735561e+00    3.477939e+00
  7.751436e+00    3.399950e+00
  7.767312e+00    3.460342e+00
  7.783187e+00    3.531959e+00
  7.799063e+00    3.489671e+00
  7.814939e+00    3.454322e+00
  7.830814e+00    3.446502e+00
  7.846690e+00    3.401982e+00
  7.862565e+00    3.440325e+00
  7.878441e+00    3.480152e+00
  7.894317e+00    3.472091e+00
  7.910192e+00    3.452293e+00
  7.926068e+00    3.377525e+00
  7.941943e+00    3.396945e+00
  7.957819e+00    3.465194e+00
  7.973694e+00    3.445839e+00
  7.989570e+00    3.453060e+00
  8.005446e+00    3.425144e+00
  8.021321e+00    3.447003e+00
  8.037197e+00    3.413007e+00
  8.053072e+00    3.437459e+00
  8.068948e+00    3.460667e+00
  8.084823e+00    3.412007e+00
  8.100699e+00    3.393418e+00
  8.116575e+00    3.484169e+00
  8.132450e+00    3.555362e+00
  8.148326e+00    3.467579e+00
  8.164201e+00    3.416749e+00
  8.180077e+00    3.455954e+00
  8.195952e+00    3.468699e+00
  8.211828e+00    3.514187e+00
  8.227704e+00    3.546228e+00
  8.243579e+00    3.519154e+00
  8.259455e+00    3.365681e+00
  8.275330e+00    3.397985e+00
  8.291206e+00    3.389251e+00
  8.307081e+00    3.374191e+00
  8.322957e+00    3.431897e+00
  8.338833e+00    3.443689e+00
  8.354708e+00    3.356037e+00
  8.370584e+00    3.401321e+00
  8.386459e+00    3.435571e+00
  8.402335e+00    3.397907e+00
  8.418210e+00    3.429361e+00
  8.434086e+00    3.424910e+00
  8.449962e+00    3.353721e+00
  8.465837e+00    3.426352e+00
  8.481713e+00    3.449788e+00
  8.497588e+00    3.415475e+00
  8.513464e+00    3.426140e+00
  8.529339e+00    3.387937e+00
  8.545215e+00    3.420784e+00
  8.561091e+00    3.389054e+00
  8.576966e+00    3.388197e+00
  8.592842e+00    3.368904e+00
  8.608717e+00    3.319519e+00
  8.624593e+00    3.362495e+00
  8.640468e+00    3.382967e+00
  8.656344e+00    3.372140e+00
  8.672220e+00    3.369509e+00
  8.688095e+00    3.320279e+00
  8.703971e+00    3.364619e+00
  8.719846e+00    3.324443e+00
  8.735722e+00    3.336735e+00
  8.751598e+00    3.362465e+00
  8.767473e+00    3.351107e+00
  8.783349e+00    3.298631e+00
  8.799224e+00    3.308932e+00
  8.815100e+00    3.264325e+00
  8.830975e+00    3.294299e+00
  8.846851e+00    3.316546e+00
  8.862727e+00    3.300359e+00
  8.878602e+00    3.260936e+00
  8.894478e+00    3.295099e+00
  8.910353e+00    3.325219e+00
  8.926229e+00    3.298172e+00
  8.942104e+00    3.277785e+00
  8.957980e+00    3.272673e+00
  8.973856e+00    3.261629e+00
  8.989731e+00    3.275560e+00
  9.005607e+00    3.302624e+00
  9.021482e+00    3.349473e+00
  9.037358e+00    3.408508e+00
  9.053233e+00    3.338562e+00
  9.069109e+00    3.296588e+00
  9.084985e+00    3.327970e+00
  9.100860e+00    3.294603e+00
  9.116736e+00    3.234501e+00
  9.132611e+00    3.208384e+00
  9.148487e+00    3.288079e+00
  9.164362e+00    3.290840e+00
  9.180238e+00    3.314467e+00
  9.196114e+00    3.315439e+00
  9.211989e+00    3.279839e+00
  9.227865e+00    3.277093e+00
  9.243740e+00    3.281316e+00
  9.259616e+00    3.269819e+00
  9.275491e+00    3.256797e+00
  9.291367e+00    3.215287e+00
  9.307243e+00    3.215534e+00
  9.323118e+00    3.242011e+00
  9.338994e+00    3.218651e+00
  9.354869e+00    3.218162e+00
  9.370745e+00    3.224516e+00
  9.386620e+00    3.237876e+00
  9.402496e+00    3.239976e+00
  9.418372e+00    3.189730e+00
  9.434247e+00    3.202634e+00
  9.450123e+00    3.241517e+00
  9.465998e+00    3.245505e+00
  9.481874e+00    3.198504e+00
  9.497749e+00    3.261384e+00
  9.513625e+00    3.259891e+00
  9.529501e+00    3.264158e+00
  9.545376e+00    3.243272e+00
  9.561252e+00    3.254568e+00
  9.577127e+00    3.263682e+00
  9.593003e+00    3.247203e+00
  9.608878e+00    3.247644e+00
  9.624754e+00    3.212622e+00
  9.640630e+00    3.183709e+00
  9.656505e+00    3.111296e+00
  9.672381e+00    3.193922e+00
  9.688256e+00    3.188945e+00
  9.704132e+00    3.201922e+00
  9.720008e+00    3.198569e+00
  9.735883e+00    3.120319e+00
  9.751759e+00    3.109447e+00
  9.767634e+00    3.208302e+00
  9.783510e+00    3.183895e+00
  9.799385e+00    3.170872e+00
  9.815261e+00    3.143479e+00
  9.831137e+00    3.157134e+00
  9.847012e+00    3.216366e+00
  9.862888e+00    3.110771e+00
  9.878763e+00    3.136682e+00
  9.894639e+00    3.207093e+00
  9.910514e+00    3.187613e+00
  9.926390e+00    3.101407e+00
  9.942266e+00    3.122998e+00
  9.958141e+00    3.173684e+00
  9.974017e+00    3.131816e+00
  9.989892e+00    3.125940e+00
  1.000577e+01    3.147567e+00
  1.002164e+01    3.169939e+00
  1.003752e+01    3.114423e+00
  1.005339e+01    3.115434e+00
  1.006927e+01    3.123996e+00
  1.008515e+01    3.112539e+00
  1.010102e+01    3.123833e+00
  1.011690e+01    3.156053e+00
  1.013277e+01    3.144547e+00
  1.014865e+01    3.066014e+00
  1.016452e+01    3.099684e+00
  1.018040e+01    3.115849e+00
  1.019627e+01    3.128286e+00
  1.021215e+01    3.081405e+00
  1.022803e+01    3.066732e+00
  1.024390e+01    3.073410e+00
  1.025978e+01    3.075122e+00
  1.027565e+01    3.088306e+00
  1.029153e+01    3.023633e+00
  1.030740e+01    3.026532e+00
  1.032328e+01    3.044619e+00
  1.033915e+01    3.010396e+00
  1.035503e+01    2.983526e+00
  1.037091e+01    3.039140e+00
  1.038678e+01    3.056370e+00
  1.040266e+01    3.071071e+00
  1.041853e+01    3.056053e+00
  1.043441e+01    3.036049e+00
  1.045028e+01    2.984798e+00
  1.046616e+01    3.053487e+00
  1.048204e+01    3.092009e+00
  1.049791e+01    3.073574e+00
  1.051379e+01    2.989441e+00
  1.052966e+01    3.034996e+00
  1.054554e+01    3.008164e+00
  1.056141e+01    3.023647e+00
  1.057729e+01    2.978441e+00
  1.059316e+01    2.986110e+00
  1.060904e+01    3.035078e+00
  1.062492e+01    2.991945e+00
  1.064079e+01    2.985913e+00
  1.065667e+01    3.002933e+00
  1.067254e+01    3.014379e+00
  1.068842e+01    3.038910e+00
  1.070429e+01    3.004221e+00
  1.072017e+01    3.014093e+00
  1.073604e+01    2.975199e+00
  1.075192e+01    2.975678e+00
  1.076780e+01    2.943802e+00
  1.078367e+01    2.949580e+00
  1.079955e+01    2.970831e+00
  1.081542e+01    2.928625e+00
  1.083130e+01    2.921605e+00
  1.084717e+01    2.978694e+00
  1.086305e+01    3.008566e+00
  1.087892e+01    2.959865e+00
  1.089480e+01    2.934942e+00
  1.091068e+01    2.958239e+00
  1.092655e+01    2.988229e+00
  1.094243e+01    2.941656e+00
  1.095830e+01    2.977026e+00
  1.097418e+01    2.914789e+00
  1.099005e+01    2.938802e+00
  1.100593e+01    2.963891e+00
  1.102180e+01    2.938573e+00
  1.103768e+01    2.871618e+00
  1.105356e+01    2.913033e+00
  1.106943e+01    2.893702e+00
  1.108531e+01    2.849526e+00
  1.110118e+01    2.910249e+00
  1.111706e+01    2.865139e+00
  1.113293e+01    2.843345e+00
  1.114881e+01    2.881640e+00
  1.116468e+01    2.922107e+00
  1.118056e+01    2.903640e+00
  1.119644e+01    2.877470e+00
  1.121231e+01    2.874162e+00
  1.122819e+01    2.916528e+00
  1.124406e+01    2.880049e+00
  1.125994e+01    2.817309e+00
  1.127581e+01    2.790469e+00
  1.129169e+01    2.854001e+00
  1.130756e+01    2.901644e+00
  1.132344e+01    2.866334e+00
  1.133932e+01    2.882990e+00
  1.135519e+01    2.828637e+00
  1.137107e+01    2.828322e+00
  1.138694e+01    2.863375e+00
  1.140282e+01    2.867628e+00
  1.141869e+01    2.809560e+00
  1.143457e+01    2.840120e+00
  1.145045e+01    2.827326e+00
  1.146632e+01    2.773071e+00
  1.148220e+01    2.814040e+00
  1.149807e+01    2.845545e+00
  1.151395e+01    2.794135e+00
  1.152982e+01    2.719393e+00
  1.154570e+01    2.773621e+00
  1.156157e+01    2.816528e+00
  1.157745e+01    2.805705e+00
  1.159333e+01    2.797013e+00
  1.160920e+01    2.767136e+00
  1.162508e+01    2.764922e+00
  1.164095e+01    2.773264e+00
  1.165683e+01    2.806359e+00
  1.167270e+01    2.751563e+00
  1.168858e+01    2.762451e+00
  1.170445e+01    2.775537e+00
  1.172033e+01    2.757209e+00
  1.173621e+01    2.715965e+00
  1.175208e+01    2.743277e+00
  1.176796e+01    2.744611e+00
  1.178383e+01    2.750612e+00
  1.179971e+01    2.765579e+00
  1.181558e+01    2.775131e+00
  1.183146e+01    2.681097e+00
  1.184733e+01    2.725019e+00
  1.186321e+01    2.748111e+00
  1.187909e+01    2.689715e+00
  1.189496e+01    2.728034e+00
  1.191084e+01    2.781442e+00
  1.192671e+01    2.740906e+00
  1.194259e+01    2.764571e+00
  1.195846e+01    2.748237e+00
  1.197434e+01    2.698936e+00
  1.199021e+01    2.711144e+00
  1.200609e+01    2.713284e+00
  1.202197e+01    2.717513e+00
  1.203784e+01    2.744874e+00
  1.205372e+01    2.682476e+00
  1.206959e+01    2.691604e+00
  1.208547e+01    2.710039e+00
  1.210134e+01    2.694326e+00
  1.211722e+01    2.685279e+00
  1.213309e+01    2.666484e+00
  1.214897e+01    2.700166e+00
  1.216485e+01    2.674370e+00
  1.218072e+01    2.653222e+00
  1.219660e+01    2.688570e+00
  1.221247e+01    2.689291e+00
  1.222835e+01    2.637472e+00
  1.224422e+01    2.680937e+00
  1.226010e+01    2.665075e+00
  1.227597e+01    2.679187e+00
  1.229185e+01    2.706182e+00
  1.230773e+01    2.680972e+00
  1.232360e+01    2.694366e+00
  1.233948e+01    2.668263e+00
  1.235535e+01    2.702650e+00
  1.237123e+01    2.739635e+00
  1.238710e+01    2.702963e+00
  1.240298e+01    2.695792e+00
  1.241886e+01    2.732609e+00
  1.243473e+01    2.747548e+00
  1.245061e+01    2.704770e+00
  1.246648e+01    2.718867e+00
  1.248236e+01    2.701031e+00
  1.249823e+01    2.715131e+00
  1.251411e+01    2.688910e+00
  1.252998e+01    2.694972e+00
  1.254586e+01    2.721880e+00
  1.256174e+01    2.722991e+00
  1.257761e+01    2.743564e+00
  1.259349e+01    2.715957e+00
  1.260936e+01    2.753732e+00
  1.262524e+01    2.789655e+00
  1.264111e+01    2.806473e+00
  1.265699e+01    2.785440e+00
  1.267286e+01    2.774491e+00
  1.268874e+01    2.764578e+00
  1.270462e+01    2.864502e+00
  1.272049e+01    2.902738e+00
  1.273637e+01    2.870056e+00
  1.275224e+01    2.832226e+00
  1.276812e+01    2.867606e+00
  1.278399e+01    2.950553e+00
  1.279987e+01    3.046509e+00
  1.281574e+01    3.113409e+00
  1.283162e+01    3.126511e+00
  1.284750e+01    3.167199e+00
  1.286337e+01    3.297255e+00
  1.287925e+01    3.400520e+00
  1.289512e+01    3.457239e+00
  1.291100e+01    3.635810e+00
  1.292687e+01    3.898387e+00
  1.294275e+01    4.123718e+00
  1.295862e+01    4.394454e+00
  1.297450e+01    4.788791e+00
  1.299038e+01    5.220046e+00
  1.300625e+01    5.948097e+00
  1.302213e+01    6.784907e+00
  1.303800e+01    7.767015e+00
  1.305388e+01    8.946182e+00
  1.306975e+01    1.022458e+01
  1.308563e+01    1.149121e+01
  1.310150e+01    1.271394e+01
  1.311738e+01    1.392805e+01
  1.313326e+01    1.491074e+01
  1.314913e+01    1.577900e+01
  1.316501e+01    1.648355e+01
  1.318088e+01    1.649561e+01
  1.319676e+01    1.582415e+01
  1.321263e+01    1.432763e+01
  1.322851e+01    1.254305e+01
  1.324438e+01    1.080178e+01
  1.326026e+01    9.212705e+00
  1.327614e+01    7.894063e+00
  1.329201e+01    6.797046e+00
  1.330789e+01    5.948730e+00
  1.332376e+01    5.347657e+00
  1.333964e+01    4.835427e+00
  1.335551e+01    4.459538e+00
  1.337139e+01    4.099037e+00
  1.338727e+01    3.877275e+00
  1.340314e+01    3.641897e+00
  1.341902e+01    3.482698e+00
  1.343489e+01    3.383582e+00
  1.345077e+01    3.262321e+00
  1.346664e+01    3.104743e+00
  1.348252e+01    3.028284e+00
  1.349839e+01    3.015077e+00
  1.351427e+01    2.937314e+00
  1.353015e+01    2.853101e+00
  1.354602e+01    2.821622e+00
  1.356190e+01    2.736404e+00
  1.357777e+01    2.719368e+00
  1.359365e+01    2.715288e+00
  1.360952e+01    2.713345e+00
  1.362540e+01    2.656851e+00
  1.364127e+01    2.603715e+00
  1.365715e+01    2.625867e+00
  1.367303e+01    2.602970e+00
  1.368890e+01    2.584189e+00
  1.370478e+01    2.529290e+00
  1.372065e+01    2.539032e+00
  1.373653e+01    2.547485e+00
  1.375240e+01    2.530205e+00
  1.376828e+01    2.488769e+00
  1.378415e+01    2.449641e+00
  1.380003e+01    2.470099e+00
  1.381591e+01    2.482765e+00
  1.383178e+01    2.453470e+00
  1.384766e+01    2.462818e+00
  1.386353e+01    2.414212e+00
  1.387941e+01    2.408229e+00
  1.389528e+01    2.413889e+00
  1.391116e+01    2.379930e+00
  1.392703e+01    2.391429e+00
  1.394291e+01    2.375705e+00
  1.395879e+01    2.380636e+00
  1.397466e+01    2.471169e+00
  1.399054e+01    2.401952e+00
  1.400641e+01    2.381922e+00
  1.402229e+01    2.387916e+00
  1.403816e+01    2.347246e+00
  1.405404e+01    2.357960e+00
  1.406991e+01    2.365510e+00
  1.408579e+01    2.340908e+00
  1.410167e+01    2.287841e+00
  1.411754e+01    2.319966e+00
  1.413342e+01    2.308120e+00
  1.414929e+01    2.284666e+00
  1.416517e+01    2.274795e+00
  1.418104e+01    2.287485e+00
  1.419692e+01    2.265937e+00
  1.421279e+01    2.286294e+00
  1.422867e+01    2.297163e+00
  1.424455e+01    2.289752e+00
  1.426042e+01    2.259275e+00
  1.427630e+01    2.257389e+00
  1.429217e+01    2.275340e+00
  1.430805e+01    2.254419e+00
  1.432392e+01    2.241141e+00
  1.433980e+01    2.254087e+00
  1.435568e+01    2.295641e+00
  1.437155e+01    2.258977e+00
  1.438743e+01    2.263791e+00
  1.440330e+01    2.279071e+00
  1.441918e+01    2.232784e+00
  1.443505e+01    2.228953e+00
  1.445093e+01    2.277670e+00
  1.446680e+01    2.258890e+00
  1.448268e+01    2.240249e+00
  1.449856e+01    2.232909e+00
  1.451443e+01    2.217884e+00
  1.453031e+01    2.218318e+00
  1.454618e+01    2.225648e+00
  1.456206e+01    2.241829e+00
  1.457793e+01    2.230156e+00
  1.459381e+01    2.242811e+00
  1.460968e+01    2.230454e+00
  1.462556e+01    2.233506e+00
  1.464144e+01    2.260538e+00
  1.465731e+01    2.194528e+00
  1.467319e+01    2.199808e+00
  1.468906e+01    2.242358e+00
  1.470494e+01    2.200810e+00
  1.472081e+01    2.182517e+00
  1.473669e+01    2.214877e+00
  1.475256e+01    2.222934e+00
  1.476844e+01    2.210913e+00
  1.478432e+01    2.204856e+00
  1.480019e+01    2.214278e+00
  1.481607e+01    2.243529e+00
  1.483194e+01    2.225735e+00
  1.484782e+01    2.213382e+00
  1.486369e+01    2.210079e+00
  1.487957e+01    2.224607e+00
  1.489544e+01    2.247413e+00
  1.491132e+01    2.268359e+00
  1.492720e+01    2.267350e+00
  1.494307e+01    2.252010e+00
  1.495895e+01    2.309599e+00
  1.497482e+01    2.369722e+00
  1.499070e+01    2.409066e+00
  1.500657e+01    2.441966e+00
  1.502245e+01    2.508653e+00
  1.503832e+01    2.567877e+00
  1.505420e+01    2.642506e+00
  1.507008e+01    2.778082e+00
  1.508595e+01    3.054322e+00
  1.510183e+01    3.221920e+00
  1.511770e+01    3.459867e+00
  1.513358e+01    3.757587e+00
  1.514945e+01    4.159739e+00
  1.516533e+01    4.494596e+00
  1.518120e+01    4.891468e+00
  1.519708e+01    5.180271e+00
  1.521296e+01    5.447190e+00
  1.522883e+01    5.682481e+00
  1.524471e+01    5.817499e+00
  1.526058e+01    5.869493e+00
  1.527646e+01    5.719645e+00
  1.529233e+01    5.525727e+00
  1.530821e+01    5.174339e+00
  1.532409e+01    4.740904e+00
  1.533996e+01    4.195062e+00
  1.535584e+01    3.744070e+00
  1.537171e+01    3.454875e+00
  1.538759e+01    3.176296e+00
  1.540346e+01    2.960129e+00
  1.541934e+01    2.791440e+00
  1.543521e+01    2.659090e+00
  1.545109e+01    2.530979e+00
  1.546697e+01    2.442619e+00
  1.548284e+01    2.369491e+00
  1.549872e+01    2.276631e+00
  1.551459e+01    2.295727e+00
  1.553047e+01    2.266916e+00
  1.554634e+01    2.181189e+00
  1.556222e+01    2.142733e+00
  1.557809e+01    2.125466e+00
  1.559397e+01    2.083946e+00
  1.560985e+01    2.029418e+00
  1.562572e+01    2.022162e+00
  1.564160e+01    2.072958e+00
  1.565747e+01    2.058208e+00
  1.567335e+01    2.025997e+00
  1.568922e+01    2.013870e+00
  1.570510e+01    2.005616e+00
  1.572097e+01    2.023468e+00
  1.573685e+01    1.997001e+00
  1.575273e+01    2.009553e+00
  1.576860e+01    1.995768e+00
  1.578448e+01    1.961709e+00
  1.580035e+01    1.940176e+00
  1.581623e+01    1.924648e+00
  1.583210e+01    1.961958e+00
  1.584798e+01    1.953396e+00
  1.586385e+01    1.969608e+00
  1.587973e+01    1.920506e+00
  1.589561e+01    1.899380e+00
  1.591148e+01    1.938355e+00
  1.592736e+01    1.908212e+00
  1.594323e+01    1.881756e+00
  1.595911e+01    1.887313e+00
  1.597498e+01    1.873865e+00
  1.599086e+01    1.887821e+00
  1.600673e+01    1.888530e+00
  1.602261e+01    1.913355e+00
  1.603849e+01    1.910640e+00
  1.605436e+01    1.850721e+00
  1.607024e+01    1.860334e+00
  1.608611e+01    1.861663e+00
  1.610199e+01    1.830553e+00
  1.611786e+01    1.841805e+00
  1.613374e+01    1.830923e+00
  1.614961e+01    1.814393e+00
  1.616549e+01    1.828148e+00
  1.618137e+01    1.829774e+00
  1.619724e+01    1.806313e+00
  1.621312e+01    1.795169e+00
  1.622899e+01    1.816234e+00
  1.624487e+01    1.799244e+00
  1.626074e+01    1.838060e+00
  1.627662e+01    1.871099e+00
  1.629250e+01    1.845714e+00
  1.630837e+01    1.782778e+00
  1.632425e+01    1.804262e+00
  1.634012e+01    1.806772e+00
  1.635600e+01    1.788844e+00
  1.637187e+01    1.781481e+00
  1.638775e+01    1.814921e+00
  1.640362e+01    1.832465e+00
  1.641950e+01    1.790318e+00
  1.643538e+01    1.769431e+00
  1.645125e+01    1.786198e+00
  1.646713e+01    1.761313e+00
  1.648300e+01    1.739381e+00
  1.649888e+01    1.760636e+00
  1.651475e+01    1.766182e+00
  1.653063e+01    1.773258e+00
  1.654650e+01    1.755691e+00
  1.656238e+01    1.743961e+00
  1.657826e+01    1.757547e+00
  1.659413e+01    1.726543e+00
  1.661001e+01    1.727097e+00
  1.662588e+01    1.711558e+00
  1.664176e+01    1.756384e+00
  1.665763e+01    1.745674e+00
  1.667351e+01    1.719902e+00
  1.668938e+01    1.759275e+00
  1.670526e+01    1.747476e+00
  1.672114e+01    1.753532e+00
  1.673701e+01    1.709737e+00
  1.675289e+01    1.703842e+00
  1.676876e+01    1.705549e+00
  1.678464e+01    1.721069e+00
  1.680051e+01    1.680924e+00
  1.681639e+01    1.686111e+00
  1.683226e+01    1.684821e+00
  1.684814e+01    1.685270e+00
  1.686402e+01    1.678072e+00
  1.687989e+01    1.690836e+00
  1.689577e+01    1.723144e+00
  1.691164e+01    1.709232e+00
  1.692752e+01    1.668437e+00
  1.694339e+01    1.723226e+00
  1.695927e+01    1.702280e+00
  1.697514e+01    1.699249e+00
  1.699102e+01    1.690908e+00
  1.700690e+01    1.672686e+00
  1.702277e+01    1.703780e+00
  1.703865e+01    1.634929e+00
  1.705452e+01    1.628401e+00
  1.707040e+01    1.664080e+00
  1.708627e+01    1.690204e+00
  1.710215e+01    1.659059e+00
  1.711802e+01    1.652304e+00
  1.713390e+01    1.642999e+00
  1.714978e+01    1.648518e+00
  1.716565e+01    1.640698e+00
  1.718153e+01    1.638035e+00
  1.719740e+01    1.647760e+00
  1.721328e+01    1.667199e+00
  1.722915e+01    1.662086e+00
  1.724503e+01    1.638165e+00
  1.726091e+01    1.644309e+00
  1.727678e+01    1.636004e+00
  1.729266e+01    1.645883e+00
  1.730853e+01    1.606215e+00
  1.732441e+01    1.582210e+00
  1.734028e+01    1.626192e+00
  1.735616e+01    1.642147e+00
  1.737203e+01    1.594831e+00
  1.738791e+01    1.577839e+00
  1.740379e+01    1.605164e+00
  1.741966e+01    1.614068e+00
  1.743554e+01    1.621382e+00
  1.745141e+01    1.616596e+00
  1.746729e+01    1.599658e+00
  1.748316e+01    1.571379e+00
  1.749904e+01    1.551164e+00
  1.751491e+01    1.539101e+00
  1.753079e+01    1.555840e+00
  1.754667e+01    1.575716e+00
  1.756254e+01    1.569571e+00
  1.757842e+01    1.573248e+00
  1.759429e+01    1.583639e+00
  1.761017e+01    1.582864e+00
  1.762604e+01    1.582541e+00
  1.764192e+01    1.572858e+00
  1.765779e+01    1.580913e+00
  1.767367e+01    1.568013e+00
  1.768955e+01    1.561820e+00
  1.770542e+01    1.590201e+00
  1.772130e+01    1.555797e+00
  1.773717e+01    1.549489e+00
  1.775305e+01    1.589699e+00
  1.776892e+01    1.601194e+00
  1.778480e+01    1.568560e+00
  1.780067e+01    1.521887e+00
  1.781655e+01    1.546263e+00
  1.783243e+01    1.545535e+00
  1.784830e+01    1.526761e+00
  1.786418e+01    1.550299e+00
  1.788005e+01    1.511044e+00
  1.789593e+01    1.529166e+00
  1.791180e+01    1.524688e+00
  1.792768e+01    1.524258e+00
  1.794355e+01    1.557754e+00
  1.795943e+01    1.556514e+00
  1.797531e+01    1.544407e+00
  1.799118e+01    1.539731e+00
  1.800706e+01    1.540227e+00
  1.802293e+01    1.525669e+00
  1.803881e+01    1.508563e+00
  1.805468e+01    1.523387e+00
  1.807056e+01    1.502241e+00
  1.808643e+01    1.497763e+00
  1.810231e+01    1.518740e+00
  1.811819e+01    1.522689e+00
  1.813406e+01    1.488476e+00
  1.814994e+01    1.497058e+00
  1.816581e+01    1.503220e+00
  1.818169e+01    1.446544e+00
  1.819756e+01    1.471246e+00
  1.821344e+01    1.496446e+00
  1.822932e+01    1.480536e+00
  1.824519e+01    1.482312e+00
  1.826107e+01    1.481059e+00
  1.827694e+01    1.447286e+00
  1.829282e+01    1.444435e+00
  1.830869e+01    1.472255e+00
  1.832457e+01    1.488175e+00
  1.834044e+01    1.503287e+00
  1.835632e+01    1.482200e+00
  1.837220e+01    1.444266e+00
  1.838807e+01    1.421230e+00
  1.840395e+01    1.435388e+00
  1.841982e+01    1.437489e+00
  1.843570e+01    1.432246e+00
  1.845157e+01    1.483169e+00
  1.846745e+01    1.445113e+00
  1.848332e+01    1.422681e+00
  1.849920e+01    1.443456e+00
  1.851508e+01    1.450475e+00
  1.853095e+01    1.436481e+00
  1.854683e+01    1.430970e+00
  1.856270e+01    1.413373e+00
  1.857858e+01    1.445330e+00
  1.859445e+01    1.427254e+00
  1.861033e+01    1.449472e+00
  1.862620e+01    1.458746e+00
  1.864208e+01    1.441432e+00
  1.865796e+01    1.421703e+00
  1.867383e+01    1.394677e+00
  1.868971e+01    1.412809e+00
  1.870558e+01    1.411530e+00
  1.872146e+01    1.406915e+00
  1.873733e+01    1.383117e+00
  1.875321e+01    1.391263e+00
  1.876908e+01    1.421846e+00
  1.878496e+01    1.431409e+00
  1.880084e+01    1.443143e+00
  1.881671e+01    1.434047e+00
  1.883259e+01    1.414701e+00
  1.884846e+01    1.421632e+00
  1.886434e+01    1.419927e+00
  1.888021e+01    1.411924e+00
  1.889609e+01    1.379251e+00
  1.891196e+01    1.417563e+00
  1.892784e+01    1.408814e+00
  1.894372e+01    1.396781e+00
  1.895959e+01    1.416864e+00
  1.897547e+01    1.377158e+00
  1.899134e+01    1.367113e+00
  1.900722e+01    1.376282e+00
  1.902309e+01    1.376495e+00
  1.903897e+01    1.377550e+00
  1.905484e+01    1.387805e+00
  1.907072e+01    1.367055e+00
  1.908660e+01    1.394675e+00
  1.910247e+01    1.402699e+00
  1.911835e+01    1.400551e+00
  1.913422e+01    1.398138e+00
  1.915010e+01    1.379640e+00
  1.916597e+01    1.378852e+00
  1.918185e+01    1.378746e+00
  1.919773e+01    1.351887e+00
  1.921360e+01    1.361969e+00
  1.922948e+01    1.376761e+00
  1.924535e+01    1.366208e+00
  1.926123e+01    1.372420e+00
  1.927710e+01    1.373886e+00
  1.929298e+01    1.375860e+00
  1.930885e+01    1.349458e+00
  1.932473e+01    1.322243e+00
  1.934061e+01    1.336679e+00
  1.935648e+01    1.366473e+00
  1.937236e+01    1.348583e+00
  1.938823e+01    1.347746e+00
  1.940411e+01    1.349727e+00
  1.941998e+01    1.327699e+00
  1.943586e+01    1.365938e+00
  1.945173e+01    1.365050e+00
  1.946761e+01    1.363955e+00
  1.948349e+01    1.353597e+00
  1.949936e+01    1.351059e+00
  1.951524e+01    1.328808e+00
  1.953111e+01    1.330894e+00
  1.954699e+01    1.328067e+00
  1.956286e+01    1.331685e+00
  1.957874e+01    1.329988e+00
  1.959461e+01    1.309978e+00
  1.961049e+01    1.310468e+00
  1.962637e+01    1.302020e+00
  1.964224e+01    1.314397e+00
  1.965812e+01    1.308731e+00
  1.967399e+01    1.305395e+00
  1.968987e+01    1.293541e+00
  1.970574e+01    1.312326e+00
  1.972162e+01    1.306046e+00
  1.973749e+01    1.295811e+00
  1.975337e+01    1.290755e+00
  1.976925e+01    1.307653e+00
  1.978512e+01    1.271983e+00
  1.980100e+01    1.283423e+00
  1.981687e+01    1.323700e+00
  1.983275e+01    1.317601e+00
  1.984862e+01    1.299653e+00
  1.986450e+01    1.301203e+00
  1.988037e+01    1.282810e+00
  1.989625e+01    1.284555e+00
  1.991213e+01    1.289418e+00
  1.992800e+01    1.306177e+00
  1.994388e+01    1.255784e+00
  1.995975e+01    1.286381e+00
  1.997563e+01    1.283116e+00
  1.999150e+01    1.288765e+00
  2.000738e+01    1.291570e+00
  2.002325e+01    1.300658e+00
  2.003913e+01    1.292321e+00
  2.005501e+01    1.277557e+00
  2.007088e+01    1.280185e+00
  2.008676e+01    1.283279e+00
  2.010263e+01    1.257777e+00
  2.011851e+01    1.265013e+00
  2.013438e+01    1.255702e+00
  2.015026e+01    1.257761e+00
  2.016614e+01    1.267242e+00
  2.018201e+01    1.260089e+00
  2.019789e+01    1.264608e+00
  2.021376e+01    1.266192e+00
  2.022964e+01    1.261290e+00
  2.024551e+01    1.265020e+00
  2.026139e+01    1.253752e+00
  2.027726e+01    1.225541e+00
  2.029314e+01    1.233282e+00
  2.030902e+01    1.245370e+00
  2.032489e+01    1.232576e+00
  2.034077e+01    1.235009e+00
  2.035664e+01    1.241449e+00
  2.037252e+01    1.251828e+00
  2.038839e+01    1.272280e+00
  2.040427e+01    1.257130e+00
  2.042014e+01    1.258581e+00
  2.043602e+01    1.257561e+00
  2.045190e+01    1.265381e+00
  2.046777e+01    1.275366e+00
  2.048365e+01    1.260657e+00
  2.049952e+01    1.250032e+00
  2.051540e+01    1.262083e+00
  2.053127e+01    1.239813e+00
  2.054715e+01    1.245665e+00
  2.056302e+01    1.227667e+00
  2.057890e+01    1.230519e+00
  2.059478e+01    1.243652e+00
  2.061065e+01    1.234125e+00
  2.062653e+01    1.263037e+00
  2.064240e+01    1.282606e+00
  2.065828e+01    1.256264e+00
  2.067415e+01    1.226091e+00
  2.069003e+01    1.202587e+00
  2.070590e+01    1.220191e+00
  2.072178e+01    1.235977e+00
  2.073766e+01    1.232984e+00
  2.075353e+01    1.214461e+00
  2.076941e+01    1.209651e+00
  2.078528e+01    1.214793e+00
  2.080116e+01    1.213607e+00
  2.081703e+01    1.220857e+00
  2.083291e+01    1.227746e+00
  2.084878e+01    1.256101e+00
  2.086466e+01    1.207413e+00
  2.088054e+01    1.234949e+00
  2.089641e+01    1.250529e+00
  2.091229e+01    1.223274e+00
  2.092816e+01    1.222936e+00
  2.094404e+01    1.219101e+00
  2.095991e+01    1.224191e+00
  2.097579e+01    1.239515e+00
  2.099166e+01    1.233140e+00
  2.100754e+01    1.227784e+00
  2.102342e+01    1.225038e+00
  2.103929e+01    1.201138e+00
  2.105517e+01    1.223485e+00
  2.107104e+01    1.235588e+00
  2.108692e+01    1.248019e+00
  2.110279e+01    1.230024e+00
  2.111867e+01    1.245389e+00
  2.113455e+01    1.217265e+00
  2.115042e+01    1.210842e+00
  2.116630e+01    1.207344e+00
  2.118217e+01    1.222567e+00
  2.119805e+01    1.243188e+00
  2.121392e+01    1.251895e+00
  2.122980e+01    1.257107e+00
  2.124567e+01    1.236414e+00
  2.126155e+01    1.221417e+00
  2.127743e+01    1.260746e+00
  2.129330e+01    1.285850e+00
  2.130918e+01    1.268620e+00
  2.132505e+01    1.267450e+00
  2.134093e+01    1.285795e+00
  2.135680e+01    1.318701e+00
  2.137268e+01    1.317624e+00
  2.138855e+01    1.329492e+00
  2.140443e+01    1.321345e+00
  2.142031e+01    1.311066e+00
  2.143618e+01    1.340415e+00
  2.145206e+01    1.369048e+00
  2.146793e+01    1.425406e+00
  2.148381e+01    1.414998e+00
  2.149968e+01    1.421099e+00
  2.151556e+01    1.432284e+00
  2.153143e+01    1.472227e+00
  2.154731e+01    1.515984e+00
  2.156319e+01    1.562656e+00
  2.157906e+01    1.611733e+00
  2.159494e+01    1.665134e+00
  2.161081e+01    1.755963e+00
  2.162669e+01    1.860247e+00
  2.164256e+01    1.984425e+00
  2.165844e+01    2.091661e+00
  2.167431e+01    2.255051e+00
  2.169019e+01    2.501330e+00
  2.170607e+01    2.790277e+00
  2.172194e+01    3.115185e+00
  2.173782e+01    3.508388e+00
  2.175369e+01    4.030970e+00
  2.176957e+01    4.610013e+00
  2.178544e+01    5.209197e+00
  2.180132e+01    5.836247e+00
  2.181719e+01    6.517475e+00
  2.183307e+01    7.203028e+00
  2.184895e+01    7.844421e+00
  2.186482e+01    8.456816e+00
  2.188070e+01    8.845223e+00
  2.189657e+01    8.980737e+00
  2.191245e+01    8.850184e+00
  2.192832e+01    8.313700e+00
  2.194420e+01    7.518933e+00
  2.196007e+01    6.672239e+00
  2.197595e+01    5.745618e+00
  2.199183e+01    4.913068e+00
  2.200770e+01    4.181575e+00
  2.202358e+01    3.628411e+00
  2.203945e+01    3.162866e+00
  2.205533e+01    2.816227e+00
  2.207120e+01    2.569116e+00
  2.208708e+01    2.351794e+00
  2.210296e+01    2.149030e+00
  2.211883e+01    1.997744e+00
  2.213471e+01    1.878631e+00
  2.215058e+01    1.808407e+00
  2.216646e+01    1.681765e+00
  2.218233e+01    1.596824e+00
  2.219821e+01    1.549470e+00
  2.221408e+01    1.473263e+00
  2.222996e+01    1.450541e+00
  2.224584e+01    1.428320e+00
  2.226171e+01    1.390700e+00
  2.227759e+01    1.344654e+00
  2.229346e+01    1.309975e+00
  2.230934e+01    1.287711e+00
  2.232521e+01    1.261078e+00
  2.234109e+01    1.273285e+00
  2.235696e+01    1.273703e+00
  2.237284e+01    1.261727e+00
  2.238872e+01    1.238376e+00
  2.240459e+01    1.214073e+00
  2.242047e+01    1.218446e+00
  2.243634e+01    1.199739e+00
  2.245222e+01    1.181775e+00
  2.246809e+01    1.157317e+00
  2.248397e+01    1.159538e+00
  2.249984e+01    1.167294e+00
  2.251572e+01    1.140737e+00
  2.253160e+01    1.136819e+00
  2.254747e+01    1.116545e+00
  2.256335e+01    1.117707e+00
  2.257922e+01    1.108428e+00
  2.259510e+01    1.134134e+00
  2.261097e+01    1.136562e+00
  2.262685e+01    1.102584e+00
  2.264272e+01    1.105710e+00
  2.265860e+01    1.098577e+00
  2.267448e+01    1.108370e+00
  2.269035e+01    1.107534e+00
  2.270623e+01    1.094235e+00
  2.272210e+01    1.064226e+00
  2.273798e+01    1.054519e+00
  2.275385e+01    1.071011e+00
  2.276973e+01    1.059845e+00
  2.278560e+01    1.050226e+00
  2.280148e+01    1.049134e+00
  2.281736e+01    1.072264e+00
  2.283323e+01    1.057024e+00
  2.284911e+01    1.020440e+00
  2.286498e+01    1.032525e+00
  2.288086e+01    1.054856e+00
  2.289673e+01    1.039560e+00
  2.291261e+01    1.047098e+00
  2.292848e+01    1.048818e+00
  2.294436e+01    1.030400e+00
  2.296024e+01    1.027557e+00
  2.297611e+01    1.049822e+00
  2.299199e+01    1.035665e+00
  2.300786e+01    1.022235e+00
  2.302374e+01    1.018508e+00
  2.303961e+01    1.035470e+00
  2.305549e+01    1.012097e+00
  2.307137e+01    1.013089e+00
  2.308724e+01    9.934941e-01
  2.310312e+01    9.868783e-01
  2.311899e+01    9.911187e-01
  2.313487e+01    9.909171e-01
  2.315074e+01    9.992878e-01
  2.316662e+01    1.000990e+00
  2.318249e+01    9.929484e-01
  2.319837e+01    9.937708e-01
  2.321425e+01    1.002051e+00
  2.323012e+01    9.887435e-01
  2.324600e+01    9.866049e-01
  2.326187e+01    9.942306e-01
  2.327775e+01    9.950519e-01
  2.329362e+01    9.934667e-01
  2.330950e+01    9.839423e-01
  2.332537e+01    9.616128e-01
  2.334125e+01    9.570143e-01
  2.335713e+01    9.667086e-01
  2.337300e+01    9.686128e-01
  2.338888e+01    9.755600e-01
  2.340475e+01    9.746328e-01
  2.342063e+01    9.672974e-01
  2.343650e+01    9.595733e-01
  2.345238e+01    9.592776e-01
  2.346825e+01    9.800705e-01
  2.348413e+01    9.713489e-01
  2.350001e+01    9.504156e-01
  2.351588e+01    9.755855e-01
  2.353176e+01    9.735665e-01
  2.354763e+01    9.729406e-01
  2.356351e+01    9.642865e-01
  2.357938e+01    9.561216e-01
  2.359526e+01    9.639555e-01
  2.361113e+01    9.662812e-01
  2.362701e+01    9.756149e-01
  2.364289e+01    9.539596e-01
  2.365876e+01    9.533374e-01
  2.367464e+01    9.475371e-01
  2.369051e+01    9.237136e-01
  2.370639e+01    9.390306e-01
  2.372226e+01    9.230577e-01
  2.373814e+01    9.226826e-01
  2.375401e+01    9.315158e-01
  2.376989e+01    9.339490e-01
  2.378577e+01    9.223400e-01
  2.380164e+01    9.115537e-01
  2.381752e+01    9.018099e-01
  2.383339e+01    9.349402e-01
  2.384927e+01    9.322100e-01
  2.386514e+01    9.169036e-01
  2.388102e+01    9.155307e-01
  2.389689e+01    9.259828e-01
  2.391277e+01    9.178995e-01
  2.392865e+01    8.903210e-01
  2.394452e+01    8.978228e-01
  2.396040e+01    9.002050e-01
  2.397627e+01    9.035712e-01
  2.399215e+01    9.215848e-01
  2.400802e+01    9.222835e-01
  2.402390e+01    8.922360e-01
  2.403978e+01    8.873278e-01
  2.405565e+01    8.950878e-01
  2.407153e+01    8.822193e-01
  2.408740e+01    8.716965e-01
  2.410328e+01    8.936101e-01
  2.411915e+01    8.932725e-01
  2.413503e+01    8.814818e-01
  2.415090e+01    8.956985e-01
  2.416678e+01    8.881629e-01
  2.418266e+01    9.001349e-01
  2.419853e+01    8.867899e-01
  2.421441e+01    8.742456e-01
  2.423028e+01    8.700577e-01
  2.424616e+01    8.768957e-01
  2.426203e+01    8.968426e-01
  2.427791e+01    9.091026e-01
  2.429378e+01    8.883845e-01
  2.430966e+01    8.855640e-01
  2.432554e+01    8.894323e-01
  2.434141e+01    8.897448e-01
  2.435729e+01    8.756493e-01
  2.437316e+01    9.119138e-01
  2.438904e+01    9.146520e-01
  2.440491e+01    9.036958e-01
  2.442079e+01    8.918408e-01
  2.443666e+01    8.879005e-01
  2.445254e+01    8.813545e-01
  2.446842e+01    8.786067e-01
  2.448429e+01    9.095573e-01
  2.450017e+01    9.090241e-01
  2.451604e+01    8.894921e-01
  2.453192e+01    8.749517e-01
  2.454779e+01    8.820582e-01
  2.456367e+01    8.906522e-01
  2.457954e+01    8.809115e-01
  2.459542e+01    8.869621e-01
  2.461130e+01    8.882076e-01
  2.462717e+01    8.846988e-01
  2.464305e+01    8.625103e-01
  2.465892e+01    8.675095e-01
  2.467480e+01    8.931521e-01
  2.469067e+01    8.890029e-01
  2.470655e+01    9.017547e-01
  2.472242e+01    9.010152e-01
  2.473830e+01    8.871915e-01
  2.475418e+01    9.186807e-01
  2.477005e+01    9.021388e-01
  2.478593e+01    8.854773e-01
  2.480180e+01    8.898398e-01
  2.481768e+01    9.019004e-01
  2.483355e+01    8.818592e-01
  2.484943e+01    9.113078e-01
  2.486530e+01    9.289735e-01
  2.488118e+01    9.167311e-01
  2.489706e+01    9.108698e-01
  2.491293e+01    8.960561e-01
  2.492881e+01    8.906564e-01
  2.494468e+01    8.920534e-01
  2.496056e+01    8.848708e-01
  2.497643e+01    8.978723e-01
  2.499231e+01    9.054300e-01
  2.500819e+01    9.056382e-01
  2.502406e+01    8.921005e-01
  2.503994e+01    8.956190e-01
  2.505581e+01    8.998322e-01
  2.507169e+01    9.044971e-01
  2.508756e+01    9.052991e-01
  2.510344e+01    8.870729e-01
  2.511931e+01    9.068922e-01
  2.513519e+01    9.147266e-01
  2.515107e+01    9.056347e-01
  2.516694e+01    9.246273e-01
  2.518282e+01    9.138753e-01
  2.519869e+01    9.297490e-01
  2.521457e+01    9.371373e-01
  2.523044e+01    9.336355e-01
  2.524632e+01    9.344504e-01
  2.526219e+01    9.384670e-01
  2.527807e+01    9.583448e-01
  2.529395e+01    9.698031e-01
  2.530982e+01    9.590166e-01
  2.532570e+01    9.577969e-01
  2.534157e+01    9.558756e-01
  2.535745e+01    9.695237e-01
  2.537332e+01    1.001218e+00
  2.538920e+01    9.992697e-01
  2.540507e+01    9.857277e-01
  2.542095e+01    9.764835e-01
  2.543683e+01    9.895974e-01
  2.545270e+01    1.028396e+00
  2.546858e+01    1.046441e+00
  2.548445e+01    1.047170e+00
  2.550033e+01    1.067150e+00
  2.551620e+01    1.086336e+00
  2.553208e+01    1.088775e+00
  2.554795e+01    1.132692e+00
  2.556383e+01    1.151843e+00
  2.557971e+01    1.164535e+00
  2.559558e+01    1.192400e+00
  2.561146e+01    1.234617e+00
  2.562733e+01    1.260484e+00
  2.564321e+01    1.310468e+00
  2.565908e+01    1.369991e+00
  2.567496e+01    1.445043e+00
  2.569083e+01    1.525239e+00
  2.570671e+01    1.605341e+00
  2.572259e+01    1.690263e+00
  2.573846e+01    1.857677e+00
  2.575434e+01    2.028234e+00
  2.577021e+01    2.238077e+00
  2.578609e+01    2.496378e+00
  2.580196e+01    2.806213e+00
  2.581784e+01    3.188315e+00
  2.583371e+01    3.578890e+00
  2.584959e+01    4.128690e+00
  2.586547e+01    4.634776e+00
  2.588134e+01    5.206301e+00
  2.589722e+01    5.827119e+00
  2.591309e+01    6.325573e+00
  2.592897e+01    6.796832e+00
  2.594484e+01    7.125421e+00
  2.596072e+01    7.194176e+00
  2.597660e+01    7.025892e+00
  2.599247e+01    6.553795e+00
  2.600835e+01    5.976474e+00
  2.602422e+01    5.302616e+00
  2.604010e+01    4.650618e+00
  2.605597e+01    3.979860e+00
  2.607185e+01    3.452838e+00
  2.608772e+01    3.018953e+00
  2.610360e+01    2.651351e+00
  2.611948e+01    2.368993e+00
  2.613535e+01    2.188134e+00
  2.615123e+01    1.952636e+00
  2.616710e+01    1.796573e+00
  2.618298e+01    1.683137e+00
  2.619885e+01    1.582003e+00
  2.621473e+01    1.524262e+00
  2.623060e+01    1.450264e+00
  2.624648e+01    1.333469e+00
  2.626236e+01    1.282065e+00
  2.627823e+01    1.257163e+00
  2.629411e+01    1.224142e+00
  2.630998e+01    1.173908e+00
  2.632586e+01    1.172197e+00
  2.634173e+01    1.141096e+00
  2.635761e+01    1.134627e+00
  2.637348e+01    1.116823e+00
  2.638936e+01    1.082883e+00
  2.640524e+01    1.040056e+00
  2.642111e+01    1.077247e+00
  2.643699e+01    1.050085e+00
  2.645286e+01    1.014600e+00
  2.646874e+01    1.006003e+00
  2.648461e+01    1.002082e+00
  2.650049e+01    1.024742e+00
  2.651636e+01    1.014279e+00
  2.653224e+01    1.005249e+00
  2.654812e+01    9.938497e-01
  2.656399e+01    9.977834e-01
  2.657987e+01    9.822300e-01
  2.659574e+01    9.888012e-01
  2.661162e+01    9.946321e-01
  2.662749e+01    9.726808e-01
  2.664337e+01    9.634880e-01
  2.665924e+01    9.849408e-01
  2.667512e+01    9.823125e-01
  2.669100e+01    9.800358e-01
  2.670687e+01    9.817858e-01
  2.672275e+01    9.658765e-01
  2.673862e+01    9.499769e-01
  2.675450e+01    9.572322e-01
  2.677037e+01    9.864195e-01
  2.678625e+01    9.772510e-01
  2.680212e+01    9.767786e-01
  2.681800e+01    9.846811e-01
  2.683388e+01    9.912098e-01
  2.684975e+01    9.890321e-01
  2.686563e+01    9.841321e-01
  2.688150e+01    9.699309e-01
  2.689738e+01    9.957051e-01
  2.691325e+01    1.015649e+00
  2.692913e+01    1.023210e+00
  2.694501e+01    1.012976e+00
  2.696088e+01    1.048378e+00
  2.697676e+01    1.062915e+00
  2.699263e+01    1.102357e+00
  2.700851e+01    1.130263e+00
  2.702438e+01    1.151767e+00
  2.704026e+01    1.198331e+00
  2.705613e+01    1.259408e+00
  2.707201e+01    1.318321e+00
  2.708789e+01    1.398887e+00
  2.710376e+01    1.512444e+00
  2.711964e+01    1.602713e+00
  2.713551e+01    1.720967e+00
  2.715139e+01    1.827077e+00
  2.716726e+01    1.945487e+00
  2.718314e+01    2.085373e+00
  2.719901e+01    2.144600e+00
  2.721489e+01    2.205643e+00
  2.723077e+01    2.206383e+00
  2.724664e+01    2.106755e+00
  2.726252e+01    1.945003e+00
  2.727839e+01    1.787359e+00
  2.729427e+01    1.688855e+00
  2.731014e+01    1.579299e+00
  2.732602e+01    1.457153e+00
  2.734189e+01    1.351982e+00
  2.735777e+01    1.273494e+00
  2.737365e+01    1.197312e+00
  2.738952e+01    1.161400e+00
  2.740540e+01    1.128828e+00
  2.742127e+01    1.091527e+00
  2.743715e+01    1.048491e+00
  2.745302e+01    1.025384e+00
  2.746890e+01    1.020477e+00
  2.748477e+01    9.898399e-01
  2.750065e+01    9.868954e-01
  2.751653e+01    9.786392e-01
  2.753240e+01    9.763446e-01
  2.754828e+01    9.660641e-01
  2.756415e+01    9.434245e-01
  2.758003e+01    9.300364e-01
  2.759590e+01    9.117951e-01
  2.761178e+01    9.238147e-01
  2.762765e+01    9.358994e-01
  2.764353e+01    9.118888e-01
  2.765941e+01    9.111677e-01
  2.767528e+01    9.094293e-01
  2.769116e+01    8.953105e-01
  2.770703e+01    9.043569e-01
  2.772291e+01    9.094684e-01
  2.773878e+01    9.278141e-01
  2.775466e+01    9.129274e-01
  2.777054e+01    8.989979e-01
  2.778641e+01    8.978244e-01
  2.780229e+01    8.929662e-01
  2.781816e+01    8.847941e-01
  2.783404e+01    8.897560e-01
  2.784991e+01    9.033651e-01
  2.786579e+01    9.132430e-01
  2.788166e+01    8.999907e-01
  2.789754e+01    8.865528e-01
  2.791342e+01    8.900134e-01
  2.792929e+01    8.659151e-01
  2.794517e+01    8.696674e-01
  2.796104e+01    8.639242e-01
  2.797692e+01    8.746939e-01
  2.799279e+01    8.759673e-01
  2.800867e+01    8.795026e-01
  2.802454e+01    8.558078e-01
  2.804042e+01    8.526412e-01
  2.805630e+01    8.729283e-01
  2.807217e+01    8.904552e-01
  2.808805e+01    8.965859e-01
  2.810392e+01    8.873609e-01
  2.811980e+01    8.775124e-01
  2.813567e+01    8.383394e-01
  2.815155e+01    8.561229e-01
  2.816742e+01    8.563286e-01
  2.818330e+01    8.719468e-01
  2.819918e+01    8.473418e-01
  2.821505e+01    8.600010e-01
  2.823093e+01    8.731559e-01
  2.824680e+01    8.722133e-01
  2.826268e+01    8.815177e-01
  2.827855e+01    8.591087e-01
  2.829443e+01    8.175460e-01
  2.831030e+01    8.586912e-01
  2.832618e+01    8.632135e-01
  2.834206e+01    8.379372e-01
  2.835793e+01    8.540904e-01
  2.837381e+01    8.618886e-01
  2.838968e+01    8.425037e-01
  2.840556e+01    8.262205e-01
  2.842143e+01    8.307245e-01
  2.843731e+01    8.326414e-01
  2.845318e+01    8.337618e-01
  2.846906e+01    8.620988e-01
  2.848494e+01    8.673217e-01
  2.850081e+01    8.608863e-01
  2.851669e+01    8.238917e-01
  2.853256e+01    8.357466e-01
  2.854844e+01    8.376327e-01
  2.856431e+01    8.318042e-01
  2.858019e+01    8.374535e-01
  2.859606e+01    8.392422e-01
  2.861194e+01    8.244425e-01
  2.862782e+01    8.082904e-01
  2.864369e+01    8.232048e-01
  2.865957e+01    8.357086e-01
  2.867544e+01    8.153346e-01
  2.869132e+01    8.337921e-01
  2.870719e+01    8.346968e-01
  2.872307e+01    8.485178e-01
  2.873895e+01    8.359361e-01
  2.875482e+01    8.168570e-01
  2.877070e+01    8.135517e-01
  2.878657e+01    8.339201e-01
  2.880245e+01    8.249256e-01
  2.881832e+01    8.403137e-01
  2.883420e+01    8.377938e-01
  2.885007e+01    8.040903e-01
  2.886595e+01    8.139040e-01
  2.888183e+01    8.290308e-01
  2.889770e+01    8.209171e-01
  2.891358e+01    8.362840e-01
  2.892945e+01    8.437608e-01
  2.894533e+01    8.184922e-01
  2.896120e+01    8.034881e-01
  2.897708e+01    8.085181e-01
  2.899295e+01    8.029677e-01
  2.900883e+01    8.174455e-01
  2.902471e+01    8.334225e-01
  2.904058e+01    8.229403e-01
  2.905646e+01    8.343551e-01
  2.907233e+01    8.220294e-01
  2.908821e+01    8.332727e-01
  2.910408e+01    8.354045e-01
  2.911996e+01    8.197415e-01
  2.913583e+01    7.965294e-01
  2.915171e+01    8.066375e-01
  2.916759e+01    8.091403e-01
  2.918346e+01    8.093994e-01
  2.919934e+01    8.077667e-01
  2.921521e+01    7.955428e-01
  2.923109e+01    7.959073e-01
  2.924696e+01    8.072938e-01
  2.926284e+01    8.143629e-01
  2.927871e+01    8.309266e-01
  2.929459e+01    8.254431e-01
  2.931047e+01    7.975824e-01
  2.932634e+01    8.055820e-01
  2.934222e+01    8.119550e-01
  2.935809e+01    8.060056e-01
  2.937397e+01    7.786546e-01
  2.938984e+01    8.200030e-01
  2.940572e+01    8.097361e-01
  2.942159e+01    8.010378e-01
  2.943747e+01    8.203877e-01
  2.945335e+01    8.186160e-01
  2.946922e+01    8.116454e-01
  2.948510e+01    8.131313e-01
  2.950097e+01    8.356555e-01
  2.951685e+01    8.005737e-01
  2.953272e+01    8.041249e-01
  2.954860e+01    7.995375e-01
  2.956447e+01    7.914221e-01
  2.958035e+01    8.092345e-01
  2.959623e+01    7.967522e-01
  2.961210e+01    7.901796e-01
  2.962798e+01    8.202646e-01
  2.964385e+01    8.143275e-01
  2.965973e+01    7.993246e-01
  2.967560e+01    7.867616e-01
  2.969148e+01    8.004072e-01
  2.970736e+01    7.868014e-01
  2.972323e+01    8.140401e-01
  2.973911e+01    8.046708e-01
  2.975498e+01    7.846085e-01
  2.977086e+01    7.994415e-01
  2.978673e+01    8.198926e-01
  2.980261e+01    7.958231e-01
  2.981848e+01    8.023636e-01
  2.983436e+01    8.105639e-01
  2.985024e+01    8.164512e-01
  2.986611e+01    8.254579e-01
  2.988199e+01    7.980345e-01
  2.989786e+01    7.655210e-01
  2.991374e+01    7.791934e-01
  2.992961e+01    7.850421e-01
  2.994549e+01    7.966524e-01
  2.996136e+01    7.930496e-01
  2.997724e+01    8.217393e-01
  2.999312e+01    8.143535e-01
  3.000899e+01    7.962059e-01
  3.002487e+01    8.085790e-01
  3.004074e+01    8.023601e-01
  3.005662e+01    8.317762e-01
  3.007249e+01    8.093127e-01
  3.008837e+01    8.005800e-01
  3.010424e+01    8.099050e-01
  3.012012e+01    8.044811e-01
  3.013600e+01    8.213066e-01
  3.015187e+01    7.761023e-01
  3.016775e+01    7.802695e-01
  3.018362e+01    7.782177e-01
  3.019950e+01    7.723911e-01
  3.021537e+01    7.810338e-01
  3.023125e+01    7.908252e-01
  3.024712e+01    7.856512e-01
  3.026300e+01    8.049862e-01
  3.027888e+01    7.957776e-01
  3.029475e+01    8.103473e-01
  3.031063e+01    7.913992e-01
  3.032650e+01    7.989812e-01
  3.034238e+01    7.799298e-01
  3.035825e+01    7.939442e-01
  3.037413e+01    8.063304e-01
  3.039000e+01    7.719637e-01
  3.040588e+01    7.819332e-01
  3.042176e+01    8.004036e-01
  3.043763e+01    7.989631e-01
  3.045351e+01    8.022245e-01
  3.046938e+01    7.793019e-01
  3.048526e+01    7.823309e-01
  3.050113e+01    7.885810e-01
  3.051701e+01    7.808772e-01
  3.053288e+01    7.897632e-01
  3.054876e+01    7.969445e-01
  3.056464e+01    8.009294e-01
  3.058051e+01    8.073383e-01
  3.059639e+01    7.936445e-01
  3.061226e+01    7.952799e-01
  3.062814e+01    7.869725e-01
  3.064401e+01    7.831832e-01
  3.065989e+01    8.002186e-01
  3.067577e+01    7.819769e-01
  3.069164e+01    7.861239e-01
  3.070752e+01    7.949498e-01
  3.072339e+01    7.922802e-01
  3.073927e+01    7.790322e-01
  3.075514e+01    7.764069e-01
  3.077102e+01    7.533325e-01
  3.078689e+01    7.551067e-01
  3.080277e+01    7.866346e-01
  3.081865e+01    7.864509e-01
  3.083452e+01    7.787527e-01
  3.085040e+01    7.755817e-01
  3.086627e+01    7.784820e-01
  3.088215e+01    7.825615e-01
  3.089802e+01    7.825891e-01
  3.091390e+01    7.958460e-01
  3.092977e+01    8.103442e-01
  3.094565e+01    8.054016e-01
  3.096153e+01    8.066962e-01
  3.097740e+01    8.061273e-01
  3.099328e+01    7.921812e-01
  3.100915e+01    8.059682e-01
  3.102503e+01    8.044723e-01
  3.104090e+01    8.028269e-01
  3.105678e+01    8.158636e-01
  3.107265e+01    8.206602e-01
  3.108853e+01    8.101209e-01
  3.110441e+01    7.898918e-01
  3.112028e+01    7.881713e-01
  3.113616e+01    8.008892e-01
  3.115203e+01    7.858067e-01
  3.116791e+01    7.851748e-01
  3.118378e+01    7.669340e-01
  3.119966e+01    7.782695e-01
  3.121553e+01    7.948356e-01
  3.123141e+01    8.021879e-01
  3.124729e+01    8.033516e-01
  3.126316e+01    8.173199e-01
  3.127904e+01    7.942550e-01
  3.129491e+01    8.096761e-01
  3.131079e+01    7.961782e-01
  3.132666e+01    7.881264e-01
  3.134254e+01    7.768621e-01
  3.135841e+01    8.030209e-01
  3.137429e+01    7.930517e-01
  3.139017e+01    7.815217e-01
  3.140604e+01    7.898871e-01
  3.142192e+01    7.878240e-01
  3.143779e+01    8.225579e-01
  3.145367e+01    8.148404e-01
  3.146954e+01    8.232686e-01
  3.148542e+01    8.213724e-01
  3.150129e+01    8.047481e-01
  3.151717e+01    8.291155e-01
  3.153305e+01    8.420658e-01
  3.154892e+01    8.426245e-01
  3.156480e+01    8.447281e-01
  3.158067e+01    8.525763e-01
  3.159655e+01    8.813354e-01
  3.161242e+01    8.832343e-01
  3.162830e+01    8.841290e-01
  3.164418e+01    9.236838e-01
  3.166005e+01    9.558022e-01
  3.167593e+01    9.893471e-01
  3.169180e+01    9.968965e-01
  3.170768e+01    1.012260e+00
  3.172355e+01    1.053363e+00
  3.173943e+01    1.108880e+00
  3.175530e+01    1.167275e+00
  3.177118e+01    1.250744e+00
  3.178706e+01    1.370655e+00
  3.180293e+01    1.487891e+00
  3.181881e+01    1.577874e+00
  3.183468e+01    1.704785e+00
  3.185056e+01    1.821491e+00
  3.186643e+01    1.965429e+00
  3.188231e+01    2.067050e+00
  3.189818e+01    2.144652e+00
  3.191406e+01    2.125889e+00
  3.192994e+01    2.042902e+00
  3.194581e+01    1.947696e+00
  3.196169e+01    1.817683e+00
  3.197756e+01    1.696650e+00
  3.199344e+01    1.559613e+00
  3.200931e+01    1.434874e+00
  3.202519e+01    1.322681e+00
  3.204106e+01    1.240541e+00
  3.205694e+01    1.152137e+00
  3.207282e+01    1.096126e+00
  3.208869e+01    1.029921e+00
  3.210457e+01    1.009911e+00
  3.212044e+01    9.832906e-01
  3.213632e+01    9.218708e-01
  3.215219e+01    9.041613e-01
  3.216807e+01    8.828788e-01
  3.218394e+01    8.744787e-01
  3.219982e+01    8.634006e-01
  3.221570e+01    8.527847e-01
  3.223157e+01    8.559213e-01
  3.224745e+01    8.259428e-01
  3.226332e+01    8.244286e-01
  3.227920e+01    8.216892e-01
  3.229507e+01    8.125139e-01
  3.231095e+01    8.154541e-01
  3.232682e+01    7.913658e-01
  3.234270e+01    8.189596e-01
  3.235858e+01    8.117750e-01
  3.237445e+01    7.878403e-01
  3.239033e+01    7.853718e-01
  3.240620e+01    7.809516e-01
  3.242208e+01    7.638517e-01
  3.243795e+01    7.829435e-01
  3.245383e+01    7.753392e-01
  3.246970e+01    7.693289e-01
  3.248558e+01    7.646993e-01
  3.250146e+01    8.001621e-01
  3.251733e+01    7.883087e-01
  3.253321e+01    7.662915e-01
  3.254908e+01    7.843276e-01
