# == pyFAI calibration ==
# Distance Sample to Detector: 0.3999999939076516 m
# PONI: 9.750e-02, 1.135e-01 m
# Rotations: -0.000175 0.000000 -0.000000 rad
# 
# == Fit2d calibration ==
# Distance Sample-beamCenter: 400.000 mm
# Center: x=1514.000, y=1300.000 pix
# Tilt: 0.010 deg  TiltPlanRot: 0.010 deg
# 
# Detector Detector	 Spline= None	 PixelSize= 7.500e-05, 7.500e-05 m
#    Detector has a mask: False 
#    Detector has a dark current: False 
#    detector has a flat field: False 
# 
# Wavelength: 6.888e-11 m
# Mask applied: user provided
# Dark current applied: False
# Flat field applied: False
# Polarization factor: 0.99
# Normalization factor: 1.0
# --> /home/myspot/data/2024_07_Rosario/Ru-CGO-ex/2024-07-27_003_Ru-CGO-ex_Reaction_dwell_000023_data_000008.dat
#       q_nm^-1             I 
  2.003187e-02    0.000000e+00
  3.590745e-02    0.000000e+00
  5.178302e-02    1.006013e-01
  6.765859e-02    2.145495e-01
  8.353417e-02    2.928783e-01
  9.940974e-02    2.444563e-01
  1.152853e-01    3.624409e-02
  1.311609e-01    3.385221e-02
  1.470365e-01    0.000000e+00
  1.629120e-01    3.496555e-04
  1.787876e-01    5.209163e-02
  1.946632e-01    4.892457e-02
  2.105388e-01    7.274070e-02
  2.264143e-01    4.103399e-02
  2.422899e-01    4.681326e-02
  2.581655e-01    4.375875e-02
  2.740411e-01    5.725326e-02
  2.899166e-01    7.426625e-02
  3.057922e-01    5.530381e-02
  3.216678e-01    3.363591e-02
  3.375433e-01    3.115016e-02
  3.534189e-01    3.327223e-02
  3.692945e-01    6.822591e-02
  3.851701e-01    6.186383e-02
  4.010456e-01    8.055871e-02
  4.169212e-01    4.319651e-02
  4.327968e-01    3.792185e-02
  4.486724e-01    6.309612e-02
  4.645479e-01    6.720394e-02
  4.804235e-01    5.856384e-02
  4.962991e-01    4.541735e-02
  5.121747e-01    2.314036e-02
  5.280502e-01    3.869551e-02
  5.439258e-01    4.154963e-02
  5.598014e-01    4.468040e-02
  5.756770e-01    4.748145e-02
  5.915525e-01    5.746221e-02
  6.074281e-01    3.219451e-02
  6.233037e-01    3.284807e-02
  6.391793e-01    3.706924e-02
  6.550548e-01    3.118434e-02
  6.709304e-01    2.521006e-02
  6.868060e-01    3.314741e-02
  7.026815e-01    4.309966e-02
  7.185571e-01    3.979648e-02
  7.344327e-01    4.988513e-02
  7.503083e-01    7.747342e-02
  7.661838e-01    1.074743e-01
  7.820594e-01    1.051697e-01
  7.979350e-01    1.400347e-01
  8.138106e-01    2.346423e-01
  8.296861e-01    2.783633e-01
  8.455617e-01    3.236661e-01
  8.614373e-01    3.799337e-01
  8.773129e-01    4.872724e-01
  8.931884e-01    5.093372e-01
  9.090640e-01    6.087414e-01
  9.249396e-01    8.128791e-01
  9.408152e-01    8.510383e-01
  9.566907e-01    9.148012e-01
  9.725663e-01    1.003357e+00
  9.884419e-01    9.745384e-01
  1.004317e+00    1.031887e+00
  1.020193e+00    1.221829e+00
  1.036069e+00    1.418331e+00
  1.051944e+00    1.445489e+00
  1.067820e+00    1.527723e+00
  1.083695e+00    1.576738e+00
  1.099571e+00    1.540235e+00
  1.115446e+00    1.580979e+00
  1.131322e+00    1.575561e+00
  1.147198e+00    1.567898e+00
  1.163073e+00    1.698373e+00
  1.178949e+00    1.717169e+00
  1.194824e+00    1.821823e+00
  1.210700e+00    1.918939e+00
  1.226575e+00    2.284272e+00
  1.242451e+00    2.432731e+00
  1.258327e+00    2.396313e+00
  1.274202e+00    2.548980e+00
  1.290078e+00    2.694056e+00
  1.305953e+00    2.787276e+00
  1.321829e+00    2.876135e+00
  1.337705e+00    2.852963e+00
  1.353580e+00    2.697412e+00
  1.369456e+00    2.812124e+00
  1.385331e+00    2.966094e+00
  1.401207e+00    2.936109e+00
  1.417082e+00    2.906033e+00
  1.432958e+00    2.803061e+00
  1.448834e+00    2.842119e+00
  1.464709e+00    3.061123e+00
  1.480585e+00    3.113188e+00
  1.496460e+00    3.042798e+00
  1.512336e+00    3.028431e+00
  1.528211e+00    3.117154e+00
  1.544087e+00    3.252749e+00
  1.559963e+00    3.267681e+00
  1.575838e+00    3.167557e+00
  1.591714e+00    3.131627e+00
  1.607589e+00    3.113193e+00
  1.623465e+00    3.098619e+00
  1.639340e+00    3.156844e+00
  1.655216e+00    3.142459e+00
  1.671092e+00    3.133178e+00
  1.686967e+00    3.086686e+00
  1.702843e+00    3.004334e+00
  1.718718e+00    2.975765e+00
  1.734594e+00    3.051241e+00
  1.750469e+00    3.111347e+00
  1.766345e+00    3.089133e+00
  1.782221e+00    3.024142e+00
  1.798096e+00    3.071511e+00
  1.813972e+00    3.047007e+00
  1.829847e+00    3.078355e+00
  1.845723e+00    3.035423e+00
  1.861598e+00    3.021598e+00
  1.877474e+00    3.003385e+00
  1.893350e+00    3.108686e+00
  1.909225e+00    3.059145e+00
  1.925101e+00    3.165454e+00
  1.940976e+00    3.163192e+00
  1.956852e+00    2.993123e+00
  1.972727e+00    3.054321e+00
  1.988603e+00    2.956741e+00
  2.004479e+00    3.016691e+00
  2.020354e+00    3.081787e+00
  2.036230e+00    3.003034e+00
  2.052105e+00    3.109667e+00
  2.067981e+00    3.128525e+00
  2.083856e+00    3.104683e+00
  2.099732e+00    3.079779e+00
  2.115608e+00    3.046900e+00
  2.131483e+00    3.008095e+00
  2.147359e+00    3.031445e+00
  2.163234e+00    3.101201e+00
  2.179110e+00    3.034175e+00
  2.194985e+00    3.111523e+00
  2.210861e+00    3.063548e+00
  2.226737e+00    3.045344e+00
  2.242612e+00    3.089758e+00
  2.258488e+00    3.061087e+00
  2.274363e+00    3.032037e+00
  2.290239e+00    3.102342e+00
  2.306115e+00    3.149486e+00
  2.321990e+00    3.140455e+00
  2.337866e+00    3.130373e+00
  2.353741e+00    3.134238e+00
  2.369617e+00    3.122468e+00
  2.385492e+00    3.247964e+00
  2.401368e+00    3.328427e+00
  2.417244e+00    3.294675e+00
  2.433119e+00    3.223396e+00
  2.448995e+00    3.171909e+00
  2.464870e+00    3.231699e+00
  2.480746e+00    3.226566e+00
  2.496621e+00    3.164261e+00
  2.512497e+00    3.149843e+00
  2.528373e+00    3.170859e+00
  2.544248e+00    3.201107e+00
  2.560124e+00    3.116943e+00
  2.575999e+00    3.173560e+00
  2.591875e+00    3.250301e+00
  2.607750e+00    3.218073e+00
  2.623626e+00    3.271347e+00
  2.639502e+00    3.295157e+00
  2.655377e+00    3.233074e+00
  2.671253e+00    3.225140e+00
  2.687128e+00    3.248106e+00
  2.703004e+00    3.274922e+00
  2.718879e+00    3.304630e+00
  2.734755e+00    3.235609e+00
  2.750631e+00    3.201450e+00
  2.766506e+00    3.180812e+00
  2.782382e+00    3.211929e+00
  2.798257e+00    3.182425e+00
  2.814133e+00    3.273811e+00
  2.830008e+00    3.286476e+00
  2.845884e+00    3.371408e+00
  2.861760e+00    3.318360e+00
  2.877635e+00    3.346213e+00
  2.893511e+00    3.454174e+00
  2.909386e+00    3.337350e+00
  2.925262e+00    3.289314e+00
  2.941137e+00    3.275579e+00
  2.957013e+00    3.276836e+00
  2.972889e+00    3.310645e+00
  2.988764e+00    3.253768e+00
  3.004640e+00    3.265208e+00
  3.020515e+00    3.270859e+00
  3.036391e+00    3.357381e+00
  3.052266e+00    3.324646e+00
  3.068142e+00    3.463148e+00
  3.084018e+00    3.368224e+00
  3.099893e+00    3.357811e+00
  3.115769e+00    3.482371e+00
  3.131644e+00    3.418083e+00
  3.147520e+00    3.277144e+00
  3.163395e+00    3.283873e+00
  3.179271e+00    3.399726e+00
  3.195147e+00    3.406334e+00
  3.211022e+00    3.383694e+00
  3.226898e+00    3.419066e+00
  3.242773e+00    3.370129e+00
  3.258649e+00    3.274203e+00
  3.274525e+00    3.376077e+00
  3.290400e+00    3.401971e+00
  3.306276e+00    3.472759e+00
  3.322151e+00    3.422844e+00
  3.338027e+00    3.399041e+00
  3.353902e+00    3.499573e+00
  3.369778e+00    3.480633e+00
  3.385654e+00    3.446338e+00
  3.401529e+00    3.468181e+00
  3.417405e+00    3.395331e+00
  3.433280e+00    3.292023e+00
  3.449156e+00    3.354988e+00
  3.465031e+00    3.379855e+00
  3.480907e+00    3.446294e+00
  3.496783e+00    3.387774e+00
  3.512658e+00    3.455696e+00
  3.528534e+00    3.440466e+00
  3.544409e+00    3.377329e+00
  3.560285e+00    3.431260e+00
  3.576160e+00    3.484459e+00
  3.592036e+00    3.518945e+00
  3.607912e+00    3.515103e+00
  3.623787e+00    3.548068e+00
  3.639663e+00    3.568496e+00
  3.655538e+00    3.438458e+00
  3.671414e+00    3.410561e+00
  3.687289e+00    3.449895e+00
  3.703165e+00    3.526738e+00
  3.719041e+00    3.492764e+00
  3.734916e+00    3.503676e+00
  3.750792e+00    3.511188e+00
  3.766667e+00    3.399567e+00
  3.782543e+00    3.465658e+00
  3.798418e+00    3.505962e+00
  3.814294e+00    3.440012e+00
  3.830170e+00    3.449962e+00
  3.846045e+00    3.519072e+00
  3.861921e+00    3.536419e+00
  3.877796e+00    3.525073e+00
  3.893672e+00    3.516378e+00
  3.909547e+00    3.515317e+00
  3.925423e+00    3.471896e+00
  3.941299e+00    3.468598e+00
  3.957174e+00    3.567630e+00
  3.973050e+00    3.582589e+00
  3.988925e+00    3.547196e+00
  4.004801e+00    3.517464e+00
  4.020676e+00    3.465719e+00
  4.036552e+00    3.459444e+00
  4.052428e+00    3.540365e+00
  4.068303e+00    3.502644e+00
  4.084179e+00    3.474341e+00
  4.100054e+00    3.500472e+00
  4.115930e+00    3.469388e+00
  4.131806e+00    3.501109e+00
  4.147681e+00    3.553487e+00
  4.163557e+00    3.594936e+00
  4.179432e+00    3.547472e+00
  4.195308e+00    3.559967e+00
  4.211183e+00    3.578127e+00
  4.227059e+00    3.509469e+00
  4.242935e+00    3.525426e+00
  4.258810e+00    3.553932e+00
  4.274686e+00    3.624117e+00
  4.290561e+00    3.648185e+00
  4.306437e+00    3.507466e+00
  4.322312e+00    3.528485e+00
  4.338188e+00    3.573368e+00
  4.354064e+00    3.568922e+00
  4.369939e+00    3.512616e+00
  4.385815e+00    3.521264e+00
  4.401690e+00    3.540550e+00
  4.417566e+00    3.648110e+00
  4.433441e+00    3.633564e+00
  4.449317e+00    3.616617e+00
  4.465193e+00    3.602815e+00
  4.481068e+00    3.564316e+00
  4.496944e+00    3.604607e+00
  4.512819e+00    3.668649e+00
  4.528695e+00    3.634491e+00
  4.544570e+00    3.583176e+00
  4.560446e+00    3.684252e+00
  4.576322e+00    3.670162e+00
  4.592197e+00    3.657696e+00
  4.608073e+00    3.644557e+00
  4.623948e+00    3.618206e+00
  4.639824e+00    3.592078e+00
  4.655699e+00    3.657142e+00
  4.671575e+00    3.635875e+00
  4.687451e+00    3.623287e+00
  4.703326e+00    3.615857e+00
  4.719202e+00    3.621474e+00
  4.735077e+00    3.634490e+00
  4.750953e+00    3.630753e+00
  4.766828e+00    3.497869e+00
  4.782704e+00    3.522519e+00
  4.798580e+00    3.559645e+00
  4.814455e+00    3.598659e+00
  4.830331e+00    3.695671e+00
  4.846206e+00    3.692793e+00
  4.862082e+00    3.681402e+00
  4.877957e+00    3.672507e+00
  4.893833e+00    3.604882e+00
  4.909709e+00    3.546674e+00
  4.925584e+00    3.635087e+00
  4.941460e+00    3.665816e+00
  4.957335e+00    3.734652e+00
  4.973211e+00    3.656894e+00
  4.989086e+00    3.624909e+00
  5.004962e+00    3.617970e+00
  5.020838e+00    3.719897e+00
  5.036713e+00    3.673272e+00
  5.052589e+00    3.662170e+00
  5.068464e+00    3.730990e+00
  5.084340e+00    3.724544e+00
  5.100216e+00    3.607151e+00
  5.116091e+00    3.619207e+00
  5.131967e+00    3.636974e+00
  5.147842e+00    3.633506e+00
  5.163718e+00    3.575825e+00
  5.179593e+00    3.609610e+00
  5.195469e+00    3.541827e+00
  5.211345e+00    3.649896e+00
  5.227220e+00    3.685092e+00
  5.243096e+00    3.654084e+00
  5.258971e+00    3.686109e+00
  5.274847e+00    3.649294e+00
  5.290722e+00    3.582838e+00
  5.306598e+00    3.609971e+00
  5.322474e+00    3.630560e+00
  5.338349e+00    3.671916e+00
  5.354225e+00    3.685156e+00
  5.370100e+00    3.730804e+00
  5.385976e+00    3.722161e+00
  5.401851e+00    3.679615e+00
  5.417727e+00    3.675121e+00
  5.433603e+00    3.621848e+00
  5.449478e+00    3.677099e+00
  5.465354e+00    3.685656e+00
  5.481229e+00    3.644994e+00
  5.497105e+00    3.659109e+00
  5.512980e+00    3.580421e+00
  5.528856e+00    3.603326e+00
  5.544732e+00    3.638925e+00
  5.560607e+00    3.595009e+00
  5.576483e+00    3.576288e+00
  5.592358e+00    3.532325e+00
  5.608234e+00    3.546382e+00
  5.624109e+00    3.590551e+00
  5.639985e+00    3.600956e+00
  5.655861e+00    3.523290e+00
  5.671736e+00    3.585948e+00
  5.687612e+00    3.577922e+00
  5.703487e+00    3.583187e+00
  5.719363e+00    3.565049e+00
  5.735238e+00    3.580387e+00
  5.751114e+00    3.621902e+00
  5.766990e+00    3.564765e+00
  5.782865e+00    3.529519e+00
  5.798741e+00    3.515810e+00
  5.814616e+00    3.533064e+00
  5.830492e+00    3.578023e+00
  5.846367e+00    3.626069e+00
  5.862243e+00    3.586950e+00
  5.878119e+00    3.615413e+00
  5.893994e+00    3.619709e+00
  5.909870e+00    3.660051e+00
  5.925745e+00    3.545853e+00
  5.941621e+00    3.565245e+00
  5.957497e+00    3.549359e+00
  5.973372e+00    3.521177e+00
  5.989248e+00    3.430270e+00
  6.005123e+00    3.439793e+00
  6.020999e+00    3.534717e+00
  6.036874e+00    3.587597e+00
  6.052750e+00    3.580171e+00
  6.068626e+00    3.569044e+00
  6.084501e+00    3.636061e+00
  6.100377e+00    3.665295e+00
  6.116252e+00    3.592771e+00
  6.132128e+00    3.662803e+00
  6.148003e+00    3.708414e+00
  6.163879e+00    3.653102e+00
  6.179755e+00    3.663147e+00
  6.195630e+00    3.615939e+00
  6.211506e+00    3.642237e+00
  6.227381e+00    3.631836e+00
  6.243257e+00    3.541316e+00
  6.259132e+00    3.584770e+00
  6.275008e+00    3.634336e+00
  6.290884e+00    3.641172e+00
  6.306759e+00    3.630996e+00
  6.322635e+00    3.559371e+00
  6.338510e+00    3.554137e+00
  6.354386e+00    3.574956e+00
  6.370261e+00    3.588724e+00
  6.386137e+00    3.625421e+00
  6.402013e+00    3.563176e+00
  6.417888e+00    3.589756e+00
  6.433764e+00    3.634327e+00
  6.449639e+00    3.564845e+00
  6.465515e+00    3.517356e+00
  6.481390e+00    3.599647e+00
  6.497266e+00    3.556213e+00
  6.513142e+00    3.554573e+00
  6.529017e+00    3.604114e+00
  6.544893e+00    3.522850e+00
  6.560768e+00    3.577365e+00
  6.576644e+00    3.598954e+00
  6.592519e+00    3.562031e+00
  6.608395e+00    3.537054e+00
  6.624271e+00    3.589859e+00
  6.640146e+00    3.617754e+00
  6.656022e+00    3.601244e+00
  6.671897e+00    3.616735e+00
  6.687773e+00    3.637979e+00
  6.703648e+00    3.581035e+00
  6.719524e+00    3.591391e+00
  6.735400e+00    3.599553e+00
  6.751275e+00    3.556085e+00
  6.767151e+00    3.511609e+00
  6.783026e+00    3.599913e+00
  6.798902e+00    3.559165e+00
  6.814777e+00    3.510463e+00
  6.830653e+00    3.529418e+00
  6.846529e+00    3.545898e+00
  6.862404e+00    3.558332e+00
  6.878280e+00    3.588897e+00
  6.894155e+00    3.587802e+00
  6.910031e+00    3.523460e+00
  6.925907e+00    3.565724e+00
  6.941782e+00    3.524292e+00
  6.957658e+00    3.484200e+00
  6.973533e+00    3.545564e+00
  6.989409e+00    3.566928e+00
  7.005284e+00    3.524988e+00
  7.021160e+00    3.520289e+00
  7.037036e+00    3.550828e+00
  7.052911e+00    3.593957e+00
  7.068787e+00    3.516626e+00
  7.084662e+00    3.482515e+00
  7.100538e+00    3.480448e+00
  7.116413e+00    3.515476e+00
  7.132289e+00    3.576853e+00
  7.148165e+00    3.596686e+00
  7.164040e+00    3.528212e+00
  7.179916e+00    3.518844e+00
  7.195791e+00    3.511719e+00
  7.211667e+00    3.497104e+00
  7.227542e+00    3.530297e+00
  7.243418e+00    3.621178e+00
  7.259294e+00    3.582115e+00
  7.275169e+00    3.577321e+00
  7.291045e+00    3.577695e+00
  7.306920e+00    3.559017e+00
  7.322796e+00    3.515366e+00
  7.338671e+00    3.438631e+00
  7.354547e+00    3.453893e+00
  7.370423e+00    3.506371e+00
  7.386298e+00    3.498773e+00
  7.402174e+00    3.521236e+00
  7.418049e+00    3.529717e+00
  7.433925e+00    3.559976e+00
  7.449800e+00    3.543749e+00
  7.465676e+00    3.563641e+00
  7.481552e+00    3.564197e+00
  7.497427e+00    3.491221e+00
  7.513303e+00    3.458520e+00
  7.529178e+00    3.540789e+00
  7.545054e+00    3.590890e+00
  7.560929e+00    3.541321e+00
  7.576805e+00    3.503119e+00
  7.592681e+00    3.463492e+00
  7.608556e+00    3.410557e+00
  7.624432e+00    3.465876e+00
  7.640307e+00    3.518726e+00
  7.656183e+00    3.495319e+00
  7.672058e+00    3.398609e+00
  7.687934e+00    3.456434e+00
  7.703810e+00    3.500113e+00
  7.719685e+00    3.527736e+00
  7.735561e+00    3.534886e+00
  7.751436e+00    3.489082e+00
  7.767312e+00    3.454503e+00
  7.783187e+00    3.456053e+00
  7.799063e+00    3.417199e+00
  7.814939e+00    3.409042e+00
  7.830814e+00    3.433008e+00
  7.846690e+00    3.439138e+00
  7.862565e+00    3.427889e+00
  7.878441e+00    3.480325e+00
  7.894317e+00    3.466789e+00
  7.910192e+00    3.479894e+00
  7.926068e+00    3.442955e+00
  7.941943e+00    3.398205e+00
  7.957819e+00    3.415088e+00
  7.973694e+00    3.454184e+00
  7.989570e+00    3.462117e+00
  8.005446e+00    3.436132e+00
  8.021321e+00    3.405140e+00
  8.037197e+00    3.386415e+00
  8.053072e+00    3.404992e+00
  8.068948e+00    3.380442e+00
  8.084823e+00    3.366050e+00
  8.100699e+00    3.348403e+00
  8.116575e+00    3.425202e+00
  8.132450e+00    3.510604e+00
  8.148326e+00    3.527530e+00
  8.164201e+00    3.468582e+00
  8.180077e+00    3.518091e+00
  8.195952e+00    3.451661e+00
  8.211828e+00    3.454000e+00
  8.227704e+00    3.466184e+00
  8.243579e+00    3.461413e+00
  8.259455e+00    3.487434e+00
  8.275330e+00    3.397945e+00
  8.291206e+00    3.445477e+00
  8.307081e+00    3.453681e+00
  8.322957e+00    3.413685e+00
  8.338833e+00    3.421639e+00
  8.354708e+00    3.353765e+00
  8.370584e+00    3.360379e+00
  8.386459e+00    3.365468e+00
  8.402335e+00    3.359487e+00
  8.418210e+00    3.402724e+00
  8.434086e+00    3.407368e+00
  8.449962e+00    3.328036e+00
  8.465837e+00    3.325053e+00
  8.481713e+00    3.315429e+00
  8.497588e+00    3.304899e+00
  8.513464e+00    3.393152e+00
  8.529339e+00    3.369371e+00
  8.545215e+00    3.397209e+00
  8.561091e+00    3.379933e+00
  8.576966e+00    3.447530e+00
  8.592842e+00    3.388974e+00
  8.608717e+00    3.301422e+00
  8.624593e+00    3.303534e+00
  8.640468e+00    3.330936e+00
  8.656344e+00    3.340475e+00
  8.672220e+00    3.305717e+00
  8.688095e+00    3.324456e+00
  8.703971e+00    3.337656e+00
  8.719846e+00    3.358394e+00
  8.735722e+00    3.331869e+00
  8.751598e+00    3.295947e+00
  8.767473e+00    3.290304e+00
  8.783349e+00    3.331978e+00
  8.799224e+00    3.357915e+00
  8.815100e+00    3.379306e+00
  8.830975e+00    3.327620e+00
  8.846851e+00    3.315845e+00
  8.862727e+00    3.283135e+00
  8.878602e+00    3.319041e+00
  8.894478e+00    3.335885e+00
  8.910353e+00    3.308102e+00
  8.926229e+00    3.245193e+00
  8.942104e+00    3.312330e+00
  8.957980e+00    3.386654e+00
  8.973856e+00    3.329740e+00
  8.989731e+00    3.339062e+00
  9.005607e+00    3.316870e+00
  9.021482e+00    3.287325e+00
  9.037358e+00    3.273384e+00
  9.053233e+00    3.320752e+00
  9.069109e+00    3.280897e+00
  9.084985e+00    3.261255e+00
  9.100860e+00    3.258330e+00
  9.116736e+00    3.240545e+00
  9.132611e+00    3.297880e+00
  9.148487e+00    3.319627e+00
  9.164362e+00    3.295530e+00
  9.180238e+00    3.239591e+00
  9.196114e+00    3.194310e+00
  9.211989e+00    3.222054e+00
  9.227865e+00    3.195204e+00
  9.243740e+00    3.232553e+00
  9.259616e+00    3.273932e+00
  9.275491e+00    3.274343e+00
  9.291367e+00    3.229506e+00
  9.307243e+00    3.267804e+00
  9.323118e+00    3.226183e+00
  9.338994e+00    3.221609e+00
  9.354869e+00    3.283638e+00
  9.370745e+00    3.256917e+00
  9.386620e+00    3.139402e+00
  9.402496e+00    3.199913e+00
  9.418372e+00    3.179831e+00
  9.434247e+00    3.198131e+00
  9.450123e+00    3.190129e+00
  9.465998e+00    3.200512e+00
  9.481874e+00    3.198103e+00
  9.497749e+00    3.260078e+00
  9.513625e+00    3.247692e+00
  9.529501e+00    3.185748e+00
  9.545376e+00    3.219330e+00
  9.561252e+00    3.196163e+00
  9.577127e+00    3.218600e+00
  9.593003e+00    3.205946e+00
  9.608878e+00    3.157165e+00
  9.624754e+00    3.171661e+00
  9.640630e+00    3.215467e+00
  9.656505e+00    3.178517e+00
  9.672381e+00    3.166951e+00
  9.688256e+00    3.191678e+00
  9.704132e+00    3.144733e+00
  9.720008e+00    3.165466e+00
  9.735883e+00    3.221828e+00
  9.751759e+00    3.199119e+00
  9.767634e+00    3.172667e+00
  9.783510e+00    3.228691e+00
  9.799385e+00    3.241534e+00
  9.815261e+00    3.203681e+00
  9.831137e+00    3.152570e+00
  9.847012e+00    3.145775e+00
  9.862888e+00    3.141493e+00
  9.878763e+00    3.187334e+00
  9.894639e+00    3.207420e+00
  9.910514e+00    3.155931e+00
  9.926390e+00    3.100373e+00
  9.942266e+00    3.119945e+00
  9.958141e+00    3.145637e+00
  9.974017e+00    3.139671e+00
  9.989892e+00    3.115252e+00
  1.000577e+01    3.130706e+00
  1.002164e+01    3.179024e+00
  1.003752e+01    3.147418e+00
  1.005339e+01    3.117394e+00
  1.006927e+01    3.079557e+00
  1.008515e+01    3.059618e+00
  1.010102e+01    3.060483e+00
  1.011690e+01    3.071199e+00
  1.013277e+01    3.088383e+00
  1.014865e+01    3.071856e+00
  1.016452e+01    3.106334e+00
  1.018040e+01    3.060535e+00
  1.019627e+01    3.092003e+00
  1.021215e+01    3.154690e+00
  1.022803e+01    3.156523e+00
  1.024390e+01    3.062167e+00
  1.025978e+01    3.054226e+00
  1.027565e+01    3.090775e+00
  1.029153e+01    3.073225e+00
  1.030740e+01    3.058373e+00
  1.032328e+01    3.060556e+00
  1.033915e+01    3.122264e+00
  1.035503e+01    3.083491e+00
  1.037091e+01    2.978445e+00
  1.038678e+01    2.998686e+00
  1.040266e+01    2.985307e+00
  1.041853e+01    2.978706e+00
  1.043441e+01    2.989461e+00
  1.045028e+01    2.994251e+00
  1.046616e+01    2.997874e+00
  1.048204e+01    3.023467e+00
  1.049791e+01    3.046077e+00
  1.051379e+01    3.024626e+00
  1.052966e+01    3.015388e+00
  1.054554e+01    3.011590e+00
  1.056141e+01    3.030841e+00
  1.057729e+01    3.000052e+00
  1.059316e+01    2.987340e+00
  1.060904e+01    3.014025e+00
  1.062492e+01    3.006481e+00
  1.064079e+01    3.019571e+00
  1.065667e+01    2.954089e+00
  1.067254e+01    2.946984e+00
  1.068842e+01    3.014495e+00
  1.070429e+01    3.007456e+00
  1.072017e+01    2.988132e+00
  1.073604e+01    3.004619e+00
  1.075192e+01    3.006431e+00
  1.076780e+01    2.986519e+00
  1.078367e+01    2.948987e+00
  1.079955e+01    2.886449e+00
  1.081542e+01    2.944738e+00
  1.083130e+01    2.971337e+00
  1.084717e+01    2.926047e+00
  1.086305e+01    2.903153e+00
  1.087892e+01    2.948916e+00
  1.089480e+01    2.940648e+00
  1.091068e+01    2.961540e+00
  1.092655e+01    2.970253e+00
  1.094243e+01    2.935018e+00
  1.095830e+01    2.885952e+00
  1.097418e+01    2.921849e+00
  1.099005e+01    2.925681e+00
  1.100593e+01    2.853978e+00
  1.102180e+01    2.897245e+00
  1.103768e+01    2.918450e+00
  1.105356e+01    2.902325e+00
  1.106943e+01    2.901415e+00
  1.108531e+01    2.890828e+00
  1.110118e+01    2.908643e+00
  1.111706e+01    2.880333e+00
  1.113293e+01    2.845562e+00
  1.114881e+01    2.868217e+00
  1.116468e+01    2.875246e+00
  1.118056e+01    2.856070e+00
  1.119644e+01    2.842575e+00
  1.121231e+01    2.881795e+00
  1.122819e+01    2.898361e+00
  1.124406e+01    2.886567e+00
  1.125994e+01    2.826135e+00
  1.127581e+01    2.862518e+00
  1.129169e+01    2.849038e+00
  1.130756e+01    2.830275e+00
  1.132344e+01    2.830576e+00
  1.133932e+01    2.859265e+00
  1.135519e+01    2.876291e+00
  1.137107e+01    2.841167e+00
  1.138694e+01    2.800461e+00
  1.140282e+01    2.785985e+00
  1.141869e+01    2.795553e+00
  1.143457e+01    2.801374e+00
  1.145045e+01    2.850119e+00
  1.146632e+01    2.849075e+00
  1.148220e+01    2.810603e+00
  1.149807e+01    2.784185e+00
  1.151395e+01    2.873214e+00
  1.152982e+01    2.842378e+00
  1.154570e+01    2.764619e+00
  1.156157e+01    2.774318e+00
  1.157745e+01    2.752909e+00
  1.159333e+01    2.781064e+00
  1.160920e+01    2.793223e+00
  1.162508e+01    2.726782e+00
  1.164095e+01    2.740280e+00
  1.165683e+01    2.769262e+00
  1.167270e+01    2.764211e+00
  1.168858e+01    2.715296e+00
  1.170445e+01    2.711685e+00
  1.172033e+01    2.710508e+00
  1.173621e+01    2.706139e+00
  1.175208e+01    2.745011e+00
  1.176796e+01    2.772722e+00
  1.178383e+01    2.770339e+00
  1.179971e+01    2.775939e+00
  1.181558e+01    2.805599e+00
  1.183146e+01    2.776341e+00
  1.184733e+01    2.767323e+00
  1.186321e+01    2.772688e+00
  1.187909e+01    2.776549e+00
  1.189496e+01    2.760177e+00
  1.191084e+01    2.740663e+00
  1.192671e+01    2.728071e+00
  1.194259e+01    2.772187e+00
  1.195846e+01    2.728405e+00
  1.197434e+01    2.714194e+00
  1.199021e+01    2.697241e+00
  1.200609e+01    2.699146e+00
  1.202197e+01    2.700681e+00
  1.203784e+01    2.729843e+00
  1.205372e+01    2.708366e+00
  1.206959e+01    2.690808e+00
  1.208547e+01    2.692693e+00
  1.210134e+01    2.727635e+00
  1.211722e+01    2.719267e+00
  1.213309e+01    2.709757e+00
  1.214897e+01    2.694322e+00
  1.216485e+01    2.677369e+00
  1.218072e+01    2.684368e+00
  1.219660e+01    2.715134e+00
  1.221247e+01    2.729348e+00
  1.222835e+01    2.703459e+00
  1.224422e+01    2.682452e+00
  1.226010e+01    2.695747e+00
  1.227597e+01    2.658640e+00
  1.229185e+01    2.649836e+00
  1.230773e+01    2.705348e+00
  1.232360e+01    2.712874e+00
  1.233948e+01    2.720058e+00
  1.235535e+01    2.698963e+00
  1.237123e+01    2.692780e+00
  1.238710e+01    2.718292e+00
  1.240298e+01    2.740472e+00
  1.241886e+01    2.712603e+00
  1.243473e+01    2.738063e+00
  1.245061e+01    2.698704e+00
  1.246648e+01    2.686405e+00
  1.248236e+01    2.738698e+00
  1.249823e+01    2.726979e+00
  1.251411e+01    2.729916e+00
  1.252998e+01    2.773347e+00
  1.254586e+01    2.716942e+00
  1.256174e+01    2.725690e+00
  1.257761e+01    2.724553e+00
  1.259349e+01    2.719506e+00
  1.260936e+01    2.766932e+00
  1.262524e+01    2.783588e+00
  1.264111e+01    2.734410e+00
  1.265699e+01    2.753436e+00
  1.267286e+01    2.747509e+00
  1.268874e+01    2.770411e+00
  1.270462e+01    2.793027e+00
  1.272049e+01    2.852665e+00
  1.273637e+01    2.872782e+00
  1.275224e+01    2.896492e+00
  1.276812e+01    2.897783e+00
  1.278399e+01    2.928611e+00
  1.279987e+01    3.001959e+00
  1.281574e+01    3.045364e+00
  1.283162e+01    3.080991e+00
  1.284750e+01    3.182618e+00
  1.286337e+01    3.276850e+00
  1.287925e+01    3.362141e+00
  1.289512e+01    3.511418e+00
  1.291100e+01    3.668763e+00
  1.292687e+01    3.857363e+00
  1.294275e+01    4.052473e+00
  1.295862e+01    4.394020e+00
  1.297450e+01    4.807067e+00
  1.299038e+01    5.290437e+00
  1.300625e+01    5.924360e+00
  1.302213e+01    6.694344e+00
  1.303800e+01    7.789812e+00
  1.305388e+01    8.914880e+00
  1.306975e+01    1.020047e+01
  1.308563e+01    1.141349e+01
  1.310150e+01    1.251782e+01
  1.311738e+01    1.373177e+01
  1.313326e+01    1.478384e+01
  1.314913e+01    1.567866e+01
  1.316501e+01    1.615779e+01
  1.318088e+01    1.622722e+01
  1.319676e+01    1.551071e+01
  1.321263e+01    1.417531e+01
  1.322851e+01    1.247935e+01
  1.324438e+01    1.063480e+01
  1.326026e+01    9.146098e+00
  1.327614e+01    7.767014e+00
  1.329201e+01    6.714547e+00
  1.330789e+01    5.912162e+00
  1.332376e+01    5.385825e+00
  1.333964e+01    4.876924e+00
  1.335551e+01    4.436736e+00
  1.337139e+01    4.110199e+00
  1.338727e+01    3.876961e+00
  1.340314e+01    3.691558e+00
  1.341902e+01    3.480091e+00
  1.343489e+01    3.337020e+00
  1.345077e+01    3.219529e+00
  1.346664e+01    3.124534e+00
  1.348252e+01    3.056118e+00
  1.349839e+01    2.988326e+00
  1.351427e+01    2.898319e+00
  1.353015e+01    2.862033e+00
  1.354602e+01    2.844558e+00
  1.356190e+01    2.780676e+00
  1.357777e+01    2.732004e+00
  1.359365e+01    2.662763e+00
  1.360952e+01    2.685543e+00
  1.362540e+01    2.635114e+00
  1.364127e+01    2.635309e+00
  1.365715e+01    2.629403e+00
  1.367303e+01    2.598249e+00
  1.368890e+01    2.595225e+00
  1.370478e+01    2.528874e+00
  1.372065e+01    2.489802e+00
  1.373653e+01    2.504765e+00
  1.375240e+01    2.515082e+00
  1.376828e+01    2.488725e+00
  1.378415e+01    2.473585e+00
  1.380003e+01    2.487621e+00
  1.381591e+01    2.494238e+00
  1.383178e+01    2.436593e+00
  1.384766e+01    2.414026e+00
  1.386353e+01    2.433977e+00
  1.387941e+01    2.415109e+00
  1.389528e+01    2.382122e+00
  1.391116e+01    2.399338e+00
  1.392703e+01    2.430945e+00
  1.394291e+01    2.379965e+00
  1.395879e+01    2.373354e+00
  1.397466e+01    2.414169e+00
  1.399054e+01    2.389651e+00
  1.400641e+01    2.378173e+00
  1.402229e+01    2.379211e+00
  1.403816e+01    2.355809e+00
  1.405404e+01    2.353004e+00
  1.406991e+01    2.341070e+00
  1.408579e+01    2.337364e+00
  1.410167e+01    2.342030e+00
  1.411754e+01    2.338787e+00
  1.413342e+01    2.336833e+00
  1.414929e+01    2.325887e+00
  1.416517e+01    2.298665e+00
  1.418104e+01    2.289929e+00
  1.419692e+01    2.311710e+00
  1.421279e+01    2.302325e+00
  1.422867e+01    2.282672e+00
  1.424455e+01    2.266945e+00
  1.426042e+01    2.284792e+00
  1.427630e+01    2.280711e+00
  1.429217e+01    2.309475e+00
  1.430805e+01    2.313444e+00
  1.432392e+01    2.255126e+00
  1.433980e+01    2.269750e+00
  1.435568e+01    2.273446e+00
  1.437155e+01    2.246906e+00
  1.438743e+01    2.219701e+00
  1.440330e+01    2.212545e+00
  1.441918e+01    2.205765e+00
  1.443505e+01    2.264577e+00
  1.445093e+01    2.269117e+00
  1.446680e+01    2.266455e+00
  1.448268e+01    2.219581e+00
  1.449856e+01    2.243180e+00
  1.451443e+01    2.218552e+00
  1.453031e+01    2.197567e+00
  1.454618e+01    2.180889e+00
  1.456206e+01    2.198608e+00
  1.457793e+01    2.213857e+00
  1.459381e+01    2.223376e+00
  1.460968e+01    2.247421e+00
  1.462556e+01    2.219896e+00
  1.464144e+01    2.196812e+00
  1.465731e+01    2.205777e+00
  1.467319e+01    2.212045e+00
  1.468906e+01    2.213867e+00
  1.470494e+01    2.202832e+00
  1.472081e+01    2.170203e+00
  1.473669e+01    2.202225e+00
  1.475256e+01    2.203886e+00
  1.476844e+01    2.208756e+00
  1.478432e+01    2.156193e+00
  1.480019e+01    2.159015e+00
  1.481607e+01    2.203449e+00
  1.483194e+01    2.228524e+00
  1.484782e+01    2.252809e+00
  1.486369e+01    2.241640e+00
  1.487957e+01    2.238064e+00
  1.489544e+01    2.220043e+00
  1.491132e+01    2.260487e+00
  1.492720e+01    2.341557e+00
  1.494307e+01    2.311008e+00
  1.495895e+01    2.313762e+00
  1.497482e+01    2.364844e+00
  1.499070e+01    2.415063e+00
  1.500657e+01    2.472491e+00
  1.502245e+01    2.523213e+00
  1.503832e+01    2.562694e+00
  1.505420e+01    2.671671e+00
  1.507008e+01    2.803209e+00
  1.508595e+01    3.004882e+00
  1.510183e+01    3.228374e+00
  1.511770e+01    3.471166e+00
  1.513358e+01    3.790196e+00
  1.514945e+01    4.130891e+00
  1.516533e+01    4.493463e+00
  1.518120e+01    4.767578e+00
  1.519708e+01    5.156010e+00
  1.521296e+01    5.393564e+00
  1.522883e+01    5.590708e+00
  1.524471e+01    5.728326e+00
  1.526058e+01    5.783495e+00
  1.527646e+01    5.685478e+00
  1.529233e+01    5.485165e+00
  1.530821e+01    5.100831e+00
  1.532409e+01    4.646839e+00
  1.533996e+01    4.211850e+00
  1.535584e+01    3.783519e+00
  1.537171e+01    3.361995e+00
  1.538759e+01    3.105046e+00
  1.540346e+01    2.929352e+00
  1.541934e+01    2.773383e+00
  1.543521e+01    2.608855e+00
  1.545109e+01    2.538421e+00
  1.546697e+01    2.441668e+00
  1.548284e+01    2.393782e+00
  1.549872e+01    2.342016e+00
  1.551459e+01    2.295996e+00
  1.553047e+01    2.234665e+00
  1.554634e+01    2.168789e+00
  1.556222e+01    2.108964e+00
  1.557809e+01    2.108364e+00
  1.559397e+01    2.105853e+00
  1.560985e+01    2.063750e+00
  1.562572e+01    2.022530e+00
  1.564160e+01    2.056391e+00
  1.565747e+01    2.049695e+00
  1.567335e+01    2.024162e+00
  1.568922e+01    2.007994e+00
  1.570510e+01    2.022760e+00
  1.572097e+01    2.032212e+00
  1.573685e+01    1.987911e+00
  1.575273e+01    1.984466e+00
  1.576860e+01    1.932484e+00
  1.578448e+01    1.962135e+00
  1.580035e+01    1.963991e+00
  1.581623e+01    1.952588e+00
  1.583210e+01    1.951859e+00
  1.584798e+01    1.942988e+00
  1.586385e+01    1.929780e+00
  1.587973e+01    1.901994e+00
  1.589561e+01    1.888646e+00
  1.591148e+01    1.911497e+00
  1.592736e+01    1.907265e+00
  1.594323e+01    1.877394e+00
  1.595911e+01    1.914084e+00
  1.597498e+01    1.872635e+00
  1.599086e+01    1.865996e+00
  1.600673e+01    1.866237e+00
  1.602261e+01    1.884589e+00
  1.603849e+01    1.864419e+00
  1.605436e+01    1.844661e+00
  1.607024e+01    1.850585e+00
  1.608611e+01    1.864418e+00
  1.610199e+01    1.878913e+00
  1.611786e+01    1.922234e+00
  1.613374e+01    1.886333e+00
  1.614961e+01    1.845656e+00
  1.616549e+01    1.789808e+00
  1.618137e+01    1.800764e+00
  1.619724e+01    1.816350e+00
  1.621312e+01    1.816648e+00
  1.622899e+01    1.822554e+00
  1.624487e+01    1.790574e+00
  1.626074e+01    1.830646e+00
  1.627662e+01    1.813381e+00
  1.629250e+01    1.791145e+00
  1.630837e+01    1.782541e+00
  1.632425e+01    1.803834e+00
  1.634012e+01    1.827970e+00
  1.635600e+01    1.820195e+00
  1.637187e+01    1.818033e+00
  1.638775e+01    1.830619e+00
  1.640362e+01    1.796271e+00
  1.641950e+01    1.794120e+00
  1.643538e+01    1.749592e+00
  1.645125e+01    1.771644e+00
  1.646713e+01    1.809234e+00
  1.648300e+01    1.815194e+00
  1.649888e+01    1.741672e+00
  1.651475e+01    1.715706e+00
  1.653063e+01    1.746052e+00
  1.654650e+01    1.767104e+00
  1.656238e+01    1.748813e+00
  1.657826e+01    1.710062e+00
  1.659413e+01    1.700448e+00
  1.661001e+01    1.723176e+00
  1.662588e+01    1.711644e+00
  1.664176e+01    1.738088e+00
  1.665763e+01    1.744346e+00
  1.667351e+01    1.719960e+00
  1.668938e+01    1.711031e+00
  1.670526e+01    1.713611e+00
  1.672114e+01    1.719731e+00
  1.673701e+01    1.722751e+00
  1.675289e+01    1.712994e+00
  1.676876e+01    1.754293e+00
  1.678464e+01    1.728972e+00
  1.680051e+01    1.682628e+00
  1.681639e+01    1.697746e+00
  1.683226e+01    1.677989e+00
  1.684814e+01    1.679734e+00
  1.686402e+01    1.696318e+00
  1.687989e+01    1.709408e+00
  1.689577e+01    1.683393e+00
  1.691164e+01    1.685183e+00
  1.692752e+01    1.669942e+00
  1.694339e+01    1.664383e+00
  1.695927e+01    1.653112e+00
  1.697514e+01    1.652756e+00
  1.699102e+01    1.659007e+00
  1.700690e+01    1.685011e+00
  1.702277e+01    1.683681e+00
  1.703865e+01    1.669913e+00
  1.705452e+01    1.654565e+00
  1.707040e+01    1.679940e+00
  1.708627e+01    1.674002e+00
  1.710215e+01    1.638283e+00
  1.711802e+01    1.645294e+00
  1.713390e+01    1.655038e+00
  1.714978e+01    1.628579e+00
  1.716565e+01    1.653072e+00
  1.718153e+01    1.672423e+00
  1.719740e+01    1.685725e+00
  1.721328e+01    1.650663e+00
  1.722915e+01    1.617666e+00
  1.724503e+01    1.622507e+00
  1.726091e+01    1.614693e+00
  1.727678e+01    1.617713e+00
  1.729266e+01    1.632149e+00
  1.730853e+01    1.627045e+00
  1.732441e+01    1.636687e+00
  1.734028e+01    1.622921e+00
  1.735616e+01    1.617689e+00
  1.737203e+01    1.664828e+00
  1.738791e+01    1.630206e+00
  1.740379e+01    1.611356e+00
  1.741966e+01    1.569638e+00
  1.743554e+01    1.586654e+00
  1.745141e+01    1.597100e+00
  1.746729e+01    1.610892e+00
  1.748316e+01    1.571129e+00
  1.749904e+01    1.599929e+00
  1.751491e+01    1.596750e+00
  1.753079e+01    1.593743e+00
  1.754667e+01    1.609692e+00
  1.756254e+01    1.603269e+00
  1.757842e+01    1.587482e+00
  1.759429e+01    1.586449e+00
  1.761017e+01    1.592264e+00
  1.762604e+01    1.570944e+00
  1.764192e+01    1.590891e+00
  1.765779e+01    1.572430e+00
  1.767367e+01    1.537248e+00
  1.768955e+01    1.522538e+00
  1.770542e+01    1.563988e+00
  1.772130e+01    1.552008e+00
  1.773717e+01    1.534973e+00
  1.775305e+01    1.593014e+00
  1.776892e+01    1.511481e+00
  1.778480e+01    1.509067e+00
  1.780067e+01    1.531486e+00
  1.781655e+01    1.522323e+00
  1.783243e+01    1.548363e+00
  1.784830e+01    1.568407e+00
  1.786418e+01    1.546667e+00
  1.788005e+01    1.534234e+00
  1.789593e+01    1.524953e+00
  1.791180e+01    1.526310e+00
  1.792768e+01    1.526242e+00
  1.794355e+01    1.562031e+00
  1.795943e+01    1.547166e+00
  1.797531e+01    1.521172e+00
  1.799118e+01    1.541384e+00
  1.800706e+01    1.557956e+00
  1.802293e+01    1.487830e+00
  1.803881e+01    1.517951e+00
  1.805468e+01    1.497774e+00
  1.807056e+01    1.490346e+00
  1.808643e+01    1.497870e+00
  1.810231e+01    1.508562e+00
  1.811819e+01    1.505512e+00
  1.813406e+01    1.507121e+00
  1.814994e+01    1.490545e+00
  1.816581e+01    1.496650e+00
  1.818169e+01    1.490038e+00
  1.819756e+01    1.499364e+00
  1.821344e+01    1.513278e+00
  1.822932e+01    1.484034e+00
  1.824519e+01    1.527120e+00
  1.826107e+01    1.543298e+00
  1.827694e+01    1.490329e+00
  1.829282e+01    1.463107e+00
  1.830869e+01    1.486712e+00
  1.832457e+01    1.478134e+00
  1.834044e+01    1.470921e+00
  1.835632e+01    1.474240e+00
  1.837220e+01    1.471471e+00
  1.838807e+01    1.438940e+00
  1.840395e+01    1.450165e+00
  1.841982e+01    1.471131e+00
  1.843570e+01    1.452519e+00
  1.845157e+01    1.433461e+00
  1.846745e+01    1.454765e+00
  1.848332e+01    1.440924e+00
  1.849920e+01    1.420635e+00
  1.851508e+01    1.415071e+00
  1.853095e+01    1.445260e+00
  1.854683e+01    1.435742e+00
  1.856270e+01    1.433940e+00
  1.857858e+01    1.442860e+00
  1.859445e+01    1.440998e+00
  1.861033e+01    1.436823e+00
  1.862620e+01    1.418799e+00
  1.864208e+01    1.440709e+00
  1.865796e+01    1.415706e+00
  1.867383e+01    1.417694e+00
  1.868971e+01    1.418211e+00
  1.870558e+01    1.421345e+00
  1.872146e+01    1.428369e+00
  1.873733e+01    1.429880e+00
  1.875321e+01    1.423949e+00
  1.876908e+01    1.421680e+00
  1.878496e+01    1.419754e+00
  1.880084e+01    1.403868e+00
  1.881671e+01    1.411440e+00
  1.883259e+01    1.399376e+00
  1.884846e+01    1.385936e+00
  1.886434e+01    1.420210e+00
  1.888021e+01    1.405515e+00
  1.889609e+01    1.400706e+00
  1.891196e+01    1.376077e+00
  1.892784e+01    1.403884e+00
  1.894372e+01    1.392857e+00
  1.895959e+01    1.383929e+00
  1.897547e+01    1.378834e+00
  1.899134e+01    1.358322e+00
  1.900722e+01    1.386847e+00
  1.902309e+01    1.384303e+00
  1.903897e+01    1.380815e+00
  1.905484e+01    1.385609e+00
  1.907072e+01    1.402968e+00
  1.908660e+01    1.380712e+00
  1.910247e+01    1.353041e+00
  1.911835e+01    1.365304e+00
  1.913422e+01    1.353971e+00
  1.915010e+01    1.361195e+00
  1.916597e+01    1.394892e+00
  1.918185e+01    1.363916e+00
  1.919773e+01    1.337636e+00
  1.921360e+01    1.341760e+00
  1.922948e+01    1.355463e+00
  1.924535e+01    1.334607e+00
  1.926123e+01    1.348694e+00
  1.927710e+01    1.347096e+00
  1.929298e+01    1.343177e+00
  1.930885e+01    1.355188e+00
  1.932473e+01    1.348798e+00
  1.934061e+01    1.334056e+00
  1.935648e+01    1.339932e+00
  1.937236e+01    1.328904e+00
  1.938823e+01    1.307084e+00
  1.940411e+01    1.351209e+00
  1.941998e+01    1.362537e+00
  1.943586e+01    1.336624e+00
  1.945173e+01    1.359477e+00
  1.946761e+01    1.338629e+00
  1.948349e+01    1.338328e+00
  1.949936e+01    1.348828e+00
  1.951524e+01    1.339302e+00
  1.953111e+01    1.349230e+00
  1.954699e+01    1.325308e+00
  1.956286e+01    1.305325e+00
  1.957874e+01    1.324273e+00
  1.959461e+01    1.335547e+00
  1.961049e+01    1.330960e+00
  1.962637e+01    1.306837e+00
  1.964224e+01    1.318530e+00
  1.965812e+01    1.308752e+00
  1.967399e+01    1.304009e+00
  1.968987e+01    1.293944e+00
  1.970574e+01    1.303904e+00
  1.972162e+01    1.285569e+00
  1.973749e+01    1.298347e+00
  1.975337e+01    1.317418e+00
  1.976925e+01    1.300784e+00
  1.978512e+01    1.308378e+00
  1.980100e+01    1.281799e+00
  1.981687e+01    1.282552e+00
  1.983275e+01    1.313607e+00
  1.984862e+01    1.301466e+00
  1.986450e+01    1.297295e+00
  1.988037e+01    1.304246e+00
  1.989625e+01    1.302130e+00
  1.991213e+01    1.301443e+00
  1.992800e+01    1.305787e+00
  1.994388e+01    1.299921e+00
  1.995975e+01    1.265307e+00
  1.997563e+01    1.276174e+00
  1.999150e+01    1.291242e+00
  2.000738e+01    1.278596e+00
  2.002325e+01    1.286031e+00
  2.003913e+01    1.286811e+00
  2.005501e+01    1.272459e+00
  2.007088e+01    1.267496e+00
  2.008676e+01    1.283597e+00
  2.010263e+01    1.271022e+00
  2.011851e+01    1.256420e+00
  2.013438e+01    1.261859e+00
  2.015026e+01    1.266191e+00
  2.016614e+01    1.304638e+00
  2.018201e+01    1.291563e+00
  2.019789e+01    1.254715e+00
  2.021376e+01    1.246238e+00
  2.022964e+01    1.258035e+00
  2.024551e+01    1.252291e+00
  2.026139e+01    1.286289e+00
  2.027726e+01    1.252162e+00
  2.029314e+01    1.237895e+00
  2.030902e+01    1.236629e+00
  2.032489e+01    1.247685e+00
  2.034077e+01    1.256497e+00
  2.035664e+01    1.256768e+00
  2.037252e+01    1.248584e+00
  2.038839e+01    1.253339e+00
  2.040427e+01    1.257919e+00
  2.042014e+01    1.250881e+00
  2.043602e+01    1.245572e+00
  2.045190e+01    1.249019e+00
  2.046777e+01    1.276081e+00
  2.048365e+01    1.271777e+00
  2.049952e+01    1.254742e+00
  2.051540e+01    1.253433e+00
  2.053127e+01    1.241132e+00
  2.054715e+01    1.234196e+00
  2.056302e+01    1.242782e+00
  2.057890e+01    1.237140e+00
  2.059478e+01    1.235569e+00
  2.061065e+01    1.258830e+00
  2.062653e+01    1.246829e+00
  2.064240e+01    1.243005e+00
  2.065828e+01    1.246362e+00
  2.067415e+01    1.221117e+00
  2.069003e+01    1.226252e+00
  2.070590e+01    1.226217e+00
  2.072178e+01    1.209905e+00
  2.073766e+01    1.215546e+00
  2.075353e+01    1.218670e+00
  2.076941e+01    1.208568e+00
  2.078528e+01    1.238594e+00
  2.080116e+01    1.223150e+00
  2.081703e+01    1.227304e+00
  2.083291e+01    1.232762e+00
  2.084878e+01    1.230061e+00
  2.086466e+01    1.228500e+00
  2.088054e+01    1.224180e+00
  2.089641e+01    1.226628e+00
  2.091229e+01    1.221726e+00
  2.092816e+01    1.226328e+00
  2.094404e+01    1.234450e+00
  2.095991e+01    1.196219e+00
  2.097579e+01    1.221776e+00
  2.099166e+01    1.246424e+00
  2.100754e+01    1.238743e+00
  2.102342e+01    1.239103e+00
  2.103929e+01    1.239309e+00
  2.105517e+01    1.225298e+00
  2.107104e+01    1.222939e+00
  2.108692e+01    1.216786e+00
  2.110279e+01    1.207018e+00
  2.111867e+01    1.220374e+00
  2.113455e+01    1.228340e+00
  2.115042e+01    1.220385e+00
  2.116630e+01    1.227688e+00
  2.118217e+01    1.231624e+00
  2.119805e+01    1.235493e+00
  2.121392e+01    1.245872e+00
  2.122980e+01    1.274074e+00
  2.124567e+01    1.261170e+00
  2.126155e+01    1.270974e+00
  2.127743e+01    1.257427e+00
  2.129330e+01    1.275631e+00
  2.130918e+01    1.257602e+00
  2.132505e+01    1.271189e+00
  2.134093e+01    1.296045e+00
  2.135680e+01    1.308433e+00
  2.137268e+01    1.314228e+00
  2.138855e+01    1.323352e+00
  2.140443e+01    1.330209e+00
  2.142031e+01    1.341244e+00
  2.143618e+01    1.357780e+00
  2.145206e+01    1.357090e+00
  2.146793e+01    1.358350e+00
  2.148381e+01    1.379604e+00
  2.149968e+01    1.408641e+00
  2.151556e+01    1.450372e+00
  2.153143e+01    1.480114e+00
  2.154731e+01    1.521023e+00
  2.156319e+01    1.562554e+00
  2.157906e+01    1.603229e+00
  2.159494e+01    1.679052e+00
  2.161081e+01    1.761032e+00
  2.162669e+01    1.891414e+00
  2.164256e+01    2.018293e+00
  2.165844e+01    2.134121e+00
  2.167431e+01    2.308045e+00
  2.169019e+01    2.501351e+00
  2.170607e+01    2.748334e+00
  2.172194e+01    3.085480e+00
  2.173782e+01    3.543034e+00
  2.175369e+01    4.056889e+00
  2.176957e+01    4.602887e+00
  2.178544e+01    5.246423e+00
  2.180132e+01    5.888256e+00
  2.181719e+01    6.496558e+00
  2.183307e+01    7.122691e+00
  2.184895e+01    7.792825e+00
  2.186482e+01    8.293915e+00
  2.188070e+01    8.741627e+00
  2.189657e+01    8.881062e+00
  2.191245e+01    8.689500e+00
  2.192832e+01    8.218618e+00
  2.194420e+01    7.479638e+00
  2.196007e+01    6.572240e+00
  2.197595e+01    5.692300e+00
  2.199183e+01    4.841459e+00
  2.200770e+01    4.154056e+00
  2.202358e+01    3.595808e+00
  2.203945e+01    3.145135e+00
  2.205533e+01    2.820597e+00
  2.207120e+01    2.548365e+00
  2.208708e+01    2.323171e+00
  2.210296e+01    2.153234e+00
  2.211883e+01    1.986621e+00
  2.213471e+01    1.877210e+00
  2.215058e+01    1.773435e+00
  2.216646e+01    1.672467e+00
  2.218233e+01    1.613896e+00
  2.219821e+01    1.539692e+00
  2.221408e+01    1.494422e+00
  2.222996e+01    1.446601e+00
  2.224584e+01    1.413887e+00
  2.226171e+01    1.394493e+00
  2.227759e+01    1.323624e+00
  2.229346e+01    1.315041e+00
  2.230934e+01    1.303717e+00
  2.232521e+01    1.265213e+00
  2.234109e+01    1.243713e+00
  2.235696e+01    1.231777e+00
  2.237284e+01    1.223821e+00
  2.238872e+01    1.196619e+00
  2.240459e+01    1.195437e+00
  2.242047e+01    1.191975e+00
  2.243634e+01    1.193505e+00
  2.245222e+01    1.174586e+00
  2.246809e+01    1.170812e+00
  2.248397e+01    1.156891e+00
  2.249984e+01    1.154306e+00
  2.251572e+01    1.148294e+00
  2.253160e+01    1.148004e+00
  2.254747e+01    1.141352e+00
  2.256335e+01    1.130221e+00
  2.257922e+01    1.108224e+00
  2.259510e+01    1.093516e+00
  2.261097e+01    1.113060e+00
  2.262685e+01    1.122448e+00
  2.264272e+01    1.099093e+00
  2.265860e+01    1.110661e+00
  2.267448e+01    1.086911e+00
  2.269035e+01    1.087102e+00
  2.270623e+01    1.073753e+00
  2.272210e+01    1.078747e+00
  2.273798e+01    1.059682e+00
  2.275385e+01    1.071523e+00
  2.276973e+01    1.089360e+00
  2.278560e+01    1.078166e+00
  2.280148e+01    1.069833e+00
  2.281736e+01    1.063734e+00
  2.283323e+01    1.063786e+00
  2.284911e+01    1.051378e+00
  2.286498e+01    1.047524e+00
  2.288086e+01    1.026086e+00
  2.289673e+01    1.040293e+00
  2.291261e+01    1.019491e+00
  2.292848e+01    1.032406e+00
  2.294436e+01    1.038466e+00
  2.296024e+01    1.039513e+00
  2.297611e+01    1.047614e+00
  2.299199e+01    1.029444e+00
  2.300786e+01    1.024673e+00
  2.302374e+01    1.026204e+00
  2.303961e+01    1.041498e+00
  2.305549e+01    1.030110e+00
  2.307137e+01    1.003517e+00
  2.308724e+01    1.021281e+00
  2.310312e+01    1.020128e+00
  2.311899e+01    1.006987e+00
  2.313487e+01    1.016283e+00
  2.315074e+01    1.010788e+00
  2.316662e+01    9.907212e-01
  2.318249e+01    1.008174e+00
  2.319837e+01    1.004601e+00
  2.321425e+01    9.864132e-01
  2.323012e+01    9.844891e-01
  2.324600e+01    9.819343e-01
  2.326187e+01    9.815134e-01
  2.327775e+01    9.874057e-01
  2.329362e+01    9.955931e-01
  2.330950e+01    1.000487e+00
  2.332537e+01    9.795476e-01
  2.334125e+01    9.931636e-01
  2.335713e+01    9.732690e-01
  2.337300e+01    9.772510e-01
  2.338888e+01    9.838772e-01
  2.340475e+01    9.995603e-01
  2.342063e+01    9.827657e-01
  2.343650e+01    9.770333e-01
  2.345238e+01    9.772131e-01
  2.346825e+01    9.659574e-01
  2.348413e+01    9.709222e-01
  2.350001e+01    9.494423e-01
  2.351588e+01    9.684585e-01
  2.353176e+01    9.783167e-01
  2.354763e+01    9.552299e-01
  2.356351e+01    9.572334e-01
  2.357938e+01    9.521505e-01
  2.359526e+01    9.462170e-01
  2.361113e+01    9.625543e-01
  2.362701e+01    9.720649e-01
  2.364289e+01    9.706500e-01
  2.365876e+01    9.507384e-01
  2.367464e+01    9.128503e-01
  2.369051e+01    9.222684e-01
  2.370639e+01    9.471539e-01
  2.372226e+01    9.511735e-01
  2.373814e+01    9.478517e-01
  2.375401e+01    9.414811e-01
  2.376989e+01    9.343907e-01
  2.378577e+01    9.349267e-01
  2.380164e+01    9.330077e-01
  2.381752e+01    9.161763e-01
  2.383339e+01    9.160725e-01
  2.384927e+01    9.227128e-01
  2.386514e+01    9.206017e-01
  2.388102e+01    9.169123e-01
  2.389689e+01    9.008232e-01
  2.391277e+01    9.066983e-01
  2.392865e+01    8.909599e-01
  2.394452e+01    8.798261e-01
  2.396040e+01    9.084942e-01
  2.397627e+01    9.024925e-01
  2.399215e+01    9.045585e-01
  2.400802e+01    9.045900e-01
  2.402390e+01    8.966924e-01
  2.403978e+01    9.028439e-01
  2.405565e+01    8.941542e-01
  2.407153e+01    8.876576e-01
  2.408740e+01    8.843417e-01
  2.410328e+01    8.848442e-01
  2.411915e+01    8.959235e-01
  2.413503e+01    9.265368e-01
  2.415090e+01    8.930517e-01
  2.416678e+01    8.699718e-01
  2.418266e+01    8.825064e-01
  2.419853e+01    8.993783e-01
  2.421441e+01    8.945749e-01
  2.423028e+01    8.690459e-01
  2.424616e+01    8.828748e-01
  2.426203e+01    8.847183e-01
  2.427791e+01    9.038865e-01
  2.429378e+01    8.760262e-01
  2.430966e+01    8.779107e-01
  2.432554e+01    8.831757e-01
  2.434141e+01    8.741746e-01
  2.435729e+01    8.850375e-01
  2.437316e+01    8.924153e-01
  2.438904e+01    8.927152e-01
  2.440491e+01    8.897911e-01
  2.442079e+01    8.667797e-01
  2.443666e+01    8.925182e-01
  2.445254e+01    9.112499e-01
  2.446842e+01    8.989542e-01
  2.448429e+01    9.141227e-01
  2.450017e+01    8.850744e-01
  2.451604e+01    8.833516e-01
  2.453192e+01    8.984615e-01
  2.454779e+01    8.932900e-01
  2.456367e+01    8.882774e-01
  2.457954e+01    9.121290e-01
  2.459542e+01    8.907141e-01
  2.461130e+01    8.832527e-01
  2.462717e+01    8.995540e-01
  2.464305e+01    8.915835e-01
  2.465892e+01    8.930880e-01
  2.467480e+01    8.784258e-01
  2.469067e+01    8.957427e-01
  2.470655e+01    8.902479e-01
  2.472242e+01    8.978643e-01
  2.473830e+01    9.127225e-01
  2.475418e+01    9.117801e-01
  2.477005e+01    9.174840e-01
  2.478593e+01    9.109551e-01
  2.480180e+01    8.937827e-01
  2.481768e+01    9.076083e-01
  2.483355e+01    9.016324e-01
  2.484943e+01    8.921186e-01
  2.486530e+01    8.963034e-01
  2.488118e+01    8.852766e-01
  2.489706e+01    8.718698e-01
  2.491293e+01    8.772987e-01
  2.492881e+01    9.131600e-01
  2.494468e+01    8.953224e-01
  2.496056e+01    8.859571e-01
  2.497643e+01    9.022827e-01
  2.499231e+01    8.971455e-01
  2.500819e+01    8.922183e-01
  2.502406e+01    9.131649e-01
  2.503994e+01    9.023665e-01
  2.505581e+01    9.016095e-01
  2.507169e+01    9.078436e-01
  2.508756e+01    9.048916e-01
  2.510344e+01    9.149452e-01
  2.511931e+01    8.985154e-01
  2.513519e+01    8.886837e-01
  2.515107e+01    8.991554e-01
  2.516694e+01    9.074609e-01
  2.518282e+01    9.160385e-01
  2.519869e+01    9.177327e-01
  2.521457e+01    9.218532e-01
  2.523044e+01    9.563026e-01
  2.524632e+01    9.398764e-01
  2.526219e+01    9.260878e-01
  2.527807e+01    9.449118e-01
  2.529395e+01    9.300608e-01
  2.530982e+01    9.678196e-01
  2.532570e+01    9.582162e-01
  2.534157e+01    9.638057e-01
  2.535745e+01    9.653931e-01
  2.537332e+01    9.709662e-01
  2.538920e+01    9.811471e-01
  2.540507e+01    1.005283e+00
  2.542095e+01    9.891532e-01
  2.543683e+01    1.029921e+00
  2.545270e+01    1.007065e+00
  2.546858e+01    1.024541e+00
  2.548445e+01    1.036693e+00
  2.550033e+01    1.030290e+00
  2.551620e+01    1.027713e+00
  2.553208e+01    1.085196e+00
  2.554795e+01    1.120561e+00
  2.556383e+01    1.130823e+00
  2.557971e+01    1.132336e+00
  2.559558e+01    1.181114e+00
  2.561146e+01    1.198513e+00
  2.562733e+01    1.259277e+00
  2.564321e+01    1.286817e+00
  2.565908e+01    1.351216e+00
  2.567496e+01    1.424792e+00
  2.569083e+01    1.506716e+00
  2.570671e+01    1.606888e+00
  2.572259e+01    1.709197e+00
  2.573846e+01    1.843891e+00
  2.575434e+01    2.014138e+00
  2.577021e+01    2.225135e+00
  2.578609e+01    2.485671e+00
  2.580196e+01    2.766751e+00
  2.581784e+01    3.171650e+00
  2.583371e+01    3.653501e+00
  2.584959e+01    4.174051e+00
  2.586547e+01    4.673063e+00
  2.588134e+01    5.255998e+00
  2.589722e+01    5.829232e+00
  2.591309e+01    6.343100e+00
  2.592897e+01    6.776868e+00
  2.594484e+01    6.973685e+00
  2.596072e+01    7.105105e+00
  2.597660e+01    6.984429e+00
  2.599247e+01    6.494478e+00
  2.600835e+01    5.914180e+00
  2.602422e+01    5.284971e+00
  2.604010e+01    4.601144e+00
  2.605597e+01    3.957771e+00
  2.607185e+01    3.407974e+00
  2.608772e+01    2.988011e+00
  2.610360e+01    2.662511e+00
  2.611948e+01    2.328805e+00
  2.613535e+01    2.133570e+00
  2.615123e+01    1.942752e+00
  2.616710e+01    1.798382e+00
  2.618298e+01    1.641798e+00
  2.619885e+01    1.527927e+00
  2.621473e+01    1.452663e+00
  2.623060e+01    1.396190e+00
  2.624648e+01    1.328352e+00
  2.626236e+01    1.289766e+00
  2.627823e+01    1.269088e+00
  2.629411e+01    1.219628e+00
  2.630998e+01    1.195189e+00
  2.632586e+01    1.137596e+00
  2.634173e+01    1.123615e+00
  2.635761e+01    1.104469e+00
  2.637348e+01    1.076636e+00
  2.638936e+01    1.051619e+00
  2.640524e+01    1.064553e+00
  2.642111e+01    1.023664e+00
  2.643699e+01    1.038424e+00
  2.645286e+01    1.043789e+00
  2.646874e+01    1.034133e+00
  2.648461e+01    1.018831e+00
  2.650049e+01    9.980969e-01
  2.651636e+01    1.006872e+00
  2.653224e+01    1.024979e+00
  2.654812e+01    1.000769e+00
  2.656399e+01    9.963714e-01
  2.657987e+01    9.805984e-01
  2.659574e+01    9.818687e-01
  2.661162e+01    9.741633e-01
  2.662749e+01    9.783905e-01
  2.664337e+01    9.712187e-01
  2.665924e+01    9.764975e-01
  2.667512e+01    9.642483e-01
  2.669100e+01    9.591354e-01
  2.670687e+01    9.698136e-01
  2.672275e+01    9.726954e-01
  2.673862e+01    9.532664e-01
  2.675450e+01    9.546278e-01
  2.677037e+01    9.614297e-01
  2.678625e+01    9.733358e-01
  2.680212e+01    9.621155e-01
  2.681800e+01    9.599259e-01
  2.683388e+01    9.562402e-01
  2.684975e+01    9.665992e-01
  2.686563e+01    1.001806e+00
  2.688150e+01    9.937883e-01
  2.689738e+01    9.927592e-01
  2.691325e+01    1.014161e+00
  2.692913e+01    1.024470e+00
  2.694501e+01    1.027156e+00
  2.696088e+01    1.011057e+00
  2.697676e+01    1.035311e+00
  2.699263e+01    1.089506e+00
  2.700851e+01    1.111936e+00
  2.702438e+01    1.168532e+00
  2.704026e+01    1.198128e+00
  2.705613e+01    1.240047e+00
  2.707201e+01    1.332074e+00
  2.708789e+01    1.392500e+00
  2.710376e+01    1.451802e+00
  2.711964e+01    1.588230e+00
  2.713551e+01    1.717521e+00
  2.715139e+01    1.856748e+00
  2.716726e+01    1.926240e+00
  2.718314e+01    2.053097e+00
  2.719901e+01    2.164082e+00
  2.721489e+01    2.172418e+00
  2.723077e+01    2.152425e+00
  2.724664e+01    2.071167e+00
  2.726252e+01    1.950482e+00
  2.727839e+01    1.818262e+00
  2.729427e+01    1.693989e+00
  2.731014e+01    1.573172e+00
  2.732602e+01    1.427064e+00
  2.734189e+01    1.353390e+00
  2.735777e+01    1.293074e+00
  2.737365e+01    1.223176e+00
  2.738952e+01    1.176015e+00
  2.740540e+01    1.095123e+00
  2.742127e+01    1.066771e+00
  2.743715e+01    1.070023e+00
  2.745302e+01    1.055515e+00
  2.746890e+01    9.998512e-01
  2.748477e+01    9.913782e-01
  2.750065e+01    9.826893e-01
  2.751653e+01    9.757943e-01
  2.753240e+01    9.543489e-01
  2.754828e+01    9.492720e-01
  2.756415e+01    9.417934e-01
  2.758003e+01    9.519321e-01
  2.759590e+01    9.379029e-01
  2.761178e+01    9.313960e-01
  2.762765e+01    9.502701e-01
  2.764353e+01    9.226786e-01
  2.765941e+01    9.114824e-01
  2.767528e+01    9.024845e-01
  2.769116e+01    9.296035e-01
  2.770703e+01    8.903856e-01
  2.772291e+01    8.689204e-01
  2.773878e+01    8.868691e-01
  2.775466e+01    8.780361e-01
  2.777054e+01    8.857529e-01
  2.778641e+01    8.932549e-01
  2.780229e+01    8.821878e-01
  2.781816e+01    8.945527e-01
  2.783404e+01    8.775337e-01
  2.784991e+01    8.847158e-01
  2.786579e+01    8.904371e-01
  2.788166e+01    8.921061e-01
  2.789754e+01    8.963611e-01
  2.791342e+01    8.874922e-01
  2.792929e+01    8.554252e-01
  2.794517e+01    8.764712e-01
  2.796104e+01    8.566914e-01
  2.797692e+01    8.679890e-01
  2.799279e+01    8.920502e-01
  2.800867e+01    8.696945e-01
  2.802454e+01    8.570628e-01
  2.804042e+01    8.550428e-01
  2.805630e+01    8.691431e-01
  2.807217e+01    8.636510e-01
  2.808805e+01    8.592294e-01
  2.810392e+01    8.578590e-01
  2.811980e+01    8.450576e-01
  2.813567e+01    8.503259e-01
  2.815155e+01    8.489273e-01
  2.816742e+01    8.631588e-01
  2.818330e+01    8.549007e-01
  2.819918e+01    8.595589e-01
  2.821505e+01    8.655643e-01
  2.823093e+01    8.560302e-01
  2.824680e+01    8.684320e-01
  2.826268e+01    8.510632e-01
  2.827855e+01    8.471032e-01
  2.829443e+01    8.370717e-01
  2.831030e+01    8.361978e-01
  2.832618e+01    8.572810e-01
  2.834206e+01    8.718026e-01
  2.835793e+01    8.604083e-01
  2.837381e+01    8.538700e-01
  2.838968e+01    8.524951e-01
  2.840556e+01    8.477286e-01
  2.842143e+01    8.544439e-01
  2.843731e+01    8.594358e-01
  2.845318e+01    8.550594e-01
  2.846906e+01    8.627279e-01
  2.848494e+01    8.610588e-01
  2.850081e+01    8.320950e-01
  2.851669e+01    8.349498e-01
  2.853256e+01    8.382630e-01
  2.854844e+01    8.500677e-01
  2.856431e+01    8.252697e-01
  2.858019e+01    8.422525e-01
  2.859606e+01    8.384317e-01
  2.861194e+01    8.204073e-01
  2.862782e+01    8.233336e-01
  2.864369e+01    8.341896e-01
  2.865957e+01    8.388091e-01
  2.867544e+01    8.191610e-01
  2.869132e+01    8.323963e-01
  2.870719e+01    8.183374e-01
  2.872307e+01    8.222098e-01
  2.873895e+01    8.271425e-01
  2.875482e+01    8.125485e-01
  2.877070e+01    8.206419e-01
  2.878657e+01    8.282986e-01
  2.880245e+01    8.216348e-01
  2.881832e+01    8.105453e-01
  2.883420e+01    8.247631e-01
  2.885007e+01    8.300325e-01
  2.886595e+01    8.281076e-01
  2.888183e+01    8.058836e-01
  2.889770e+01    8.220055e-01
  2.891358e+01    8.160362e-01
  2.892945e+01    8.212894e-01
  2.894533e+01    8.346852e-01
  2.896120e+01    8.305700e-01
  2.897708e+01    8.277812e-01
  2.899295e+01    8.082414e-01
  2.900883e+01    8.008398e-01
  2.902471e+01    8.027676e-01
  2.904058e+01    8.097997e-01
  2.905646e+01    8.161672e-01
  2.907233e+01    8.050468e-01
  2.908821e+01    7.879440e-01
  2.910408e+01    8.092301e-01
  2.911996e+01    8.222681e-01
  2.913583e+01    8.252119e-01
  2.915171e+01    8.151114e-01
  2.916759e+01    7.993304e-01
  2.918346e+01    7.936862e-01
  2.919934e+01    8.095320e-01
  2.921521e+01    8.326821e-01
  2.923109e+01    8.444703e-01
  2.924696e+01    8.273508e-01
  2.926284e+01    8.110851e-01
  2.927871e+01    8.073921e-01
  2.929459e+01    8.194496e-01
  2.931047e+01    8.006720e-01
  2.932634e+01    8.122279e-01
  2.934222e+01    8.130009e-01
  2.935809e+01    8.174709e-01
  2.937397e+01    7.996486e-01
  2.938984e+01    8.108767e-01
  2.940572e+01    8.281598e-01
  2.942159e+01    8.082435e-01
  2.943747e+01    8.205845e-01
  2.945335e+01    8.258276e-01
  2.946922e+01    8.119392e-01
  2.948510e+01    8.093714e-01
  2.950097e+01    7.863230e-01
  2.951685e+01    7.871895e-01
  2.953272e+01    7.905540e-01
  2.954860e+01    8.082036e-01
  2.956447e+01    8.055816e-01
  2.958035e+01    8.146130e-01
  2.959623e+01    8.282685e-01
  2.961210e+01    7.978684e-01
  2.962798e+01    8.089115e-01
  2.964385e+01    8.182037e-01
  2.965973e+01    7.855425e-01
  2.967560e+01    7.833439e-01
  2.969148e+01    7.844017e-01
  2.970736e+01    7.876194e-01
  2.972323e+01    8.048408e-01
  2.973911e+01    7.824298e-01
  2.975498e+01    8.005382e-01
  2.977086e+01    8.006586e-01
  2.978673e+01    7.985064e-01
  2.980261e+01    7.964867e-01
  2.981848e+01    8.054810e-01
  2.983436e+01    8.024778e-01
  2.985024e+01    7.870235e-01
  2.986611e+01    7.872527e-01
  2.988199e+01    7.911577e-01
  2.989786e+01    8.070325e-01
  2.991374e+01    7.947243e-01
  2.992961e+01    8.078544e-01
  2.994549e+01    8.269727e-01
  2.996136e+01    8.025325e-01
  2.997724e+01    8.043866e-01
  2.999312e+01    7.876066e-01
  3.000899e+01    7.952014e-01
  3.002487e+01    8.028021e-01
  3.004074e+01    8.306000e-01
  3.005662e+01    8.141565e-01
  3.007249e+01    8.084154e-01
  3.008837e+01    8.048783e-01
  3.010424e+01    7.918289e-01
  3.012012e+01    7.928749e-01
  3.013600e+01    7.863653e-01
  3.015187e+01    7.784735e-01
  3.016775e+01    7.847457e-01
  3.018362e+01    7.863489e-01
  3.019950e+01    7.981239e-01
  3.021537e+01    7.628549e-01
  3.023125e+01    7.837914e-01
  3.024712e+01    7.940691e-01
  3.026300e+01    7.822217e-01
  3.027888e+01    7.863936e-01
  3.029475e+01    7.838911e-01
  3.031063e+01    7.926440e-01
  3.032650e+01    7.963743e-01
  3.034238e+01    8.083305e-01
  3.035825e+01    7.978990e-01
  3.037413e+01    7.632421e-01
  3.039000e+01    7.670582e-01
  3.040588e+01    8.003243e-01
  3.042176e+01    7.947499e-01
  3.043763e+01    7.928023e-01
  3.045351e+01    7.673050e-01
  3.046938e+01    7.789465e-01
  3.048526e+01    7.950100e-01
  3.050113e+01    8.043420e-01
  3.051701e+01    8.267599e-01
  3.053288e+01    7.892011e-01
  3.054876e+01    7.693323e-01
  3.056464e+01    7.584022e-01
  3.058051e+01    7.845235e-01
  3.059639e+01    7.863439e-01
  3.061226e+01    7.761136e-01
  3.062814e+01    7.794036e-01
  3.064401e+01    7.758991e-01
  3.065989e+01    7.735097e-01
  3.067577e+01    7.704990e-01
  3.069164e+01    7.775058e-01
  3.070752e+01    7.993953e-01
  3.072339e+01    7.746633e-01
  3.073927e+01    7.760842e-01
  3.075514e+01    7.796046e-01
  3.077102e+01    7.921966e-01
  3.078689e+01    7.789660e-01
  3.080277e+01    7.875035e-01
  3.081865e+01    8.053488e-01
  3.083452e+01    7.886541e-01
  3.085040e+01    7.803898e-01
  3.086627e+01    7.794202e-01
  3.088215e+01    8.039697e-01
  3.089802e+01    7.864676e-01
  3.091390e+01    7.853104e-01
  3.092977e+01    7.829375e-01
  3.094565e+01    7.733160e-01
  3.096153e+01    7.910164e-01
  3.097740e+01    7.982474e-01
  3.099328e+01    7.801694e-01
  3.100915e+01    7.839168e-01
  3.102503e+01    7.847806e-01
  3.104090e+01    7.844097e-01
  3.105678e+01    7.738153e-01
  3.107265e+01    7.759378e-01
  3.108853e+01    7.806786e-01
  3.110441e+01    7.730683e-01
  3.112028e+01    7.878891e-01
  3.113616e+01    8.022826e-01
  3.115203e+01    7.814058e-01
  3.116791e+01    7.737687e-01
  3.118378e+01    7.921856e-01
  3.119966e+01    8.190525e-01
  3.121553e+01    8.094836e-01
  3.123141e+01    7.672243e-01
  3.124729e+01    7.830659e-01
  3.126316e+01    8.235504e-01
  3.127904e+01    8.224589e-01
  3.129491e+01    8.025816e-01
  3.131079e+01    7.951860e-01
  3.132666e+01    8.011336e-01
  3.134254e+01    8.097240e-01
  3.135841e+01    7.932436e-01
  3.137429e+01    8.031841e-01
  3.139017e+01    8.016840e-01
  3.140604e+01    7.914140e-01
  3.142192e+01    8.150465e-01
  3.143779e+01    8.186700e-01
  3.145367e+01    8.100992e-01
  3.146954e+01    8.209592e-01
  3.148542e+01    8.090983e-01
  3.150129e+01    8.160524e-01
  3.151717e+01    8.252723e-01
  3.153305e+01    8.401713e-01
  3.154892e+01    8.577412e-01
  3.156480e+01    8.776923e-01
  3.158067e+01    8.822262e-01
  3.159655e+01    8.737101e-01
  3.161242e+01    8.829005e-01
  3.162830e+01    8.929221e-01
  3.164418e+01    9.077523e-01
  3.166005e+01    9.435964e-01
  3.167593e+01    9.550310e-01
  3.169180e+01    9.948654e-01
  3.170768e+01    1.007262e+00
  3.172355e+01    1.044436e+00
  3.173943e+01    1.125106e+00
  3.175530e+01    1.171705e+00
  3.177118e+01    1.251387e+00
  3.178706e+01    1.348284e+00
  3.180293e+01    1.433555e+00
  3.181881e+01    1.575548e+00
  3.183468e+01    1.703141e+00
  3.185056e+01    1.821416e+00
  3.186643e+01    1.990986e+00
  3.188231e+01    2.029145e+00
  3.189818e+01    2.085910e+00
  3.191406e+01    2.082308e+00
  3.192994e+01    2.043000e+00
  3.194581e+01    1.932120e+00
  3.196169e+01    1.793105e+00
  3.197756e+01    1.646566e+00
  3.199344e+01    1.536639e+00
  3.200931e+01    1.398273e+00
  3.202519e+01    1.302126e+00
  3.204106e+01    1.216064e+00
  3.205694e+01    1.182224e+00
  3.207282e+01    1.091845e+00
  3.208869e+01    1.044820e+00
  3.210457e+01    1.011152e+00
  3.212044e+01    9.805125e-01
  3.213632e+01    9.382309e-01
  3.215219e+01    9.097487e-01
  3.216807e+01    9.015378e-01
  3.218394e+01    8.678375e-01
  3.219982e+01    8.569084e-01
  3.221570e+01    8.552429e-01
  3.223157e+01    8.632380e-01
  3.224745e+01    8.573638e-01
  3.226332e+01    8.390397e-01
  3.227920e+01    8.308810e-01
  3.229507e+01    8.026081e-01
  3.231095e+01    8.052440e-01
  3.232682e+01    8.011392e-01
  3.234270e+01    7.908026e-01
  3.235858e+01    8.071083e-01
  3.237445e+01    7.994536e-01
  3.239033e+01    8.044330e-01
  3.240620e+01    8.022528e-01
  3.242208e+01    7.840970e-01
  3.243795e+01    7.657331e-01
  3.245383e+01    7.794530e-01
  3.246970e+01    7.825269e-01
  3.248558e+01    7.760414e-01
  3.250146e+01    7.652830e-01
  3.251733e+01    7.868144e-01
  3.253321e+01    7.784908e-01
  3.254908e+01    7.810875e-01
