# == pyFAI calibration ==
# Distance Sample to Detector: 0.3999999939076516 m
# PONI: 9.750e-02, 1.135e-01 m
# Rotations: -0.000175 0.000000 -0.000000 rad
# 
# == Fit2d calibration ==
# Distance Sample-beamCenter: 400.000 mm
# Center: x=1514.000, y=1300.000 pix
# Tilt: 0.010 deg  TiltPlanRot: 0.010 deg
# 
# Detector Detector	 Spline= None	 PixelSize= 7.500e-05, 7.500e-05 m
#    Detector has a mask: False 
#    Detector has a dark current: False 
#    detector has a flat field: False 
# 
# Wavelength: 6.888e-11 m
# Mask applied: user provided
# Dark current applied: False
# Flat field applied: False
# Polarization factor: 0.99
# Normalization factor: 1.0
# --> /home/myspot/data/2024_07_Rosario/Ru-CGO-ex/2024-07-27_003_Ru-CGO-ex_Reaction_dwell_000023_data_000163.dat
#       q_nm^-1             I 
  2.003187e-02    0.000000e+00
  3.590745e-02    0.000000e+00
  5.178302e-02    0.000000e+00
  6.765859e-02    1.985621e-02
  8.353417e-02    4.769114e-02
  9.940974e-02    1.617768e-03
  1.152853e-01    3.333501e-02
  1.311609e-01    1.358899e-02
  1.470365e-01    6.892544e-03
  1.629120e-01    6.728602e-02
  1.787876e-01    4.956254e-02
  1.946632e-01    1.009009e-02
  2.105388e-01    9.023072e-03
  2.264143e-01    3.620775e-02
  2.422899e-01    7.470890e-02
  2.581655e-01    8.100593e-02
  2.740411e-01    4.104944e-02
  2.899166e-01    5.483626e-02
  3.057922e-01    5.639615e-02
  3.216678e-01    8.545503e-02
  3.375433e-01    5.358303e-02
  3.534189e-01    2.401813e-02
  3.692945e-01    2.367870e-02
  3.851701e-01    3.781564e-02
  4.010456e-01    6.094348e-02
  4.169212e-01    6.306070e-02
  4.327968e-01    3.408083e-02
  4.486724e-01    4.237295e-02
  4.645479e-01    5.232560e-02
  4.804235e-01    3.489894e-02
  4.962991e-01    3.170688e-02
  5.121747e-01    3.904053e-02
  5.280502e-01    3.754102e-02
  5.439258e-01    2.091053e-02
  5.598014e-01    3.101913e-02
  5.756770e-01    2.829490e-02
  5.915525e-01    2.849894e-02
  6.074281e-01    5.824175e-02
  6.233037e-01    3.951440e-02
  6.391793e-01    4.117268e-02
  6.550548e-01    5.044764e-02
  6.709304e-01    3.633638e-02
  6.868060e-01    1.891202e-02
  7.026815e-01    2.976781e-02
  7.185571e-01    3.770263e-02
  7.344327e-01    5.194494e-02
  7.503083e-01    4.430114e-02
  7.661838e-01    8.195625e-02
  7.820594e-01    1.211913e-01
  7.979350e-01    1.771615e-01
  8.138106e-01    1.779404e-01
  8.296861e-01    2.548509e-01
  8.455617e-01    3.248327e-01
  8.614373e-01    3.829941e-01
  8.773129e-01    5.249045e-01
  8.931884e-01    6.580193e-01
  9.090640e-01    6.674820e-01
  9.249396e-01    7.194207e-01
  9.408152e-01    7.781925e-01
  9.566907e-01    8.750251e-01
  9.725663e-01    9.230465e-01
  9.884419e-01    1.154607e+00
  1.004317e+00    1.154041e+00
  1.020193e+00    1.186214e+00
  1.036069e+00    1.383299e+00
  1.051944e+00    1.452569e+00
  1.067820e+00    1.463223e+00
  1.083695e+00    1.520869e+00
  1.099571e+00    1.648674e+00
  1.115446e+00    1.538030e+00
  1.131322e+00    1.524099e+00
  1.147198e+00    1.668268e+00
  1.163073e+00    1.622348e+00
  1.178949e+00    1.639985e+00
  1.194824e+00    1.678946e+00
  1.210700e+00    2.028856e+00
  1.226575e+00    2.228916e+00
  1.242451e+00    2.373525e+00
  1.258327e+00    2.551032e+00
  1.274202e+00    2.625609e+00
  1.290078e+00    2.662019e+00
  1.305953e+00    2.672518e+00
  1.321829e+00    2.894003e+00
  1.337705e+00    2.894559e+00
  1.353580e+00    2.756088e+00
  1.369456e+00    2.816603e+00
  1.385331e+00    2.943956e+00
  1.401207e+00    2.925027e+00
  1.417082e+00    2.937898e+00
  1.432958e+00    3.002308e+00
  1.448834e+00    2.898732e+00
  1.464709e+00    2.959283e+00
  1.480585e+00    2.994135e+00
  1.496460e+00    2.980252e+00
  1.512336e+00    3.076528e+00
  1.528211e+00    3.128165e+00
  1.544087e+00    3.169939e+00
  1.559963e+00    3.135069e+00
  1.575838e+00    3.094976e+00
  1.591714e+00    3.131466e+00
  1.607589e+00    3.136275e+00
  1.623465e+00    3.102540e+00
  1.639340e+00    3.151196e+00
  1.655216e+00    3.185270e+00
  1.671092e+00    3.080213e+00
  1.686967e+00    2.995690e+00
  1.702843e+00    3.069539e+00
  1.718718e+00    3.033356e+00
  1.734594e+00    2.998238e+00
  1.750469e+00    3.077704e+00
  1.766345e+00    3.033045e+00
  1.782221e+00    3.029534e+00
  1.798096e+00    3.075946e+00
  1.813972e+00    3.034182e+00
  1.829847e+00    2.938970e+00
  1.845723e+00    3.042612e+00
  1.861598e+00    3.183547e+00
  1.877474e+00    3.098610e+00
  1.893350e+00    3.188476e+00
  1.909225e+00    3.063674e+00
  1.925101e+00    3.150380e+00
  1.940976e+00    3.046306e+00
  1.956852e+00    3.053268e+00
  1.972727e+00    3.065371e+00
  1.988603e+00    3.047588e+00
  2.004479e+00    3.036245e+00
  2.020354e+00    2.994165e+00
  2.036230e+00    2.889246e+00
  2.052105e+00    2.949133e+00
  2.067981e+00    3.074416e+00
  2.083856e+00    3.005922e+00
  2.099732e+00    2.921110e+00
  2.115608e+00    2.965825e+00
  2.131483e+00    3.048518e+00
  2.147359e+00    2.949450e+00
  2.163234e+00    2.988800e+00
  2.179110e+00    2.979890e+00
  2.194985e+00    3.045424e+00
  2.210861e+00    3.087431e+00
  2.226737e+00    3.008752e+00
  2.242612e+00    3.015958e+00
  2.258488e+00    2.990594e+00
  2.274363e+00    3.028875e+00
  2.290239e+00    3.022988e+00
  2.306115e+00    2.987742e+00
  2.321990e+00    2.946528e+00
  2.337866e+00    3.118603e+00
  2.353741e+00    3.185875e+00
  2.369617e+00    3.180939e+00
  2.385492e+00    3.148617e+00
  2.401368e+00    3.043076e+00
  2.417244e+00    3.064575e+00
  2.433119e+00    3.021322e+00
  2.448995e+00    3.154046e+00
  2.464870e+00    3.234152e+00
  2.480746e+00    3.171461e+00
  2.496621e+00    3.215555e+00
  2.512497e+00    3.216070e+00
  2.528373e+00    3.205563e+00
  2.544248e+00    3.116792e+00
  2.560124e+00    3.080794e+00
  2.575999e+00    3.137335e+00
  2.591875e+00    3.064947e+00
  2.607750e+00    3.217461e+00
  2.623626e+00    3.141964e+00
  2.639502e+00    3.206058e+00
  2.655377e+00    3.231474e+00
  2.671253e+00    3.222847e+00
  2.687128e+00    3.154792e+00
  2.703004e+00    3.191528e+00
  2.718879e+00    3.270266e+00
  2.734755e+00    3.272327e+00
  2.750631e+00    3.266439e+00
  2.766506e+00    3.272038e+00
  2.782382e+00    3.278092e+00
  2.798257e+00    3.222980e+00
  2.814133e+00    3.331073e+00
  2.830008e+00    3.270698e+00
  2.845884e+00    3.242756e+00
  2.861760e+00    3.196812e+00
  2.877635e+00    3.291523e+00
  2.893511e+00    3.287558e+00
  2.909386e+00    3.279428e+00
  2.925262e+00    3.263612e+00
  2.941137e+00    3.307067e+00
  2.957013e+00    3.185652e+00
  2.972889e+00    3.231218e+00
  2.988764e+00    3.266353e+00
  3.004640e+00    3.359226e+00
  3.020515e+00    3.304957e+00
  3.036391e+00    3.317250e+00
  3.052266e+00    3.371153e+00
  3.068142e+00    3.380726e+00
  3.084018e+00    3.374486e+00
  3.099893e+00    3.376827e+00
  3.115769e+00    3.406299e+00
  3.131644e+00    3.335540e+00
  3.147520e+00    3.401575e+00
  3.163395e+00    3.303515e+00
  3.179271e+00    3.292456e+00
  3.195147e+00    3.345865e+00
  3.211022e+00    3.330372e+00
  3.226898e+00    3.323728e+00
  3.242773e+00    3.381132e+00
  3.258649e+00    3.415887e+00
  3.274525e+00    3.498564e+00
  3.290400e+00    3.436317e+00
  3.306276e+00    3.455007e+00
  3.322151e+00    3.436204e+00
  3.338027e+00    3.358125e+00
  3.353902e+00    3.349883e+00
  3.369778e+00    3.314533e+00
  3.385654e+00    3.357371e+00
  3.401529e+00    3.413315e+00
  3.417405e+00    3.493570e+00
  3.433280e+00    3.387725e+00
  3.449156e+00    3.380210e+00
  3.465031e+00    3.465334e+00
  3.480907e+00    3.422163e+00
  3.496783e+00    3.356221e+00
  3.512658e+00    3.368436e+00
  3.528534e+00    3.388048e+00
  3.544409e+00    3.414027e+00
  3.560285e+00    3.361456e+00
  3.576160e+00    3.325855e+00
  3.592036e+00    3.290906e+00
  3.607912e+00    3.421018e+00
  3.623787e+00    3.456264e+00
  3.639663e+00    3.457178e+00
  3.655538e+00    3.383081e+00
  3.671414e+00    3.424818e+00
  3.687289e+00    3.473896e+00
  3.703165e+00    3.441470e+00
  3.719041e+00    3.480017e+00
  3.734916e+00    3.473921e+00
  3.750792e+00    3.538957e+00
  3.766667e+00    3.564750e+00
  3.782543e+00    3.565841e+00
  3.798418e+00    3.548316e+00
  3.814294e+00    3.565316e+00
  3.830170e+00    3.604680e+00
  3.846045e+00    3.521954e+00
  3.861921e+00    3.466681e+00
  3.877796e+00    3.465160e+00
  3.893672e+00    3.463136e+00
  3.909547e+00    3.523026e+00
  3.925423e+00    3.508923e+00
  3.941299e+00    3.573549e+00
  3.957174e+00    3.427707e+00
  3.973050e+00    3.430251e+00
  3.988925e+00    3.482641e+00
  4.004801e+00    3.479797e+00
  4.020676e+00    3.534337e+00
  4.036552e+00    3.629851e+00
  4.052428e+00    3.530177e+00
  4.068303e+00    3.440812e+00
  4.084179e+00    3.486957e+00
  4.100054e+00    3.580947e+00
  4.115930e+00    3.514464e+00
  4.131806e+00    3.505464e+00
  4.147681e+00    3.500239e+00
  4.163557e+00    3.595044e+00
  4.179432e+00    3.609720e+00
  4.195308e+00    3.523671e+00
  4.211183e+00    3.567992e+00
  4.227059e+00    3.504168e+00
  4.242935e+00    3.539412e+00
  4.258810e+00    3.606043e+00
  4.274686e+00    3.473500e+00
  4.290561e+00    3.496335e+00
  4.306437e+00    3.630125e+00
  4.322312e+00    3.589521e+00
  4.338188e+00    3.512114e+00
  4.354064e+00    3.498093e+00
  4.369939e+00    3.616386e+00
  4.385815e+00    3.586248e+00
  4.401690e+00    3.581283e+00
  4.417566e+00    3.491521e+00
  4.433441e+00    3.558374e+00
  4.449317e+00    3.552112e+00
  4.465193e+00    3.531537e+00
  4.481068e+00    3.480893e+00
  4.496944e+00    3.547434e+00
  4.512819e+00    3.487415e+00
  4.528695e+00    3.621440e+00
  4.544570e+00    3.672266e+00
  4.560446e+00    3.606221e+00
  4.576322e+00    3.476557e+00
  4.592197e+00    3.588654e+00
  4.608073e+00    3.645008e+00
  4.623948e+00    3.680342e+00
  4.639824e+00    3.671642e+00
  4.655699e+00    3.563828e+00
  4.671575e+00    3.637190e+00
  4.687451e+00    3.577042e+00
  4.703326e+00    3.518885e+00
  4.719202e+00    3.606664e+00
  4.735077e+00    3.690477e+00
  4.750953e+00    3.700079e+00
  4.766828e+00    3.618867e+00
  4.782704e+00    3.558033e+00
  4.798580e+00    3.560207e+00
  4.814455e+00    3.668921e+00
  4.830331e+00    3.654349e+00
  4.846206e+00    3.620441e+00
  4.862082e+00    3.601280e+00
  4.877957e+00    3.555452e+00
  4.893833e+00    3.576296e+00
  4.909709e+00    3.593196e+00
  4.925584e+00    3.635208e+00
  4.941460e+00    3.694001e+00
  4.957335e+00    3.686414e+00
  4.973211e+00    3.652289e+00
  4.989086e+00    3.542638e+00
  5.004962e+00    3.581159e+00
  5.020838e+00    3.547479e+00
  5.036713e+00    3.539994e+00
  5.052589e+00    3.627966e+00
  5.068464e+00    3.611458e+00
  5.084340e+00    3.560374e+00
  5.100216e+00    3.504476e+00
  5.116091e+00    3.602544e+00
  5.131967e+00    3.664897e+00
  5.147842e+00    3.607112e+00
  5.163718e+00    3.645447e+00
  5.179593e+00    3.660147e+00
  5.195469e+00    3.643049e+00
  5.211345e+00    3.565771e+00
  5.227220e+00    3.624609e+00
  5.243096e+00    3.717865e+00
  5.258971e+00    3.706231e+00
  5.274847e+00    3.639179e+00
  5.290722e+00    3.616120e+00
  5.306598e+00    3.595283e+00
  5.322474e+00    3.662401e+00
  5.338349e+00    3.580757e+00
  5.354225e+00    3.705073e+00
  5.370100e+00    3.730316e+00
  5.385976e+00    3.682420e+00
  5.401851e+00    3.691545e+00
  5.417727e+00    3.646207e+00
  5.433603e+00    3.553694e+00
  5.449478e+00    3.587078e+00
  5.465354e+00    3.587419e+00
  5.481229e+00    3.553412e+00
  5.497105e+00    3.576211e+00
  5.512980e+00    3.609484e+00
  5.528856e+00    3.628228e+00
  5.544732e+00    3.583416e+00
  5.560607e+00    3.531250e+00
  5.576483e+00    3.493950e+00
  5.592358e+00    3.549248e+00
  5.608234e+00    3.581563e+00
  5.624109e+00    3.494385e+00
  5.639985e+00    3.459480e+00
  5.655861e+00    3.460282e+00
  5.671736e+00    3.522878e+00
  5.687612e+00    3.484877e+00
  5.703487e+00    3.494436e+00
  5.719363e+00    3.510201e+00
  5.735238e+00    3.570688e+00
  5.751114e+00    3.565347e+00
  5.766990e+00    3.550165e+00
  5.782865e+00    3.548254e+00
  5.798741e+00    3.527136e+00
  5.814616e+00    3.508363e+00
  5.830492e+00    3.566322e+00
  5.846367e+00    3.555146e+00
  5.862243e+00    3.563362e+00
  5.878119e+00    3.670532e+00
  5.893994e+00    3.573241e+00
  5.909870e+00    3.517950e+00
  5.925745e+00    3.523775e+00
  5.941621e+00    3.520902e+00
  5.957497e+00    3.583603e+00
  5.973372e+00    3.555014e+00
  5.989248e+00    3.473178e+00
  6.005123e+00    3.472163e+00
  6.020999e+00    3.473958e+00
  6.036874e+00    3.495022e+00
  6.052750e+00    3.456116e+00
  6.068626e+00    3.468481e+00
  6.084501e+00    3.582251e+00
  6.100377e+00    3.549444e+00
  6.116252e+00    3.466113e+00
  6.132128e+00    3.573972e+00
  6.148003e+00    3.571334e+00
  6.163879e+00    3.565943e+00
  6.179755e+00    3.589718e+00
  6.195630e+00    3.483749e+00
  6.211506e+00    3.494413e+00
  6.227381e+00    3.601379e+00
  6.243257e+00    3.538285e+00
  6.259132e+00    3.586037e+00
  6.275008e+00    3.577282e+00
  6.290884e+00    3.583781e+00
  6.306759e+00    3.580079e+00
  6.322635e+00    3.545257e+00
  6.338510e+00    3.516787e+00
  6.354386e+00    3.467772e+00
  6.370261e+00    3.541297e+00
  6.386137e+00    3.564487e+00
  6.402013e+00    3.591793e+00
  6.417888e+00    3.583451e+00
  6.433764e+00    3.645317e+00
  6.449639e+00    3.559742e+00
  6.465515e+00    3.550171e+00
  6.481390e+00    3.535592e+00
  6.497266e+00    3.554009e+00
  6.513142e+00    3.571544e+00
  6.529017e+00    3.501734e+00
  6.544893e+00    3.476876e+00
  6.560768e+00    3.522412e+00
  6.576644e+00    3.550602e+00
  6.592519e+00    3.451560e+00
  6.608395e+00    3.462615e+00
  6.624271e+00    3.534777e+00
  6.640146e+00    3.497649e+00
  6.656022e+00    3.487107e+00
  6.671897e+00    3.488965e+00
  6.687773e+00    3.522452e+00
  6.703648e+00    3.497518e+00
  6.719524e+00    3.433731e+00
  6.735400e+00    3.511465e+00
  6.751275e+00    3.541692e+00
  6.767151e+00    3.529090e+00
  6.783026e+00    3.522022e+00
  6.798902e+00    3.512843e+00
  6.814777e+00    3.508026e+00
  6.830653e+00    3.558203e+00
  6.846529e+00    3.461324e+00
  6.862404e+00    3.437081e+00
  6.878280e+00    3.461230e+00
  6.894155e+00    3.591797e+00
  6.910031e+00    3.542544e+00
  6.925907e+00    3.562355e+00
  6.941782e+00    3.560474e+00
  6.957658e+00    3.545717e+00
  6.973533e+00    3.560020e+00
  6.989409e+00    3.517935e+00
  7.005284e+00    3.480119e+00
  7.021160e+00    3.484339e+00
  7.037036e+00    3.460469e+00
  7.052911e+00    3.519339e+00
  7.068787e+00    3.474008e+00
  7.084662e+00    3.478522e+00
  7.100538e+00    3.521735e+00
  7.116413e+00    3.518135e+00
  7.132289e+00    3.410763e+00
  7.148165e+00    3.444950e+00
  7.164040e+00    3.514327e+00
  7.179916e+00    3.521052e+00
  7.195791e+00    3.483415e+00
  7.211667e+00    3.510733e+00
  7.227542e+00    3.512655e+00
  7.243418e+00    3.477766e+00
  7.259294e+00    3.454453e+00
  7.275169e+00    3.547328e+00
  7.291045e+00    3.553236e+00
  7.306920e+00    3.434985e+00
  7.322796e+00    3.446753e+00
  7.338671e+00    3.442001e+00
  7.354547e+00    3.528419e+00
  7.370423e+00    3.579936e+00
  7.386298e+00    3.564954e+00
  7.402174e+00    3.510060e+00
  7.418049e+00    3.404092e+00
  7.433925e+00    3.424230e+00
  7.449800e+00    3.466803e+00
  7.465676e+00    3.547374e+00
  7.481552e+00    3.473585e+00
  7.497427e+00    3.472582e+00
  7.513303e+00    3.446280e+00
  7.529178e+00    3.426173e+00
  7.545054e+00    3.469739e+00
  7.560929e+00    3.484894e+00
  7.576805e+00    3.441035e+00
  7.592681e+00    3.387955e+00
  7.608556e+00    3.438846e+00
  7.624432e+00    3.446528e+00
  7.640307e+00    3.447128e+00
  7.656183e+00    3.438850e+00
  7.672058e+00    3.445166e+00
  7.687934e+00    3.417748e+00
  7.703810e+00    3.386066e+00
  7.719685e+00    3.379872e+00
  7.735561e+00    3.350788e+00
  7.751436e+00    3.398093e+00
  7.767312e+00    3.417417e+00
  7.783187e+00    3.481436e+00
  7.799063e+00    3.502074e+00
  7.814939e+00    3.438880e+00
  7.830814e+00    3.305527e+00
  7.846690e+00    3.343472e+00
  7.862565e+00    3.379142e+00
  7.878441e+00    3.415834e+00
  7.894317e+00    3.381633e+00
  7.910192e+00    3.370028e+00
  7.926068e+00    3.344129e+00
  7.941943e+00    3.386151e+00
  7.957819e+00    3.348373e+00
  7.973694e+00    3.304693e+00
  7.989570e+00    3.354906e+00
  8.005446e+00    3.414061e+00
  8.021321e+00    3.383356e+00
  8.037197e+00    3.429910e+00
  8.053072e+00    3.440148e+00
  8.068948e+00    3.470114e+00
  8.084823e+00    3.417460e+00
  8.100699e+00    3.464456e+00
  8.116575e+00    3.446783e+00
  8.132450e+00    3.479600e+00
  8.148326e+00    3.424833e+00
  8.164201e+00    3.449039e+00
  8.180077e+00    3.447421e+00
  8.195952e+00    3.398170e+00
  8.211828e+00    3.459862e+00
  8.227704e+00    3.461639e+00
  8.243579e+00    3.473623e+00
  8.259455e+00    3.361898e+00
  8.275330e+00    3.326249e+00
  8.291206e+00    3.363073e+00
  8.307081e+00    3.402449e+00
  8.322957e+00    3.393817e+00
  8.338833e+00    3.410715e+00
  8.354708e+00    3.360897e+00
  8.370584e+00    3.346159e+00
  8.386459e+00    3.390024e+00
  8.402335e+00    3.346646e+00
  8.418210e+00    3.340373e+00
  8.434086e+00    3.320850e+00
  8.449962e+00    3.344087e+00
  8.465837e+00    3.320051e+00
  8.481713e+00    3.290977e+00
  8.497588e+00    3.335001e+00
  8.513464e+00    3.333550e+00
  8.529339e+00    3.331871e+00
  8.545215e+00    3.328056e+00
  8.561091e+00    3.350318e+00
  8.576966e+00    3.279358e+00
  8.592842e+00    3.316010e+00
  8.608717e+00    3.324969e+00
  8.624593e+00    3.255130e+00
  8.640468e+00    3.290761e+00
  8.656344e+00    3.388372e+00
  8.672220e+00    3.291200e+00
  8.688095e+00    3.310963e+00
  8.703971e+00    3.337096e+00
  8.719846e+00    3.304261e+00
  8.735722e+00    3.292617e+00
  8.751598e+00    3.305694e+00
  8.767473e+00    3.280820e+00
  8.783349e+00    3.278485e+00
  8.799224e+00    3.342396e+00
  8.815100e+00    3.326310e+00
  8.830975e+00    3.283531e+00
  8.846851e+00    3.295458e+00
  8.862727e+00    3.305504e+00
  8.878602e+00    3.296110e+00
  8.894478e+00    3.334040e+00
  8.910353e+00    3.328450e+00
  8.926229e+00    3.294733e+00
  8.942104e+00    3.212508e+00
  8.957980e+00    3.189295e+00
  8.973856e+00    3.193286e+00
  8.989731e+00    3.253104e+00
  9.005607e+00    3.244491e+00
  9.021482e+00    3.243868e+00
  9.037358e+00    3.284030e+00
  9.053233e+00    3.266647e+00
  9.069109e+00    3.308493e+00
  9.084985e+00    3.288639e+00
  9.100860e+00    3.234038e+00
  9.116736e+00    3.243142e+00
  9.132611e+00    3.267512e+00
  9.148487e+00    3.254619e+00
  9.164362e+00    3.239714e+00
  9.180238e+00    3.223077e+00
  9.196114e+00    3.186470e+00
  9.211989e+00    3.188952e+00
  9.227865e+00    3.188626e+00
  9.243740e+00    3.229687e+00
  9.259616e+00    3.223636e+00
  9.275491e+00    3.209946e+00
  9.291367e+00    3.186982e+00
  9.307243e+00    3.263099e+00
  9.323118e+00    3.277706e+00
  9.338994e+00    3.213665e+00
  9.354869e+00    3.126527e+00
  9.370745e+00    3.171968e+00
  9.386620e+00    3.241630e+00
  9.402496e+00    3.240311e+00
  9.418372e+00    3.136453e+00
  9.434247e+00    3.137508e+00
  9.450123e+00    3.159392e+00
  9.465998e+00    3.154522e+00
  9.481874e+00    3.164895e+00
  9.497749e+00    3.171503e+00
  9.513625e+00    3.228313e+00
  9.529501e+00    3.235440e+00
  9.545376e+00    3.209249e+00
  9.561252e+00    3.253190e+00
  9.577127e+00    3.210157e+00
  9.593003e+00    3.202953e+00
  9.608878e+00    3.206548e+00
  9.624754e+00    3.197896e+00
  9.640630e+00    3.201594e+00
  9.656505e+00    3.144780e+00
  9.672381e+00    3.149192e+00
  9.688256e+00    3.192603e+00
  9.704132e+00    3.136841e+00
  9.720008e+00    3.102407e+00
  9.735883e+00    3.159536e+00
  9.751759e+00    3.149351e+00
  9.767634e+00    3.126713e+00
  9.783510e+00    3.064695e+00
  9.799385e+00    3.119695e+00
  9.815261e+00    3.124835e+00
  9.831137e+00    3.149895e+00
  9.847012e+00    3.102377e+00
  9.862888e+00    3.074373e+00
  9.878763e+00    3.066404e+00
  9.894639e+00    3.053257e+00
  9.910514e+00    3.090783e+00
  9.926390e+00    3.154810e+00
  9.942266e+00    3.146332e+00
  9.958141e+00    3.147495e+00
  9.974017e+00    3.084543e+00
  9.989892e+00    3.089370e+00
  1.000577e+01    3.084488e+00
  1.002164e+01    3.066181e+00
  1.003752e+01    3.043715e+00
  1.005339e+01    3.046415e+00
  1.006927e+01    3.074351e+00
  1.008515e+01    3.047894e+00
  1.010102e+01    3.034871e+00
  1.011690e+01    3.098170e+00
  1.013277e+01    3.076889e+00
  1.014865e+01    3.034905e+00
  1.016452e+01    3.005528e+00
  1.018040e+01    3.035491e+00
  1.019627e+01    2.990223e+00
  1.021215e+01    3.033841e+00
  1.022803e+01    3.016272e+00
  1.024390e+01    3.020520e+00
  1.025978e+01    3.064275e+00
  1.027565e+01    3.112276e+00
  1.029153e+01    3.077821e+00
  1.030740e+01    2.982552e+00
  1.032328e+01    3.001954e+00
  1.033915e+01    3.020019e+00
  1.035503e+01    3.077203e+00
  1.037091e+01    3.070741e+00
  1.038678e+01    2.975512e+00
  1.040266e+01    2.941298e+00
  1.041853e+01    2.968404e+00
  1.043441e+01    3.033085e+00
  1.045028e+01    3.051058e+00
  1.046616e+01    3.073449e+00
  1.048204e+01    3.022807e+00
  1.049791e+01    2.998986e+00
  1.051379e+01    2.983100e+00
  1.052966e+01    2.930734e+00
  1.054554e+01    3.029773e+00
  1.056141e+01    3.052279e+00
  1.057729e+01    3.037884e+00
  1.059316e+01    3.005129e+00
  1.060904e+01    2.991759e+00
  1.062492e+01    2.966149e+00
  1.064079e+01    2.981982e+00
  1.065667e+01    2.996943e+00
  1.067254e+01    2.938976e+00
  1.068842e+01    2.948359e+00
  1.070429e+01    2.968343e+00
  1.072017e+01    2.963930e+00
  1.073604e+01    2.955122e+00
  1.075192e+01    2.931386e+00
  1.076780e+01    2.929642e+00
  1.078367e+01    2.935194e+00
  1.079955e+01    2.919825e+00
  1.081542e+01    2.940949e+00
  1.083130e+01    2.909172e+00
  1.084717e+01    2.934208e+00
  1.086305e+01    2.950729e+00
  1.087892e+01    2.907623e+00
  1.089480e+01    2.862980e+00
  1.091068e+01    2.898786e+00
  1.092655e+01    2.916899e+00
  1.094243e+01    2.907575e+00
  1.095830e+01    2.855227e+00
  1.097418e+01    2.864561e+00
  1.099005e+01    2.922959e+00
  1.100593e+01    2.920666e+00
  1.102180e+01    2.864735e+00
  1.103768e+01    2.866776e+00
  1.105356e+01    2.875669e+00
  1.106943e+01    2.853968e+00
  1.108531e+01    2.843609e+00
  1.110118e+01    2.846735e+00
  1.111706e+01    2.903509e+00
  1.113293e+01    2.867090e+00
  1.114881e+01    2.803554e+00
  1.116468e+01    2.804835e+00
  1.118056e+01    2.834437e+00
  1.119644e+01    2.861741e+00
  1.121231e+01    2.819824e+00
  1.122819e+01    2.851983e+00
  1.124406e+01    2.828316e+00
  1.125994e+01    2.818410e+00
  1.127581e+01    2.828430e+00
  1.129169e+01    2.819849e+00
  1.130756e+01    2.766464e+00
  1.132344e+01    2.789063e+00
  1.133932e+01    2.820006e+00
  1.135519e+01    2.780319e+00
  1.137107e+01    2.827680e+00
  1.138694e+01    2.784810e+00
  1.140282e+01    2.771372e+00
  1.141869e+01    2.821486e+00
  1.143457e+01    2.824286e+00
  1.145045e+01    2.782190e+00
  1.146632e+01    2.801143e+00
  1.148220e+01    2.767601e+00
  1.149807e+01    2.785026e+00
  1.151395e+01    2.813751e+00
  1.152982e+01    2.780608e+00
  1.154570e+01    2.740667e+00
  1.156157e+01    2.758959e+00
  1.157745e+01    2.772059e+00
  1.159333e+01    2.788744e+00
  1.160920e+01    2.803668e+00
  1.162508e+01    2.797283e+00
  1.164095e+01    2.725674e+00
  1.165683e+01    2.757263e+00
  1.167270e+01    2.787191e+00
  1.168858e+01    2.792110e+00
  1.170445e+01    2.774751e+00
  1.172033e+01    2.711022e+00
  1.173621e+01    2.710911e+00
  1.175208e+01    2.680074e+00
  1.176796e+01    2.706066e+00
  1.178383e+01    2.752525e+00
  1.179971e+01    2.761968e+00
  1.181558e+01    2.691038e+00
  1.183146e+01    2.692063e+00
  1.184733e+01    2.674427e+00
  1.186321e+01    2.675879e+00
  1.187909e+01    2.704762e+00
  1.189496e+01    2.714476e+00
  1.191084e+01    2.710326e+00
  1.192671e+01    2.706249e+00
  1.194259e+01    2.717751e+00
  1.195846e+01    2.714686e+00
  1.197434e+01    2.668977e+00
  1.199021e+01    2.725944e+00
  1.200609e+01    2.722728e+00
  1.202197e+01    2.717382e+00
  1.203784e+01    2.659247e+00
  1.205372e+01    2.655437e+00
  1.206959e+01    2.641764e+00
  1.208547e+01    2.589299e+00
  1.210134e+01    2.636619e+00
  1.211722e+01    2.692158e+00
  1.213309e+01    2.660011e+00
  1.214897e+01    2.681916e+00
  1.216485e+01    2.682692e+00
  1.218072e+01    2.645636e+00
  1.219660e+01    2.674898e+00
  1.221247e+01    2.632867e+00
  1.222835e+01    2.631686e+00
  1.224422e+01    2.654670e+00
  1.226010e+01    2.676579e+00
  1.227597e+01    2.636126e+00
  1.229185e+01    2.655026e+00
  1.230773e+01    2.621099e+00
  1.232360e+01    2.677933e+00
  1.233948e+01    2.699086e+00
  1.235535e+01    2.682702e+00
  1.237123e+01    2.696984e+00
  1.238710e+01    2.629261e+00
  1.240298e+01    2.617990e+00
  1.241886e+01    2.668672e+00
  1.243473e+01    2.657762e+00
  1.245061e+01    2.653489e+00
  1.246648e+01    2.695525e+00
  1.248236e+01    2.683503e+00
  1.249823e+01    2.699800e+00
  1.251411e+01    2.711321e+00
  1.252998e+01    2.727633e+00
  1.254586e+01    2.717216e+00
  1.256174e+01    2.704870e+00
  1.257761e+01    2.728380e+00
  1.259349e+01    2.661474e+00
  1.260936e+01    2.691596e+00
  1.262524e+01    2.683965e+00
  1.264111e+01    2.720251e+00
  1.265699e+01    2.739175e+00
  1.267286e+01    2.707205e+00
  1.268874e+01    2.712187e+00
  1.270462e+01    2.780719e+00
  1.272049e+01    2.869050e+00
  1.273637e+01    2.862293e+00
  1.275224e+01    2.862783e+00
  1.276812e+01    2.896889e+00
  1.278399e+01    2.952338e+00
  1.279987e+01    2.962893e+00
  1.281574e+01    2.978295e+00
  1.283162e+01    3.111748e+00
  1.284750e+01    3.203449e+00
  1.286337e+01    3.247320e+00
  1.287925e+01    3.363415e+00
  1.289512e+01    3.483069e+00
  1.291100e+01    3.677678e+00
  1.292687e+01    3.878670e+00
  1.294275e+01    4.088495e+00
  1.295862e+01    4.388468e+00
  1.297450e+01    4.786581e+00
  1.299038e+01    5.212515e+00
  1.300625e+01    5.816509e+00
  1.302213e+01    6.570561e+00
  1.303800e+01    7.619632e+00
  1.305388e+01    8.854792e+00
  1.306975e+01    1.013698e+01
  1.308563e+01    1.141140e+01
  1.310150e+01    1.254596e+01
  1.311738e+01    1.357147e+01
  1.313326e+01    1.463820e+01
  1.314913e+01    1.555348e+01
  1.316501e+01    1.602380e+01
  1.318088e+01    1.615720e+01
  1.319676e+01    1.543741e+01
  1.321263e+01    1.409593e+01
  1.322851e+01    1.249502e+01
  1.324438e+01    1.064216e+01
  1.326026e+01    9.086998e+00
  1.327614e+01    7.716966e+00
  1.329201e+01    6.667802e+00
  1.330789e+01    5.909031e+00
  1.332376e+01    5.354817e+00
  1.333964e+01    4.840247e+00
  1.335551e+01    4.426207e+00
  1.337139e+01    4.027303e+00
  1.338727e+01    3.862760e+00
  1.340314e+01    3.639539e+00
  1.341902e+01    3.433804e+00
  1.343489e+01    3.285485e+00
  1.345077e+01    3.175623e+00
  1.346664e+01    3.045419e+00
  1.348252e+01    3.003008e+00
  1.349839e+01    2.968697e+00
  1.351427e+01    2.878542e+00
  1.353015e+01    2.831614e+00
  1.354602e+01    2.798329e+00
  1.356190e+01    2.731230e+00
  1.357777e+01    2.734043e+00
  1.359365e+01    2.721245e+00
  1.360952e+01    2.652215e+00
  1.362540e+01    2.618916e+00
  1.364127e+01    2.608031e+00
  1.365715e+01    2.570682e+00
  1.367303e+01    2.551595e+00
  1.368890e+01    2.512929e+00
  1.370478e+01    2.502224e+00
  1.372065e+01    2.505962e+00
  1.373653e+01    2.486613e+00
  1.375240e+01    2.492839e+00
  1.376828e+01    2.493144e+00
  1.378415e+01    2.503774e+00
  1.380003e+01    2.502347e+00
  1.381591e+01    2.471055e+00
  1.383178e+01    2.465415e+00
  1.384766e+01    2.433297e+00
  1.386353e+01    2.377829e+00
  1.387941e+01    2.389274e+00
  1.389528e+01    2.412391e+00
  1.391116e+01    2.400476e+00
  1.392703e+01    2.393860e+00
  1.394291e+01    2.384823e+00
  1.395879e+01    2.351199e+00
  1.397466e+01    2.385829e+00
  1.399054e+01    2.345319e+00
  1.400641e+01    2.362427e+00
  1.402229e+01    2.355612e+00
  1.403816e+01    2.339766e+00
  1.405404e+01    2.323143e+00
  1.406991e+01    2.369317e+00
  1.408579e+01    2.368979e+00
  1.410167e+01    2.332256e+00
  1.411754e+01    2.318841e+00
  1.413342e+01    2.252930e+00
  1.414929e+01    2.261820e+00
  1.416517e+01    2.291257e+00
  1.418104e+01    2.261456e+00
  1.419692e+01    2.256900e+00
  1.421279e+01    2.256854e+00
  1.422867e+01    2.302589e+00
  1.424455e+01    2.311320e+00
  1.426042e+01    2.303425e+00
  1.427630e+01    2.292431e+00
  1.429217e+01    2.276106e+00
  1.430805e+01    2.247473e+00
  1.432392e+01    2.234412e+00
  1.433980e+01    2.251701e+00
  1.435568e+01    2.200562e+00
  1.437155e+01    2.212500e+00
  1.438743e+01    2.224703e+00
  1.440330e+01    2.192887e+00
  1.441918e+01    2.205714e+00
  1.443505e+01    2.191857e+00
  1.445093e+01    2.213011e+00
  1.446680e+01    2.232321e+00
  1.448268e+01    2.198596e+00
  1.449856e+01    2.209467e+00
  1.451443e+01    2.204619e+00
  1.453031e+01    2.203507e+00
  1.454618e+01    2.189377e+00
  1.456206e+01    2.184911e+00
  1.457793e+01    2.216014e+00
  1.459381e+01    2.220733e+00
  1.460968e+01    2.205093e+00
  1.462556e+01    2.181733e+00
  1.464144e+01    2.207803e+00
  1.465731e+01    2.162336e+00
  1.467319e+01    2.161020e+00
  1.468906e+01    2.178974e+00
  1.470494e+01    2.201739e+00
  1.472081e+01    2.208789e+00
  1.473669e+01    2.185015e+00
  1.475256e+01    2.192051e+00
  1.476844e+01    2.232006e+00
  1.478432e+01    2.257275e+00
  1.480019e+01    2.235095e+00
  1.481607e+01    2.236114e+00
  1.483194e+01    2.186594e+00
  1.484782e+01    2.155997e+00
  1.486369e+01    2.236872e+00
  1.487957e+01    2.211429e+00
  1.489544e+01    2.239413e+00
  1.491132e+01    2.263093e+00
  1.492720e+01    2.255906e+00
  1.494307e+01    2.304324e+00
  1.495895e+01    2.283715e+00
  1.497482e+01    2.308439e+00
  1.499070e+01    2.342399e+00
  1.500657e+01    2.398376e+00
  1.502245e+01    2.503009e+00
  1.503832e+01    2.586485e+00
  1.505420e+01    2.692909e+00
  1.507008e+01    2.783326e+00
  1.508595e+01    2.963730e+00
  1.510183e+01    3.139366e+00
  1.511770e+01    3.400904e+00
  1.513358e+01    3.737347e+00
  1.514945e+01    4.090502e+00
  1.516533e+01    4.459197e+00
  1.518120e+01    4.829158e+00
  1.519708e+01    5.126754e+00
  1.521296e+01    5.337994e+00
  1.522883e+01    5.454013e+00
  1.524471e+01    5.573447e+00
  1.526058e+01    5.648099e+00
  1.527646e+01    5.628291e+00
  1.529233e+01    5.431200e+00
  1.530821e+01    5.082080e+00
  1.532409e+01    4.616305e+00
  1.533996e+01    4.163853e+00
  1.535584e+01    3.746976e+00
  1.537171e+01    3.388564e+00
  1.538759e+01    3.134660e+00
  1.540346e+01    2.933445e+00
  1.541934e+01    2.742864e+00
  1.543521e+01    2.568005e+00
  1.545109e+01    2.454674e+00
  1.546697e+01    2.421518e+00
  1.548284e+01    2.371047e+00
  1.549872e+01    2.309112e+00
  1.551459e+01    2.256210e+00
  1.553047e+01    2.180294e+00
  1.554634e+01    2.131182e+00
  1.556222e+01    2.130907e+00
  1.557809e+01    2.079389e+00
  1.559397e+01    2.080738e+00
  1.560985e+01    2.055130e+00
  1.562572e+01    2.073781e+00
  1.564160e+01    2.036525e+00
  1.565747e+01    1.998173e+00
  1.567335e+01    1.984198e+00
  1.568922e+01    1.987601e+00
  1.570510e+01    1.966165e+00
  1.572097e+01    2.000507e+00
  1.573685e+01    1.968594e+00
  1.575273e+01    1.975047e+00
  1.576860e+01    1.948213e+00
  1.578448e+01    1.920913e+00
  1.580035e+01    1.905147e+00
  1.581623e+01    1.932318e+00
  1.583210e+01    1.926355e+00
  1.584798e+01    1.922907e+00
  1.586385e+01    1.906596e+00
  1.587973e+01    1.890681e+00
  1.589561e+01    1.859244e+00
  1.591148e+01    1.865022e+00
  1.592736e+01    1.884808e+00
  1.594323e+01    1.912893e+00
  1.595911e+01    1.885013e+00
  1.597498e+01    1.860034e+00
  1.599086e+01    1.831979e+00
  1.600673e+01    1.819419e+00
  1.602261e+01    1.871509e+00
  1.603849e+01    1.885075e+00
  1.605436e+01    1.868488e+00
  1.607024e+01    1.836739e+00
  1.608611e+01    1.799813e+00
  1.610199e+01    1.771781e+00
  1.611786e+01    1.828373e+00
  1.613374e+01    1.840310e+00
  1.614961e+01    1.811494e+00
  1.616549e+01    1.844498e+00
  1.618137e+01    1.822967e+00
  1.619724e+01    1.810501e+00
  1.621312e+01    1.803712e+00
  1.622899e+01    1.811290e+00
  1.624487e+01    1.814086e+00
  1.626074e+01    1.797909e+00
  1.627662e+01    1.795642e+00
  1.629250e+01    1.782186e+00
  1.630837e+01    1.819239e+00
  1.632425e+01    1.773781e+00
  1.634012e+01    1.751732e+00
  1.635600e+01    1.759043e+00
  1.637187e+01    1.771053e+00
  1.638775e+01    1.745547e+00
  1.640362e+01    1.764692e+00
  1.641950e+01    1.776705e+00
  1.643538e+01    1.764475e+00
  1.645125e+01    1.769379e+00
  1.646713e+01    1.727032e+00
  1.648300e+01    1.731192e+00
  1.649888e+01    1.732917e+00
  1.651475e+01    1.731619e+00
  1.653063e+01    1.739402e+00
  1.654650e+01    1.728267e+00
  1.656238e+01    1.742478e+00
  1.657826e+01    1.768854e+00
  1.659413e+01    1.729276e+00
  1.661001e+01    1.737843e+00
  1.662588e+01    1.703258e+00
  1.664176e+01    1.708931e+00
  1.665763e+01    1.720936e+00
  1.667351e+01    1.667074e+00
  1.668938e+01    1.675672e+00
  1.670526e+01    1.691297e+00
  1.672114e+01    1.719564e+00
  1.673701e+01    1.690457e+00
  1.675289e+01    1.699877e+00
  1.676876e+01    1.687963e+00
  1.678464e+01    1.671752e+00
  1.680051e+01    1.686258e+00
  1.681639e+01    1.656822e+00
  1.683226e+01    1.666124e+00
  1.684814e+01    1.680508e+00
  1.686402e+01    1.649984e+00
  1.687989e+01    1.677899e+00
  1.689577e+01    1.673898e+00
  1.691164e+01    1.640972e+00
  1.692752e+01    1.677259e+00
  1.694339e+01    1.696922e+00
  1.695927e+01    1.643945e+00
  1.697514e+01    1.670785e+00
  1.699102e+01    1.699861e+00
  1.700690e+01    1.674890e+00
  1.702277e+01    1.641014e+00
  1.703865e+01    1.625358e+00
  1.705452e+01    1.632436e+00
  1.707040e+01    1.652107e+00
  1.708627e+01    1.661792e+00
  1.710215e+01    1.664311e+00
  1.711802e+01    1.671789e+00
  1.713390e+01    1.633288e+00
  1.714978e+01    1.622368e+00
  1.716565e+01    1.609499e+00
  1.718153e+01    1.600407e+00
  1.719740e+01    1.606452e+00
  1.721328e+01    1.620662e+00
  1.722915e+01    1.633598e+00
  1.724503e+01    1.608813e+00
  1.726091e+01    1.618556e+00
  1.727678e+01    1.623462e+00
  1.729266e+01    1.641621e+00
  1.730853e+01    1.600674e+00
  1.732441e+01    1.571897e+00
  1.734028e+01    1.576433e+00
  1.735616e+01    1.587090e+00
  1.737203e+01    1.574588e+00
  1.738791e+01    1.581740e+00
  1.740379e+01    1.607197e+00
  1.741966e+01    1.603173e+00
  1.743554e+01    1.603615e+00
  1.745141e+01    1.581998e+00
  1.746729e+01    1.571070e+00
  1.748316e+01    1.604974e+00
  1.749904e+01    1.580018e+00
  1.751491e+01    1.610834e+00
  1.753079e+01    1.610394e+00
  1.754667e+01    1.569001e+00
  1.756254e+01    1.550219e+00
  1.757842e+01    1.584872e+00
  1.759429e+01    1.574688e+00
  1.761017e+01    1.539238e+00
  1.762604e+01    1.543905e+00
  1.764192e+01    1.562178e+00
  1.765779e+01    1.519444e+00
  1.767367e+01    1.533260e+00
  1.768955e+01    1.546020e+00
  1.770542e+01    1.531405e+00
  1.772130e+01    1.533077e+00
  1.773717e+01    1.518594e+00
  1.775305e+01    1.514082e+00
  1.776892e+01    1.540873e+00
  1.778480e+01    1.539096e+00
  1.780067e+01    1.518193e+00
  1.781655e+01    1.499864e+00
  1.783243e+01    1.502359e+00
  1.784830e+01    1.520208e+00
  1.786418e+01    1.523587e+00
  1.788005e+01    1.551255e+00
  1.789593e+01    1.529204e+00
  1.791180e+01    1.506947e+00
  1.792768e+01    1.479685e+00
  1.794355e+01    1.506685e+00
  1.795943e+01    1.526782e+00
  1.797531e+01    1.533212e+00
  1.799118e+01    1.500604e+00
  1.800706e+01    1.480812e+00
  1.802293e+01    1.467035e+00
  1.803881e+01    1.476813e+00
  1.805468e+01    1.455696e+00
  1.807056e+01    1.490893e+00
  1.808643e+01    1.496000e+00
  1.810231e+01    1.460351e+00
  1.811819e+01    1.480634e+00
  1.813406e+01    1.480407e+00
  1.814994e+01    1.471545e+00
  1.816581e+01    1.467388e+00
  1.818169e+01    1.475309e+00
  1.819756e+01    1.488063e+00
  1.821344e+01    1.508668e+00
  1.822932e+01    1.488753e+00
  1.824519e+01    1.465567e+00
  1.826107e+01    1.490654e+00
  1.827694e+01    1.466299e+00
  1.829282e+01    1.446415e+00
  1.830869e+01    1.455576e+00
  1.832457e+01    1.431630e+00
  1.834044e+01    1.448242e+00
  1.835632e+01    1.460146e+00
  1.837220e+01    1.426066e+00
  1.838807e+01    1.440052e+00
  1.840395e+01    1.470784e+00
  1.841982e+01    1.440293e+00
  1.843570e+01    1.445701e+00
  1.845157e+01    1.460562e+00
  1.846745e+01    1.444021e+00
  1.848332e+01    1.417896e+00
  1.849920e+01    1.432994e+00
  1.851508e+01    1.428293e+00
  1.853095e+01    1.449574e+00
  1.854683e+01    1.447723e+00
  1.856270e+01    1.413592e+00
  1.857858e+01    1.424142e+00
  1.859445e+01    1.425104e+00
  1.861033e+01    1.408243e+00
  1.862620e+01    1.398357e+00
  1.864208e+01    1.395934e+00
  1.865796e+01    1.411595e+00
  1.867383e+01    1.414956e+00
  1.868971e+01    1.405903e+00
  1.870558e+01    1.409095e+00
  1.872146e+01    1.416531e+00
  1.873733e+01    1.420546e+00
  1.875321e+01    1.424391e+00
  1.876908e+01    1.426118e+00
  1.878496e+01    1.397559e+00
  1.880084e+01    1.373631e+00
  1.881671e+01    1.398434e+00
  1.883259e+01    1.399059e+00
  1.884846e+01    1.389539e+00
  1.886434e+01    1.349466e+00
  1.888021e+01    1.373867e+00
  1.889609e+01    1.384014e+00
  1.891196e+01    1.376911e+00
  1.892784e+01    1.348147e+00
  1.894372e+01    1.344923e+00
  1.895959e+01    1.365512e+00
  1.897547e+01    1.359497e+00
  1.899134e+01    1.352588e+00
  1.900722e+01    1.344811e+00
  1.902309e+01    1.353807e+00
  1.903897e+01    1.346471e+00
  1.905484e+01    1.323984e+00
  1.907072e+01    1.342061e+00
  1.908660e+01    1.376999e+00
  1.910247e+01    1.380638e+00
  1.911835e+01    1.364957e+00
  1.913422e+01    1.353899e+00
  1.915010e+01    1.357170e+00
  1.916597e+01    1.362277e+00
  1.918185e+01    1.356021e+00
  1.919773e+01    1.343703e+00
  1.921360e+01    1.359026e+00
  1.922948e+01    1.365348e+00
  1.924535e+01    1.359356e+00
  1.926123e+01    1.327846e+00
  1.927710e+01    1.330422e+00
  1.929298e+01    1.371561e+00
  1.930885e+01    1.366892e+00
  1.932473e+01    1.336022e+00
  1.934061e+01    1.330672e+00
  1.935648e+01    1.320138e+00
  1.937236e+01    1.343185e+00
  1.938823e+01    1.352764e+00
  1.940411e+01    1.333577e+00
  1.941998e+01    1.334730e+00
  1.943586e+01    1.322038e+00
  1.945173e+01    1.338207e+00
  1.946761e+01    1.347085e+00
  1.948349e+01    1.316520e+00
  1.949936e+01    1.317768e+00
  1.951524e+01    1.314369e+00
  1.953111e+01    1.324412e+00
  1.954699e+01    1.324434e+00
  1.956286e+01    1.317906e+00
  1.957874e+01    1.333886e+00
  1.959461e+01    1.327293e+00
  1.961049e+01    1.321377e+00
  1.962637e+01    1.315332e+00
  1.964224e+01    1.284342e+00
  1.965812e+01    1.311555e+00
  1.967399e+01    1.293038e+00
  1.968987e+01    1.284797e+00
  1.970574e+01    1.304729e+00
  1.972162e+01    1.299544e+00
  1.973749e+01    1.301195e+00
  1.975337e+01    1.303720e+00
  1.976925e+01    1.338298e+00
  1.978512e+01    1.314490e+00
  1.980100e+01    1.288286e+00
  1.981687e+01    1.307848e+00
  1.983275e+01    1.273386e+00
  1.984862e+01    1.280057e+00
  1.986450e+01    1.287142e+00
  1.988037e+01    1.301443e+00
  1.989625e+01    1.281295e+00
  1.991213e+01    1.277493e+00
  1.992800e+01    1.285135e+00
  1.994388e+01    1.292407e+00
  1.995975e+01    1.281539e+00
  1.997563e+01    1.271897e+00
  1.999150e+01    1.275126e+00
  2.000738e+01    1.277769e+00
  2.002325e+01    1.259235e+00
  2.003913e+01    1.282592e+00
  2.005501e+01    1.285662e+00
  2.007088e+01    1.267267e+00
  2.008676e+01    1.275414e+00
  2.010263e+01    1.284739e+00
  2.011851e+01    1.276485e+00
  2.013438e+01    1.274635e+00
  2.015026e+01    1.256924e+00
  2.016614e+01    1.253343e+00
  2.018201e+01    1.246431e+00
  2.019789e+01    1.238600e+00
  2.021376e+01    1.256824e+00
  2.022964e+01    1.239875e+00
  2.024551e+01    1.247470e+00
  2.026139e+01    1.237381e+00
  2.027726e+01    1.279048e+00
  2.029314e+01    1.251692e+00
  2.030902e+01    1.237301e+00
  2.032489e+01    1.240411e+00
  2.034077e+01    1.242511e+00
  2.035664e+01    1.264260e+00
  2.037252e+01    1.265560e+00
  2.038839e+01    1.229417e+00
  2.040427e+01    1.248810e+00
  2.042014e+01    1.234125e+00
  2.043602e+01    1.245288e+00
  2.045190e+01    1.228896e+00
  2.046777e+01    1.219808e+00
  2.048365e+01    1.228941e+00
  2.049952e+01    1.253233e+00
  2.051540e+01    1.231497e+00
  2.053127e+01    1.210531e+00
  2.054715e+01    1.228964e+00
  2.056302e+01    1.227262e+00
  2.057890e+01    1.226731e+00
  2.059478e+01    1.249499e+00
  2.061065e+01    1.265965e+00
  2.062653e+01    1.250540e+00
  2.064240e+01    1.228987e+00
  2.065828e+01    1.221869e+00
  2.067415e+01    1.224133e+00
  2.069003e+01    1.256407e+00
  2.070590e+01    1.243775e+00
  2.072178e+01    1.257344e+00
  2.073766e+01    1.217750e+00
  2.075353e+01    1.227509e+00
  2.076941e+01    1.217421e+00
  2.078528e+01    1.216120e+00
  2.080116e+01    1.211329e+00
  2.081703e+01    1.212214e+00
  2.083291e+01    1.248647e+00
  2.084878e+01    1.227098e+00
  2.086466e+01    1.181483e+00
  2.088054e+01    1.183073e+00
  2.089641e+01    1.195152e+00
  2.091229e+01    1.226870e+00
  2.092816e+01    1.240450e+00
  2.094404e+01    1.213366e+00
  2.095991e+01    1.215041e+00
  2.097579e+01    1.226869e+00
  2.099166e+01    1.220432e+00
  2.100754e+01    1.215493e+00
  2.102342e+01    1.209473e+00
  2.103929e+01    1.206142e+00
  2.105517e+01    1.219000e+00
  2.107104e+01    1.229202e+00
  2.108692e+01    1.234517e+00
  2.110279e+01    1.253663e+00
  2.111867e+01    1.234484e+00
  2.113455e+01    1.201475e+00
  2.115042e+01    1.226703e+00
  2.116630e+01    1.229391e+00
  2.118217e+01    1.236894e+00
  2.119805e+01    1.245203e+00
  2.121392e+01    1.236328e+00
  2.122980e+01    1.237123e+00
  2.124567e+01    1.219302e+00
  2.126155e+01    1.238952e+00
  2.127743e+01    1.244187e+00
  2.129330e+01    1.266899e+00
  2.130918e+01    1.248889e+00
  2.132505e+01    1.250592e+00
  2.134093e+01    1.266467e+00
  2.135680e+01    1.279560e+00
  2.137268e+01    1.287419e+00
  2.138855e+01    1.302428e+00
  2.140443e+01    1.335420e+00
  2.142031e+01    1.346338e+00
  2.143618e+01    1.346983e+00
  2.145206e+01    1.330937e+00
  2.146793e+01    1.356147e+00
  2.148381e+01    1.381466e+00
  2.149968e+01    1.402810e+00
  2.151556e+01    1.432508e+00
  2.153143e+01    1.458136e+00
  2.154731e+01    1.503747e+00
  2.156319e+01    1.559909e+00
  2.157906e+01    1.612512e+00
  2.159494e+01    1.638924e+00
  2.161081e+01    1.710152e+00
  2.162669e+01    1.848139e+00
  2.164256e+01    1.934466e+00
  2.165844e+01    2.090837e+00
  2.167431e+01    2.250777e+00
  2.169019e+01    2.501787e+00
  2.170607e+01    2.760921e+00
  2.172194e+01    3.043512e+00
  2.173782e+01    3.497504e+00
  2.175369e+01    4.044546e+00
  2.176957e+01    4.529242e+00
  2.178544e+01    5.129954e+00
  2.180132e+01    5.792749e+00
  2.181719e+01    6.390071e+00
  2.183307e+01    7.082272e+00
  2.184895e+01    7.729065e+00
  2.186482e+01    8.243605e+00
  2.188070e+01    8.718931e+00
  2.189657e+01    8.866545e+00
  2.191245e+01    8.700326e+00
  2.192832e+01    8.200526e+00
  2.194420e+01    7.491377e+00
  2.196007e+01    6.551915e+00
  2.197595e+01    5.686434e+00
  2.199183e+01    4.879425e+00
  2.200770e+01    4.150408e+00
  2.202358e+01    3.601895e+00
  2.203945e+01    3.157682e+00
  2.205533e+01    2.824671e+00
  2.207120e+01    2.561678e+00
  2.208708e+01    2.315786e+00
  2.210296e+01    2.117754e+00
  2.211883e+01    1.963542e+00
  2.213471e+01    1.848817e+00
  2.215058e+01    1.746266e+00
  2.216646e+01    1.681187e+00
  2.218233e+01    1.587423e+00
  2.219821e+01    1.535329e+00
  2.221408e+01    1.481235e+00
  2.222996e+01    1.435543e+00
  2.224584e+01    1.378132e+00
  2.226171e+01    1.382553e+00
  2.227759e+01    1.363647e+00
  2.229346e+01    1.288373e+00
  2.230934e+01    1.290627e+00
  2.232521e+01    1.281252e+00
  2.234109e+01    1.262225e+00
  2.235696e+01    1.232324e+00
  2.237284e+01    1.229167e+00
  2.238872e+01    1.200388e+00
  2.240459e+01    1.188339e+00
  2.242047e+01    1.187764e+00
  2.243634e+01    1.168396e+00
  2.245222e+01    1.165632e+00
  2.246809e+01    1.143513e+00
  2.248397e+01    1.156327e+00
  2.249984e+01    1.133825e+00
  2.251572e+01    1.120024e+00
  2.253160e+01    1.124353e+00
  2.254747e+01    1.116605e+00
  2.256335e+01    1.112520e+00
  2.257922e+01    1.128353e+00
  2.259510e+01    1.106206e+00
  2.261097e+01    1.099721e+00
  2.262685e+01    1.074066e+00
  2.264272e+01    1.085110e+00
  2.265860e+01    1.099093e+00
  2.267448e+01    1.078062e+00
  2.269035e+01    1.085938e+00
  2.270623e+01    1.085409e+00
  2.272210e+01    1.060700e+00
  2.273798e+01    1.048433e+00
  2.275385e+01    1.043401e+00
  2.276973e+01    1.040413e+00
  2.278560e+01    1.022836e+00
  2.280148e+01    1.043952e+00
  2.281736e+01    1.053395e+00
  2.283323e+01    1.054781e+00
  2.284911e+01    1.021752e+00
  2.286498e+01    1.026435e+00
  2.288086e+01    1.047718e+00
  2.289673e+01    1.032263e+00
  2.291261e+01    1.032305e+00
  2.292848e+01    1.037187e+00
  2.294436e+01    1.008558e+00
  2.296024e+01    9.885853e-01
  2.297611e+01    1.000460e+00
  2.299199e+01    1.022467e+00
  2.300786e+01    1.035758e+00
  2.302374e+01    1.027003e+00
  2.303961e+01    1.011776e+00
  2.305549e+01    1.003927e+00
  2.307137e+01    1.001302e+00
  2.308724e+01    1.000186e+00
  2.310312e+01    9.675432e-01
  2.311899e+01    9.792171e-01
  2.313487e+01    9.794661e-01
  2.315074e+01    9.930019e-01
  2.316662e+01    9.821731e-01
  2.318249e+01    9.843071e-01
  2.319837e+01    9.898956e-01
  2.321425e+01    9.970988e-01
  2.323012e+01    1.003786e+00
  2.324600e+01    1.004339e+00
  2.326187e+01    9.785584e-01
  2.327775e+01    9.811738e-01
  2.329362e+01    9.824239e-01
  2.330950e+01    9.610106e-01
  2.332537e+01    9.644830e-01
  2.334125e+01    9.611502e-01
  2.335713e+01    9.771197e-01
  2.337300e+01    9.645213e-01
  2.338888e+01    9.593630e-01
  2.340475e+01    9.559380e-01
  2.342063e+01    9.756613e-01
  2.343650e+01    9.578058e-01
  2.345238e+01    9.655421e-01
  2.346825e+01    9.550214e-01
  2.348413e+01    9.713011e-01
  2.350001e+01    9.975800e-01
  2.351588e+01    9.851316e-01
  2.353176e+01    9.475790e-01
  2.354763e+01    9.449208e-01
  2.356351e+01    9.552290e-01
  2.357938e+01    9.507936e-01
  2.359526e+01    9.419357e-01
  2.361113e+01    9.474329e-01
  2.362701e+01    9.453131e-01
  2.364289e+01    9.351013e-01
  2.365876e+01    9.523726e-01
  2.367464e+01    9.487946e-01
  2.369051e+01    9.392154e-01
  2.370639e+01    9.137735e-01
  2.372226e+01    9.271287e-01
  2.373814e+01    9.258500e-01
  2.375401e+01    9.313146e-01
  2.376989e+01    9.315777e-01
  2.378577e+01    9.127381e-01
  2.380164e+01    9.004477e-01
  2.381752e+01    9.065310e-01
  2.383339e+01    9.098125e-01
  2.384927e+01    8.855877e-01
  2.386514e+01    9.053255e-01
  2.388102e+01    9.036680e-01
  2.389689e+01    9.054371e-01
  2.391277e+01    8.888865e-01
  2.392865e+01    8.900607e-01
  2.394452e+01    8.926787e-01
  2.396040e+01    8.985465e-01
  2.397627e+01    9.094331e-01
  2.399215e+01    8.967159e-01
  2.400802e+01    8.851787e-01
  2.402390e+01    8.889397e-01
  2.403978e+01    8.872396e-01
  2.405565e+01    8.902373e-01
  2.407153e+01    8.827736e-01
  2.408740e+01    8.725712e-01
  2.410328e+01    8.863054e-01
  2.411915e+01    8.740426e-01
  2.413503e+01    8.814260e-01
  2.415090e+01    8.771080e-01
  2.416678e+01    8.851507e-01
  2.418266e+01    8.708342e-01
  2.419853e+01    8.907909e-01
  2.421441e+01    8.765473e-01
  2.423028e+01    8.602357e-01
  2.424616e+01    8.540233e-01
  2.426203e+01    8.768228e-01
  2.427791e+01    8.794861e-01
  2.429378e+01    8.908998e-01
  2.430966e+01    8.903238e-01
  2.432554e+01    8.896237e-01
  2.434141e+01    8.875084e-01
  2.435729e+01    8.700160e-01
  2.437316e+01    8.531536e-01
  2.438904e+01    8.725333e-01
  2.440491e+01    8.913856e-01
  2.442079e+01    8.787086e-01
  2.443666e+01    8.970764e-01
  2.445254e+01    8.915161e-01
  2.446842e+01    8.774181e-01
  2.448429e+01    8.913651e-01
  2.450017e+01    8.984506e-01
  2.451604e+01    8.903296e-01
  2.453192e+01    9.046898e-01
  2.454779e+01    8.987435e-01
  2.456367e+01    8.984425e-01
  2.457954e+01    8.741459e-01
  2.459542e+01    8.647184e-01
  2.461130e+01    8.651231e-01
  2.462717e+01    8.694395e-01
  2.464305e+01    8.925850e-01
  2.465892e+01    8.894792e-01
  2.467480e+01    8.921943e-01
  2.469067e+01    8.913400e-01
  2.470655e+01    9.083409e-01
  2.472242e+01    9.020982e-01
  2.473830e+01    8.971115e-01
  2.475418e+01    8.742439e-01
  2.477005e+01    8.864917e-01
  2.478593e+01    8.826601e-01
  2.480180e+01    8.696708e-01
  2.481768e+01    8.961779e-01
  2.483355e+01    8.817473e-01
  2.484943e+01    8.623912e-01
  2.486530e+01    8.741368e-01
  2.488118e+01    8.922282e-01
  2.489706e+01    8.922966e-01
  2.491293e+01    8.563197e-01
  2.492881e+01    8.603429e-01
  2.494468e+01    8.765013e-01
  2.496056e+01    8.831752e-01
  2.497643e+01    8.839376e-01
  2.499231e+01    8.915163e-01
  2.500819e+01    9.049321e-01
  2.502406e+01    8.952104e-01
  2.503994e+01    8.935955e-01
  2.505581e+01    8.942000e-01
  2.507169e+01    9.088356e-01
  2.508756e+01    9.035944e-01
  2.510344e+01    8.820279e-01
  2.511931e+01    9.053413e-01
  2.513519e+01    9.040152e-01
  2.515107e+01    9.070486e-01
  2.516694e+01    9.071988e-01
  2.518282e+01    9.132144e-01
  2.519869e+01    9.205891e-01
  2.521457e+01    9.310335e-01
  2.523044e+01    9.242414e-01
  2.524632e+01    9.422172e-01
  2.526219e+01    9.368372e-01
  2.527807e+01    9.341632e-01
  2.529395e+01    9.329322e-01
  2.530982e+01    9.536578e-01
  2.532570e+01    9.585589e-01
  2.534157e+01    9.821289e-01
  2.535745e+01    9.673731e-01
  2.537332e+01    9.889826e-01
  2.538920e+01    9.768129e-01
  2.540507e+01    9.821092e-01
  2.542095e+01    1.001494e+00
  2.543683e+01    9.844108e-01
  2.545270e+01    1.002623e+00
  2.546858e+01    1.040053e+00
  2.548445e+01    1.029178e+00
  2.550033e+01    1.054346e+00
  2.551620e+01    1.072786e+00
  2.553208e+01    1.092882e+00
  2.554795e+01    1.102503e+00
  2.556383e+01    1.124766e+00
  2.557971e+01    1.142289e+00
  2.559558e+01    1.163323e+00
  2.561146e+01    1.165790e+00
  2.562733e+01    1.245395e+00
  2.564321e+01    1.302193e+00
  2.565908e+01    1.343109e+00
  2.567496e+01    1.405554e+00
  2.569083e+01    1.490124e+00
  2.570671e+01    1.587629e+00
  2.572259e+01    1.683395e+00
  2.573846e+01    1.851414e+00
  2.575434e+01    2.001035e+00
  2.577021e+01    2.173751e+00
  2.578609e+01    2.443909e+00
  2.580196e+01    2.734875e+00
  2.581784e+01    3.102764e+00
  2.583371e+01    3.532636e+00
  2.584959e+01    4.013633e+00
  2.586547e+01    4.601689e+00
  2.588134e+01    5.173278e+00
  2.589722e+01    5.687325e+00
  2.591309e+01    6.213899e+00
  2.592897e+01    6.654511e+00
  2.594484e+01    6.943361e+00
  2.596072e+01    7.050201e+00
  2.597660e+01    6.916517e+00
  2.599247e+01    6.508897e+00
  2.600835e+01    5.982892e+00
  2.602422e+01    5.343865e+00
  2.604010e+01    4.620559e+00
  2.605597e+01    3.980212e+00
  2.607185e+01    3.395497e+00
  2.608772e+01    3.006150e+00
  2.610360e+01    2.651042e+00
  2.611948e+01    2.391090e+00
  2.613535e+01    2.158350e+00
  2.615123e+01    1.939841e+00
  2.616710e+01    1.780988e+00
  2.618298e+01    1.664831e+00
  2.619885e+01    1.567212e+00
  2.621473e+01    1.470979e+00
  2.623060e+01    1.391768e+00
  2.624648e+01    1.356089e+00
  2.626236e+01    1.289962e+00
  2.627823e+01    1.229287e+00
  2.629411e+01    1.191396e+00
  2.630998e+01    1.148942e+00
  2.632586e+01    1.119824e+00
  2.634173e+01    1.121475e+00
  2.635761e+01    1.095434e+00
  2.637348e+01    1.079386e+00
  2.638936e+01    1.062300e+00
  2.640524e+01    1.035336e+00
  2.642111e+01    1.014857e+00
  2.643699e+01    1.036368e+00
  2.645286e+01    1.027079e+00
  2.646874e+01    1.007368e+00
  2.648461e+01    9.969217e-01
  2.650049e+01    9.983340e-01
  2.651636e+01    9.905964e-01
  2.653224e+01    1.002592e+00
  2.654812e+01    9.872259e-01
  2.656399e+01    9.901200e-01
  2.657987e+01    9.818686e-01
  2.659574e+01    9.776264e-01
  2.661162e+01    1.000749e+00
  2.662749e+01    1.004304e+00
  2.664337e+01    9.966382e-01
  2.665924e+01    9.752016e-01
  2.667512e+01    9.659545e-01
  2.669100e+01    9.567466e-01
  2.670687e+01    9.450522e-01
  2.672275e+01    9.451167e-01
  2.673862e+01    9.482526e-01
  2.675450e+01    9.664888e-01
  2.677037e+01    9.711362e-01
  2.678625e+01    9.798993e-01
  2.680212e+01    9.733284e-01
  2.681800e+01    9.565672e-01
  2.683388e+01    9.517601e-01
  2.684975e+01    9.677835e-01
  2.686563e+01    9.648653e-01
  2.688150e+01    9.604099e-01
  2.689738e+01    9.967794e-01
  2.691325e+01    9.901773e-01
  2.692913e+01    9.960626e-01
  2.694501e+01    1.013671e+00
  2.696088e+01    1.033273e+00
  2.697676e+01    1.067403e+00
  2.699263e+01    1.067237e+00
  2.700851e+01    1.084773e+00
  2.702438e+01    1.120585e+00
  2.704026e+01    1.160089e+00
  2.705613e+01    1.189015e+00
  2.707201e+01    1.264647e+00
  2.708789e+01    1.352925e+00
  2.710376e+01    1.427850e+00
  2.711964e+01    1.559218e+00
  2.713551e+01    1.708350e+00
  2.715139e+01    1.836294e+00
  2.716726e+01    1.958039e+00
  2.718314e+01    2.028010e+00
  2.719901e+01    2.124640e+00
  2.721489e+01    2.163010e+00
  2.723077e+01    2.133634e+00
  2.724664e+01    2.090471e+00
  2.726252e+01    1.968398e+00
  2.727839e+01    1.817927e+00
  2.729427e+01    1.706235e+00
  2.731014e+01    1.574037e+00
  2.732602e+01    1.439167e+00
  2.734189e+01    1.363860e+00
  2.735777e+01    1.277101e+00
  2.737365e+01    1.219930e+00
  2.738952e+01    1.168234e+00
  2.740540e+01    1.128003e+00
  2.742127e+01    1.083100e+00
  2.743715e+01    1.047141e+00
  2.745302e+01    1.031111e+00
  2.746890e+01    1.021898e+00
  2.748477e+01    1.015359e+00
  2.750065e+01    9.967637e-01
  2.751653e+01    9.810342e-01
  2.753240e+01    9.597380e-01
  2.754828e+01    9.330231e-01
  2.756415e+01    9.252224e-01
  2.758003e+01    9.475458e-01
  2.759590e+01    9.428578e-01
  2.761178e+01    9.194813e-01
  2.762765e+01    9.270451e-01
  2.764353e+01    9.058009e-01
  2.765941e+01    9.172568e-01
  2.767528e+01    9.176588e-01
  2.769116e+01    8.966067e-01
  2.770703e+01    8.951473e-01
  2.772291e+01    8.881333e-01
  2.773878e+01    8.806341e-01
  2.775466e+01    8.860661e-01
  2.777054e+01    8.626223e-01
  2.778641e+01    8.688251e-01
  2.780229e+01    8.817659e-01
  2.781816e+01    8.809332e-01
  2.783404e+01    8.858649e-01
  2.784991e+01    9.042056e-01
  2.786579e+01    8.793852e-01
  2.788166e+01    8.643852e-01
  2.789754e+01    8.542783e-01
  2.791342e+01    8.536125e-01
  2.792929e+01    8.511500e-01
  2.794517e+01    8.591747e-01
  2.796104e+01    8.615206e-01
  2.797692e+01    8.596233e-01
  2.799279e+01    8.585969e-01
  2.800867e+01    8.503044e-01
  2.802454e+01    8.455073e-01
  2.804042e+01    8.713591e-01
  2.805630e+01    8.649665e-01
  2.807217e+01    8.344745e-01
  2.808805e+01    8.524705e-01
  2.810392e+01    8.546337e-01
  2.811980e+01    8.514489e-01
  2.813567e+01    8.444552e-01
  2.815155e+01    8.447412e-01
  2.816742e+01    8.486770e-01
  2.818330e+01    8.406997e-01
  2.819918e+01    8.423995e-01
  2.821505e+01    8.607297e-01
  2.823093e+01    8.543826e-01
  2.824680e+01    8.436739e-01
  2.826268e+01    8.520705e-01
  2.827855e+01    8.690186e-01
  2.829443e+01    8.613016e-01
  2.831030e+01    8.416712e-01
  2.832618e+01    8.526753e-01
  2.834206e+01    8.548140e-01
  2.835793e+01    8.270180e-01
  2.837381e+01    8.262451e-01
  2.838968e+01    8.348850e-01
  2.840556e+01    8.485913e-01
  2.842143e+01    8.393811e-01
  2.843731e+01    8.256581e-01
  2.845318e+01    8.138652e-01
  2.846906e+01    8.348757e-01
  2.848494e+01    8.347619e-01
  2.850081e+01    8.568018e-01
  2.851669e+01    8.471544e-01
  2.853256e+01    8.347504e-01
  2.854844e+01    8.385740e-01
  2.856431e+01    8.269695e-01
  2.858019e+01    8.153297e-01
  2.859606e+01    7.934799e-01
  2.861194e+01    8.187618e-01
  2.862782e+01    8.289736e-01
  2.864369e+01    8.244005e-01
  2.865957e+01    8.321847e-01
  2.867544e+01    8.171613e-01
  2.869132e+01    8.116990e-01
  2.870719e+01    8.092741e-01
  2.872307e+01    7.903554e-01
  2.873895e+01    8.000061e-01
  2.875482e+01    8.070593e-01
  2.877070e+01    8.052149e-01
  2.878657e+01    8.321346e-01
  2.880245e+01    8.370121e-01
  2.881832e+01    8.280344e-01
  2.883420e+01    8.224293e-01
  2.885007e+01    8.251225e-01
  2.886595e+01    8.305947e-01
  2.888183e+01    8.289059e-01
  2.889770e+01    8.004368e-01
  2.891358e+01    8.005969e-01
  2.892945e+01    8.215997e-01
  2.894533e+01    7.937301e-01
  2.896120e+01    7.995857e-01
  2.897708e+01    8.046911e-01
  2.899295e+01    8.134998e-01
  2.900883e+01    8.188883e-01
  2.902471e+01    8.116573e-01
  2.904058e+01    8.106681e-01
  2.905646e+01    8.092222e-01
  2.907233e+01    8.104145e-01
  2.908821e+01    8.099881e-01
  2.910408e+01    7.970721e-01
  2.911996e+01    8.028523e-01
  2.913583e+01    8.179921e-01
  2.915171e+01    8.061489e-01
  2.916759e+01    8.102293e-01
  2.918346e+01    7.944638e-01
  2.919934e+01    7.957092e-01
  2.921521e+01    8.032682e-01
  2.923109e+01    8.059891e-01
  2.924696e+01    8.104175e-01
  2.926284e+01    8.070413e-01
  2.927871e+01    8.041530e-01
  2.929459e+01    8.132153e-01
  2.931047e+01    8.101746e-01
  2.932634e+01    8.083632e-01
  2.934222e+01    8.085523e-01
  2.935809e+01    7.993889e-01
  2.937397e+01    7.969606e-01
  2.938984e+01    7.939745e-01
  2.940572e+01    8.073206e-01
  2.942159e+01    8.041303e-01
  2.943747e+01    7.749970e-01
  2.945335e+01    8.108683e-01
  2.946922e+01    8.193634e-01
  2.948510e+01    7.987444e-01
  2.950097e+01    8.109432e-01
  2.951685e+01    7.857733e-01
  2.953272e+01    7.938508e-01
  2.954860e+01    7.895614e-01
  2.956447e+01    7.960982e-01
  2.958035e+01    7.901141e-01
  2.959623e+01    8.068381e-01
  2.961210e+01    7.950760e-01
  2.962798e+01    7.938491e-01
  2.964385e+01    7.985391e-01
  2.965973e+01    7.945081e-01
  2.967560e+01    7.899723e-01
  2.969148e+01    8.032972e-01
  2.970736e+01    8.038240e-01
  2.972323e+01    7.957793e-01
  2.973911e+01    7.788340e-01
  2.975498e+01    7.819777e-01
  2.977086e+01    8.018670e-01
  2.978673e+01    8.127069e-01
  2.980261e+01    7.886831e-01
  2.981848e+01    7.977030e-01
  2.983436e+01    7.980148e-01
  2.985024e+01    7.894936e-01
  2.986611e+01    7.937743e-01
  2.988199e+01    8.057730e-01
  2.989786e+01    7.930211e-01
  2.991374e+01    7.726545e-01
  2.992961e+01    7.958257e-01
  2.994549e+01    7.932369e-01
  2.996136e+01    7.948273e-01
  2.997724e+01    7.876327e-01
  2.999312e+01    7.971632e-01
  3.000899e+01    8.054743e-01
  3.002487e+01    8.056098e-01
  3.004074e+01    8.294655e-01
  3.005662e+01    8.135968e-01
  3.007249e+01    8.100545e-01
  3.008837e+01    8.057137e-01
  3.010424e+01    7.952469e-01
  3.012012e+01    7.802469e-01
  3.013600e+01    7.631225e-01
  3.015187e+01    7.955763e-01
  3.016775e+01    7.970456e-01
  3.018362e+01    7.890797e-01
  3.019950e+01    7.680199e-01
  3.021537e+01    7.713796e-01
  3.023125e+01    7.759892e-01
  3.024712e+01    7.811630e-01
  3.026300e+01    7.885130e-01
  3.027888e+01    7.800819e-01
  3.029475e+01    7.888612e-01
  3.031063e+01    7.694487e-01
  3.032650e+01    7.652143e-01
  3.034238e+01    7.745205e-01
  3.035825e+01    7.996296e-01
  3.037413e+01    7.902074e-01
  3.039000e+01    7.676883e-01
  3.040588e+01    7.725465e-01
  3.042176e+01    7.812351e-01
  3.043763e+01    7.917696e-01
  3.045351e+01    7.512403e-01
  3.046938e+01    7.618930e-01
  3.048526e+01    7.552676e-01
  3.050113e+01    7.786991e-01
  3.051701e+01    7.836345e-01
  3.053288e+01    7.830220e-01
  3.054876e+01    7.554741e-01
  3.056464e+01    7.865428e-01
  3.058051e+01    7.779561e-01
  3.059639e+01    7.759520e-01
  3.061226e+01    7.966123e-01
  3.062814e+01    7.959121e-01
  3.064401e+01    7.782939e-01
  3.065989e+01    7.835360e-01
  3.067577e+01    7.868597e-01
  3.069164e+01    7.728769e-01
  3.070752e+01    7.921282e-01
  3.072339e+01    7.974656e-01
  3.073927e+01    7.931858e-01
  3.075514e+01    7.625090e-01
  3.077102e+01    7.673320e-01
  3.078689e+01    7.830603e-01
  3.080277e+01    7.864608e-01
  3.081865e+01    7.960924e-01
  3.083452e+01    8.020332e-01
  3.085040e+01    7.771416e-01
  3.086627e+01    7.793530e-01
  3.088215e+01    7.862492e-01
  3.089802e+01    7.664220e-01
  3.091390e+01    7.754410e-01
  3.092977e+01    7.923945e-01
  3.094565e+01    7.978464e-01
  3.096153e+01    7.690480e-01
  3.097740e+01    7.658959e-01
  3.099328e+01    7.826135e-01
  3.100915e+01    7.572002e-01
  3.102503e+01    7.586544e-01
  3.104090e+01    7.706494e-01
  3.105678e+01    7.789822e-01
  3.107265e+01    7.838406e-01
  3.108853e+01    7.901231e-01
  3.110441e+01    7.716765e-01
  3.112028e+01    7.826097e-01
  3.113616e+01    7.724034e-01
  3.115203e+01    7.666767e-01
  3.116791e+01    7.728755e-01
  3.118378e+01    7.734433e-01
  3.119966e+01    7.774449e-01
  3.121553e+01    8.070866e-01
  3.123141e+01    7.812902e-01
  3.124729e+01    7.613547e-01
  3.126316e+01    7.708145e-01
  3.127904e+01    7.816245e-01
  3.129491e+01    8.098144e-01
  3.131079e+01    8.012230e-01
  3.132666e+01    7.998605e-01
  3.134254e+01    8.087886e-01
  3.135841e+01    7.975852e-01
  3.137429e+01    8.102058e-01
  3.139017e+01    8.111989e-01
  3.140604e+01    7.856739e-01
  3.142192e+01    8.024625e-01
  3.143779e+01    8.036647e-01
  3.145367e+01    8.057273e-01
  3.146954e+01    8.108420e-01
  3.148542e+01    8.174269e-01
  3.150129e+01    8.139064e-01
  3.151717e+01    8.208682e-01
  3.153305e+01    8.398731e-01
  3.154892e+01    8.214324e-01
  3.156480e+01    8.421631e-01
  3.158067e+01    8.529409e-01
  3.159655e+01    8.633940e-01
  3.161242e+01    8.645858e-01
  3.162830e+01    8.866729e-01
  3.164418e+01    9.054854e-01
  3.166005e+01    9.271523e-01
  3.167593e+01    9.484619e-01
  3.169180e+01    9.764606e-01
  3.170768e+01    1.030523e+00
  3.172355e+01    1.057416e+00
  3.173943e+01    1.069633e+00
  3.175530e+01    1.132900e+00
  3.177118e+01    1.226565e+00
  3.178706e+01    1.296073e+00
  3.180293e+01    1.427633e+00
  3.181881e+01    1.549714e+00
  3.183468e+01    1.696738e+00
  3.185056e+01    1.778188e+00
  3.186643e+01    1.893217e+00
  3.188231e+01    2.013083e+00
  3.189818e+01    2.063793e+00
  3.191406e+01    2.085305e+00
  3.192994e+01    2.017404e+00
  3.194581e+01    1.905816e+00
  3.196169e+01    1.818369e+00
  3.197756e+01    1.680298e+00
  3.199344e+01    1.541948e+00
  3.200931e+01    1.406523e+00
  3.202519e+01    1.330111e+00
  3.204106e+01    1.255680e+00
  3.205694e+01    1.138946e+00
  3.207282e+01    1.102861e+00
  3.208869e+01    1.025286e+00
  3.210457e+01    9.966657e-01
  3.212044e+01    9.746544e-01
  3.213632e+01    9.347122e-01
  3.215219e+01    9.238201e-01
  3.216807e+01    8.974459e-01
  3.218394e+01    8.863728e-01
  3.219982e+01    8.583044e-01
  3.221570e+01    8.338687e-01
  3.223157e+01    8.026767e-01
  3.224745e+01    8.304886e-01
  3.226332e+01    8.351629e-01
  3.227920e+01    8.261982e-01
  3.229507e+01    8.059183e-01
  3.231095e+01    8.154311e-01
  3.232682e+01    8.268956e-01
  3.234270e+01    8.191302e-01
  3.235858e+01    7.770757e-01
  3.237445e+01    7.834935e-01
  3.239033e+01    8.028163e-01
  3.240620e+01    7.919618e-01
  3.242208e+01    7.714233e-01
  3.243795e+01    7.584315e-01
  3.245383e+01    7.647074e-01
  3.246970e+01    7.754173e-01
  3.248558e+01    7.985734e-01
  3.250146e+01    7.790166e-01
  3.251733e+01    7.714204e-01
  3.253321e+01    7.643039e-01
  3.254908e+01    7.497045e-01
