# == pyFAI calibration ==
# Distance Sample to Detector: 0.3999999939076516 m
# PONI: 9.750e-02, 1.135e-01 m
# Rotations: -0.000175 0.000000 -0.000000 rad
# 
# == Fit2d calibration ==
# Distance Sample-beamCenter: 400.000 mm
# Center: x=1514.000, y=1300.000 pix
# Tilt: 0.010 deg  TiltPlanRot: 0.010 deg
# 
# Detector Detector	 Spline= None	 PixelSize= 7.500e-05, 7.500e-05 m
#    Detector has a mask: False 
#    Detector has a dark current: False 
#    detector has a flat field: False 
# 
# Wavelength: 6.888e-11 m
# Mask applied: user provided
# Dark current applied: False
# Flat field applied: False
# Polarization factor: 0.99
# Normalization factor: 1.0
# --> /home/myspot/data/2024_07_Rosario/Ru-CGO-ex/2024-07-27_003_Ru-CGO-ex_Reaction_dwell_000023_data_000116.dat
#       q_nm^-1             I 
  2.003187e-02    1.424646e-01
  3.590745e-02    3.427850e-02
  5.178302e-02    6.858626e-02
  6.765859e-02    3.650515e-02
  8.353417e-02    1.870029e-01
  9.940974e-02    2.051894e-01
  1.152853e-01    7.272012e-02
  1.311609e-01    6.115425e-02
  1.470365e-01    4.691579e-02
  1.629120e-01    0.000000e+00
  1.787876e-01    0.000000e+00
  1.946632e-01    3.931614e-03
  2.105388e-01    3.230736e-02
  2.264143e-01    3.490395e-02
  2.422899e-01    5.565881e-02
  2.581655e-01    3.773671e-02
  2.740411e-01    4.526148e-02
  2.899166e-01    5.736845e-02
  3.057922e-01    2.892513e-02
  3.216678e-01    2.881862e-02
  3.375433e-01    3.824325e-02
  3.534189e-01    2.716423e-02
  3.692945e-01    1.765951e-02
  3.851701e-01    1.053058e-02
  4.010456e-01    1.181575e-02
  4.169212e-01    1.569740e-02
  4.327968e-01    2.763506e-02
  4.486724e-01    2.960061e-02
  4.645479e-01    2.463388e-02
  4.804235e-01    6.000352e-02
  4.962991e-01    4.947400e-02
  5.121747e-01    6.312496e-02
  5.280502e-01    4.346500e-02
  5.439258e-01    4.440931e-02
  5.598014e-01    5.137022e-02
  5.756770e-01    5.569858e-02
  5.915525e-01    5.416027e-02
  6.074281e-01    2.882649e-02
  6.233037e-01    4.464321e-02
  6.391793e-01    5.674291e-02
  6.550548e-01    2.380083e-02
  6.709304e-01    1.985308e-02
  6.868060e-01    4.299977e-02
  7.026815e-01    5.075121e-02
  7.185571e-01    6.301925e-02
  7.344327e-01    4.040623e-02
  7.503083e-01    5.178613e-02
  7.661838e-01    8.087834e-02
  7.820594e-01    1.135667e-01
  7.979350e-01    1.577055e-01
  8.138106e-01    1.890528e-01
  8.296861e-01    2.131269e-01
  8.455617e-01    3.588070e-01
  8.614373e-01    3.911472e-01
  8.773129e-01    4.605493e-01
  8.931884e-01    5.845336e-01
  9.090640e-01    7.767361e-01
  9.249396e-01    8.016192e-01
  9.408152e-01    8.239428e-01
  9.566907e-01    9.899692e-01
  9.725663e-01    1.128930e+00
  9.884419e-01    1.067059e+00
  1.004317e+00    1.114290e+00
  1.020193e+00    1.269266e+00
  1.036069e+00    1.423619e+00
  1.051944e+00    1.517805e+00
  1.067820e+00    1.498398e+00
  1.083695e+00    1.616633e+00
  1.099571e+00    1.639774e+00
  1.115446e+00    1.599601e+00
  1.131322e+00    1.555664e+00
  1.147198e+00    1.594530e+00
  1.163073e+00    1.614816e+00
  1.178949e+00    1.654611e+00
  1.194824e+00    1.749452e+00
  1.210700e+00    1.960871e+00
  1.226575e+00    2.163445e+00
  1.242451e+00    2.323388e+00
  1.258327e+00    2.518219e+00
  1.274202e+00    2.683315e+00
  1.290078e+00    2.784350e+00
  1.305953e+00    2.789714e+00
  1.321829e+00    2.834188e+00
  1.337705e+00    2.803190e+00
  1.353580e+00    2.832652e+00
  1.369456e+00    2.736397e+00
  1.385331e+00    2.710629e+00
  1.401207e+00    2.632200e+00
  1.417082e+00    2.756993e+00
  1.432958e+00    2.984602e+00
  1.448834e+00    2.954302e+00
  1.464709e+00    3.074487e+00
  1.480585e+00    3.220571e+00
  1.496460e+00    3.128177e+00
  1.512336e+00    2.957907e+00
  1.528211e+00    3.024679e+00
  1.544087e+00    3.092293e+00
  1.559963e+00    3.146360e+00
  1.575838e+00    3.251752e+00
  1.591714e+00    3.331219e+00
  1.607589e+00    3.212903e+00
  1.623465e+00    3.148718e+00
  1.639340e+00    3.185430e+00
  1.655216e+00    3.155512e+00
  1.671092e+00    3.263022e+00
  1.686967e+00    3.150624e+00
  1.702843e+00    3.021377e+00
  1.718718e+00    3.182308e+00
  1.734594e+00    3.154749e+00
  1.750469e+00    3.176310e+00
  1.766345e+00    3.124066e+00
  1.782221e+00    3.119775e+00
  1.798096e+00    3.191232e+00
  1.813972e+00    3.092859e+00
  1.829847e+00    2.976519e+00
  1.845723e+00    2.942706e+00
  1.861598e+00    3.104586e+00
  1.877474e+00    3.162644e+00
  1.893350e+00    3.144453e+00
  1.909225e+00    3.081743e+00
  1.925101e+00    3.044912e+00
  1.940976e+00    3.057722e+00
  1.956852e+00    3.122958e+00
  1.972727e+00    3.092219e+00
  1.988603e+00    3.156485e+00
  2.004479e+00    3.066275e+00
  2.020354e+00    3.106543e+00
  2.036230e+00    3.104099e+00
  2.052105e+00    3.182347e+00
  2.067981e+00    3.126468e+00
  2.083856e+00    3.040785e+00
  2.099732e+00    2.872613e+00
  2.115608e+00    3.053283e+00
  2.131483e+00    3.175120e+00
  2.147359e+00    3.065090e+00
  2.163234e+00    3.144142e+00
  2.179110e+00    3.192539e+00
  2.194985e+00    2.931246e+00
  2.210861e+00    2.931234e+00
  2.226737e+00    3.074669e+00
  2.242612e+00    3.119340e+00
  2.258488e+00    3.123677e+00
  2.274363e+00    3.162822e+00
  2.290239e+00    3.131483e+00
  2.306115e+00    3.222415e+00
  2.321990e+00    3.150875e+00
  2.337866e+00    3.115283e+00
  2.353741e+00    3.101768e+00
  2.369617e+00    3.201250e+00
  2.385492e+00    3.211023e+00
  2.401368e+00    3.242100e+00
  2.417244e+00    3.224274e+00
  2.433119e+00    3.189369e+00
  2.448995e+00    3.174726e+00
  2.464870e+00    3.192469e+00
  2.480746e+00    3.183224e+00
  2.496621e+00    3.131823e+00
  2.512497e+00    3.205615e+00
  2.528373e+00    3.240660e+00
  2.544248e+00    3.215453e+00
  2.560124e+00    3.233305e+00
  2.575999e+00    3.239282e+00
  2.591875e+00    3.138734e+00
  2.607750e+00    3.164067e+00
  2.623626e+00    3.146680e+00
  2.639502e+00    3.095224e+00
  2.655377e+00    3.250889e+00
  2.671253e+00    3.356713e+00
  2.687128e+00    3.429806e+00
  2.703004e+00    3.250767e+00
  2.718879e+00    3.270119e+00
  2.734755e+00    3.228896e+00
  2.750631e+00    3.211421e+00
  2.766506e+00    3.274308e+00
  2.782382e+00    3.261007e+00
  2.798257e+00    3.295990e+00
  2.814133e+00    3.377868e+00
  2.830008e+00    3.327721e+00
  2.845884e+00    3.330551e+00
  2.861760e+00    3.372042e+00
  2.877635e+00    3.256303e+00
  2.893511e+00    3.419271e+00
  2.909386e+00    3.453394e+00
  2.925262e+00    3.428757e+00
  2.941137e+00    3.348299e+00
  2.957013e+00    3.307207e+00
  2.972889e+00    3.308603e+00
  2.988764e+00    3.348125e+00
  3.004640e+00    3.339567e+00
  3.020515e+00    3.342626e+00
  3.036391e+00    3.405372e+00
  3.052266e+00    3.350622e+00
  3.068142e+00    3.312814e+00
  3.084018e+00    3.392794e+00
  3.099893e+00    3.392851e+00
  3.115769e+00    3.291376e+00
  3.131644e+00    3.396741e+00
  3.147520e+00    3.491615e+00
  3.163395e+00    3.380479e+00
  3.179271e+00    3.403772e+00
  3.195147e+00    3.380030e+00
  3.211022e+00    3.405214e+00
  3.226898e+00    3.384941e+00
  3.242773e+00    3.333166e+00
  3.258649e+00    3.514498e+00
  3.274525e+00    3.508065e+00
  3.290400e+00    3.447748e+00
  3.306276e+00    3.511898e+00
  3.322151e+00    3.555273e+00
  3.338027e+00    3.408967e+00
  3.353902e+00    3.443698e+00
  3.369778e+00    3.466422e+00
  3.385654e+00    3.395236e+00
  3.401529e+00    3.408959e+00
  3.417405e+00    3.435044e+00
  3.433280e+00    3.511982e+00
  3.449156e+00    3.440126e+00
  3.465031e+00    3.435075e+00
  3.480907e+00    3.297778e+00
  3.496783e+00    3.338346e+00
  3.512658e+00    3.543056e+00
  3.528534e+00    3.453028e+00
  3.544409e+00    3.424031e+00
  3.560285e+00    3.495290e+00
  3.576160e+00    3.389877e+00
  3.592036e+00    3.462828e+00
  3.607912e+00    3.558452e+00
  3.623787e+00    3.493077e+00
  3.639663e+00    3.507726e+00
  3.655538e+00    3.407050e+00
  3.671414e+00    3.331525e+00
  3.687289e+00    3.474755e+00
  3.703165e+00    3.485854e+00
  3.719041e+00    3.540846e+00
  3.734916e+00    3.472371e+00
  3.750792e+00    3.455812e+00
  3.766667e+00    3.490114e+00
  3.782543e+00    3.441647e+00
  3.798418e+00    3.473067e+00
  3.814294e+00    3.463743e+00
  3.830170e+00    3.579190e+00
  3.846045e+00    3.558490e+00
  3.861921e+00    3.522145e+00
  3.877796e+00    3.544431e+00
  3.893672e+00    3.455577e+00
  3.909547e+00    3.449174e+00
  3.925423e+00    3.498049e+00
  3.941299e+00    3.499480e+00
  3.957174e+00    3.506600e+00
  3.973050e+00    3.545705e+00
  3.988925e+00    3.457086e+00
  4.004801e+00    3.425746e+00
  4.020676e+00    3.589478e+00
  4.036552e+00    3.566005e+00
  4.052428e+00    3.463118e+00
  4.068303e+00    3.514386e+00
  4.084179e+00    3.565177e+00
  4.100054e+00    3.628334e+00
  4.115930e+00    3.608556e+00
  4.131806e+00    3.583357e+00
  4.147681e+00    3.525078e+00
  4.163557e+00    3.482205e+00
  4.179432e+00    3.530369e+00
  4.195308e+00    3.545972e+00
  4.211183e+00    3.467360e+00
  4.227059e+00    3.480299e+00
  4.242935e+00    3.577320e+00
  4.258810e+00    3.552246e+00
  4.274686e+00    3.517171e+00
  4.290561e+00    3.621186e+00
  4.306437e+00    3.619157e+00
  4.322312e+00    3.561361e+00
  4.338188e+00    3.601943e+00
  4.354064e+00    3.637415e+00
  4.369939e+00    3.587133e+00
  4.385815e+00    3.635581e+00
  4.401690e+00    3.585053e+00
  4.417566e+00    3.563890e+00
  4.433441e+00    3.616282e+00
  4.449317e+00    3.723858e+00
  4.465193e+00    3.655199e+00
  4.481068e+00    3.567672e+00
  4.496944e+00    3.580342e+00
  4.512819e+00    3.612856e+00
  4.528695e+00    3.548927e+00
  4.544570e+00    3.431663e+00
  4.560446e+00    3.567032e+00
  4.576322e+00    3.668154e+00
  4.592197e+00    3.613729e+00
  4.608073e+00    3.638865e+00
  4.623948e+00    3.662127e+00
  4.639824e+00    3.614235e+00
  4.655699e+00    3.668931e+00
  4.671575e+00    3.558041e+00
  4.687451e+00    3.526536e+00
  4.703326e+00    3.586890e+00
  4.719202e+00    3.626772e+00
  4.735077e+00    3.609360e+00
  4.750953e+00    3.596514e+00
  4.766828e+00    3.606461e+00
  4.782704e+00    3.697390e+00
  4.798580e+00    3.627407e+00
  4.814455e+00    3.577248e+00
  4.830331e+00    3.760530e+00
  4.846206e+00    3.690266e+00
  4.862082e+00    3.624964e+00
  4.877957e+00    3.668171e+00
  4.893833e+00    3.617533e+00
  4.909709e+00    3.599425e+00
  4.925584e+00    3.672779e+00
  4.941460e+00    3.691861e+00
  4.957335e+00    3.632056e+00
  4.973211e+00    3.640013e+00
  4.989086e+00    3.596210e+00
  5.004962e+00    3.634840e+00
  5.020838e+00    3.669980e+00
  5.036713e+00    3.650558e+00
  5.052589e+00    3.669251e+00
  5.068464e+00    3.652700e+00
  5.084340e+00    3.706514e+00
  5.100216e+00    3.683812e+00
  5.116091e+00    3.669761e+00
  5.131967e+00    3.636090e+00
  5.147842e+00    3.682875e+00
  5.163718e+00    3.658314e+00
  5.179593e+00    3.619154e+00
  5.195469e+00    3.656529e+00
  5.211345e+00    3.654622e+00
  5.227220e+00    3.656564e+00
  5.243096e+00    3.685452e+00
  5.258971e+00    3.698813e+00
  5.274847e+00    3.648953e+00
  5.290722e+00    3.633463e+00
  5.306598e+00    3.668475e+00
  5.322474e+00    3.691788e+00
  5.338349e+00    3.681975e+00
  5.354225e+00    3.708144e+00
  5.370100e+00    3.637696e+00
  5.385976e+00    3.658621e+00
  5.401851e+00    3.671937e+00
  5.417727e+00    3.634324e+00
  5.433603e+00    3.649834e+00
  5.449478e+00    3.661690e+00
  5.465354e+00    3.670526e+00
  5.481229e+00    3.599567e+00
  5.497105e+00    3.618716e+00
  5.512980e+00    3.567544e+00
  5.528856e+00    3.608313e+00
  5.544732e+00    3.647217e+00
  5.560607e+00    3.567247e+00
  5.576483e+00    3.550311e+00
  5.592358e+00    3.551600e+00
  5.608234e+00    3.618987e+00
  5.624109e+00    3.650968e+00
  5.639985e+00    3.635750e+00
  5.655861e+00    3.672039e+00
  5.671736e+00    3.685904e+00
  5.687612e+00    3.635848e+00
  5.703487e+00    3.559044e+00
  5.719363e+00    3.593204e+00
  5.735238e+00    3.570475e+00
  5.751114e+00    3.557281e+00
  5.766990e+00    3.681509e+00
  5.782865e+00    3.585621e+00
  5.798741e+00    3.613025e+00
  5.814616e+00    3.647491e+00
  5.830492e+00    3.586640e+00
  5.846367e+00    3.604762e+00
  5.862243e+00    3.644148e+00
  5.878119e+00    3.584146e+00
  5.893994e+00    3.575026e+00
  5.909870e+00    3.570179e+00
  5.925745e+00    3.607372e+00
  5.941621e+00    3.565590e+00
  5.957497e+00    3.619102e+00
  5.973372e+00    3.553707e+00
  5.989248e+00    3.569823e+00
  6.005123e+00    3.552159e+00
  6.020999e+00    3.466981e+00
  6.036874e+00    3.552972e+00
  6.052750e+00    3.541033e+00
  6.068626e+00    3.510998e+00
  6.084501e+00    3.552027e+00
  6.100377e+00    3.567650e+00
  6.116252e+00    3.611419e+00
  6.132128e+00    3.641008e+00
  6.148003e+00    3.609612e+00
  6.163879e+00    3.646291e+00
  6.179755e+00    3.613522e+00
  6.195630e+00    3.574247e+00
  6.211506e+00    3.556916e+00
  6.227381e+00    3.495060e+00
  6.243257e+00    3.463336e+00
  6.259132e+00    3.554894e+00
  6.275008e+00    3.595093e+00
  6.290884e+00    3.558892e+00
  6.306759e+00    3.549556e+00
  6.322635e+00    3.526282e+00
  6.338510e+00    3.542989e+00
  6.354386e+00    3.543028e+00
  6.370261e+00    3.526083e+00
  6.386137e+00    3.547297e+00
  6.402013e+00    3.548575e+00
  6.417888e+00    3.529352e+00
  6.433764e+00    3.597260e+00
  6.449639e+00    3.626207e+00
  6.465515e+00    3.599049e+00
  6.481390e+00    3.545561e+00
  6.497266e+00    3.563088e+00
  6.513142e+00    3.579188e+00
  6.529017e+00    3.665414e+00
  6.544893e+00    3.666439e+00
  6.560768e+00    3.666804e+00
  6.576644e+00    3.585126e+00
  6.592519e+00    3.560233e+00
  6.608395e+00    3.494974e+00
  6.624271e+00    3.574444e+00
  6.640146e+00    3.500706e+00
  6.656022e+00    3.537601e+00
  6.671897e+00    3.617476e+00
  6.687773e+00    3.576043e+00
  6.703648e+00    3.474039e+00
  6.719524e+00    3.434934e+00
  6.735400e+00    3.462395e+00
  6.751275e+00    3.569266e+00
  6.767151e+00    3.577409e+00
  6.783026e+00    3.495538e+00
  6.798902e+00    3.517311e+00
  6.814777e+00    3.569881e+00
  6.830653e+00    3.528507e+00
  6.846529e+00    3.495432e+00
  6.862404e+00    3.555403e+00
  6.878280e+00    3.526227e+00
  6.894155e+00    3.483186e+00
  6.910031e+00    3.489099e+00
  6.925907e+00    3.532201e+00
  6.941782e+00    3.560286e+00
  6.957658e+00    3.570453e+00
  6.973533e+00    3.532206e+00
  6.989409e+00    3.499211e+00
  7.005284e+00    3.558414e+00
  7.021160e+00    3.525181e+00
  7.037036e+00    3.524926e+00
  7.052911e+00    3.554857e+00
  7.068787e+00    3.573715e+00
  7.084662e+00    3.587865e+00
  7.100538e+00    3.582812e+00
  7.116413e+00    3.576323e+00
  7.132289e+00    3.558264e+00
  7.148165e+00    3.575390e+00
  7.164040e+00    3.551131e+00
  7.179916e+00    3.494463e+00
  7.195791e+00    3.439044e+00
  7.211667e+00    3.505356e+00
  7.227542e+00    3.507757e+00
  7.243418e+00    3.455298e+00
  7.259294e+00    3.477247e+00
  7.275169e+00    3.461293e+00
  7.291045e+00    3.538913e+00
  7.306920e+00    3.528062e+00
  7.322796e+00    3.548824e+00
  7.338671e+00    3.505421e+00
  7.354547e+00    3.495728e+00
  7.370423e+00    3.519917e+00
  7.386298e+00    3.547917e+00
  7.402174e+00    3.445821e+00
  7.418049e+00    3.465852e+00
  7.433925e+00    3.544939e+00
  7.449800e+00    3.511091e+00
  7.465676e+00    3.485520e+00
  7.481552e+00    3.466176e+00
  7.497427e+00    3.411420e+00
  7.513303e+00    3.423255e+00
  7.529178e+00    3.364367e+00
  7.545054e+00    3.384554e+00
  7.560929e+00    3.430981e+00
  7.576805e+00    3.416243e+00
  7.592681e+00    3.530081e+00
  7.608556e+00    3.466516e+00
  7.624432e+00    3.456573e+00
  7.640307e+00    3.449941e+00
  7.656183e+00    3.452930e+00
  7.672058e+00    3.424868e+00
  7.687934e+00    3.538569e+00
  7.703810e+00    3.507184e+00
  7.719685e+00    3.480624e+00
  7.735561e+00    3.502758e+00
  7.751436e+00    3.462992e+00
  7.767312e+00    3.458913e+00
  7.783187e+00    3.434573e+00
  7.799063e+00    3.480270e+00
  7.814939e+00    3.433996e+00
  7.830814e+00    3.398931e+00
  7.846690e+00    3.411517e+00
  7.862565e+00    3.472879e+00
  7.878441e+00    3.468612e+00
  7.894317e+00    3.530319e+00
  7.910192e+00    3.509931e+00
  7.926068e+00    3.506869e+00
  7.941943e+00    3.453418e+00
  7.957819e+00    3.352941e+00
  7.973694e+00    3.460078e+00
  7.989570e+00    3.470656e+00
  8.005446e+00    3.403870e+00
  8.021321e+00    3.380703e+00
  8.037197e+00    3.474222e+00
  8.053072e+00    3.449686e+00
  8.068948e+00    3.395237e+00
  8.084823e+00    3.349117e+00
  8.100699e+00    3.369758e+00
  8.116575e+00    3.407574e+00
  8.132450e+00    3.441705e+00
  8.148326e+00    3.407311e+00
  8.164201e+00    3.407434e+00
  8.180077e+00    3.455172e+00
  8.195952e+00    3.434352e+00
  8.211828e+00    3.446157e+00
  8.227704e+00    3.526698e+00
  8.243579e+00    3.539211e+00
  8.259455e+00    3.446751e+00
  8.275330e+00    3.431244e+00
  8.291206e+00    3.440298e+00
  8.307081e+00    3.447939e+00
  8.322957e+00    3.404242e+00
  8.338833e+00    3.402410e+00
  8.354708e+00    3.358925e+00
  8.370584e+00    3.280799e+00
  8.386459e+00    3.379407e+00
  8.402335e+00    3.413893e+00
  8.418210e+00    3.397845e+00
  8.434086e+00    3.448496e+00
  8.449962e+00    3.494706e+00
  8.465837e+00    3.463536e+00
  8.481713e+00    3.383597e+00
  8.497588e+00    3.392466e+00
  8.513464e+00    3.379133e+00
  8.529339e+00    3.333713e+00
  8.545215e+00    3.370086e+00
  8.561091e+00    3.414355e+00
  8.576966e+00    3.397353e+00
  8.592842e+00    3.350254e+00
  8.608717e+00    3.383688e+00
  8.624593e+00    3.398838e+00
  8.640468e+00    3.408324e+00
  8.656344e+00    3.380537e+00
  8.672220e+00    3.389855e+00
  8.688095e+00    3.324661e+00
  8.703971e+00    3.309329e+00
  8.719846e+00    3.353513e+00
  8.735722e+00    3.350491e+00
  8.751598e+00    3.317957e+00
  8.767473e+00    3.335630e+00
  8.783349e+00    3.282869e+00
  8.799224e+00    3.330249e+00
  8.815100e+00    3.372110e+00
  8.830975e+00    3.350691e+00
  8.846851e+00    3.313748e+00
  8.862727e+00    3.304148e+00
  8.878602e+00    3.318595e+00
  8.894478e+00    3.270233e+00
  8.910353e+00    3.308465e+00
  8.926229e+00    3.356166e+00
  8.942104e+00    3.343017e+00
  8.957980e+00    3.287168e+00
  8.973856e+00    3.306521e+00
  8.989731e+00    3.311553e+00
  9.005607e+00    3.286524e+00
  9.021482e+00    3.331523e+00
  9.037358e+00    3.408308e+00
  9.053233e+00    3.320396e+00
  9.069109e+00    3.241265e+00
  9.084985e+00    3.308011e+00
  9.100860e+00    3.330530e+00
  9.116736e+00    3.294470e+00
  9.132611e+00    3.270675e+00
  9.148487e+00    3.259292e+00
  9.164362e+00    3.287632e+00
  9.180238e+00    3.289668e+00
  9.196114e+00    3.274225e+00
  9.211989e+00    3.277956e+00
  9.227865e+00    3.231634e+00
  9.243740e+00    3.270339e+00
  9.259616e+00    3.237843e+00
  9.275491e+00    3.222571e+00
  9.291367e+00    3.258563e+00
  9.307243e+00    3.267142e+00
  9.323118e+00    3.251449e+00
  9.338994e+00    3.251489e+00
  9.354869e+00    3.224297e+00
  9.370745e+00    3.253521e+00
  9.386620e+00    3.288125e+00
  9.402496e+00    3.190692e+00
  9.418372e+00    3.177037e+00
  9.434247e+00    3.173688e+00
  9.450123e+00    3.200466e+00
  9.465998e+00    3.262401e+00
  9.481874e+00    3.240036e+00
  9.497749e+00    3.238234e+00
  9.513625e+00    3.195680e+00
  9.529501e+00    3.131659e+00
  9.545376e+00    3.121213e+00
  9.561252e+00    3.225024e+00
  9.577127e+00    3.254233e+00
  9.593003e+00    3.194082e+00
  9.608878e+00    3.163316e+00
  9.624754e+00    3.223403e+00
  9.640630e+00    3.236175e+00
  9.656505e+00    3.213869e+00
  9.672381e+00    3.215446e+00
  9.688256e+00    3.191570e+00
  9.704132e+00    3.175235e+00
  9.720008e+00    3.199763e+00
  9.735883e+00    3.144949e+00
  9.751759e+00    3.174534e+00
  9.767634e+00    3.152953e+00
  9.783510e+00    3.145371e+00
  9.799385e+00    3.129106e+00
  9.815261e+00    3.207242e+00
  9.831137e+00    3.160759e+00
  9.847012e+00    3.213622e+00
  9.862888e+00    3.153950e+00
  9.878763e+00    3.138855e+00
  9.894639e+00    3.187562e+00
  9.910514e+00    3.192806e+00
  9.926390e+00    3.158031e+00
  9.942266e+00    3.141387e+00
  9.958141e+00    3.155697e+00
  9.974017e+00    3.131397e+00
  9.989892e+00    3.169064e+00
  1.000577e+01    3.190788e+00
  1.002164e+01    3.149658e+00
  1.003752e+01    3.176618e+00
  1.005339e+01    3.162812e+00
  1.006927e+01    3.136703e+00
  1.008515e+01    3.113215e+00
  1.010102e+01    3.084334e+00
  1.011690e+01    3.121811e+00
  1.013277e+01    3.112628e+00
  1.014865e+01    3.126029e+00
  1.016452e+01    3.102643e+00
  1.018040e+01    3.095785e+00
  1.019627e+01    3.035037e+00
  1.021215e+01    3.027713e+00
  1.022803e+01    3.031054e+00
  1.024390e+01    3.063515e+00
  1.025978e+01    3.066434e+00
  1.027565e+01    3.057146e+00
  1.029153e+01    3.048380e+00
  1.030740e+01    3.099813e+00
  1.032328e+01    3.080848e+00
  1.033915e+01    3.030544e+00
  1.035503e+01    3.005792e+00
  1.037091e+01    3.052554e+00
  1.038678e+01    3.047942e+00
  1.040266e+01    3.039336e+00
  1.041853e+01    3.092185e+00
  1.043441e+01    3.055454e+00
  1.045028e+01    3.014104e+00
  1.046616e+01    3.010388e+00
  1.048204e+01    3.044904e+00
  1.049791e+01    3.032754e+00
  1.051379e+01    3.002488e+00
  1.052966e+01    3.014891e+00
  1.054554e+01    3.010662e+00
  1.056141e+01    3.040096e+00
  1.057729e+01    2.984832e+00
  1.059316e+01    2.983688e+00
  1.060904e+01    2.959735e+00
  1.062492e+01    2.937399e+00
  1.064079e+01    2.992950e+00
  1.065667e+01    3.025905e+00
  1.067254e+01    3.025196e+00
  1.068842e+01    3.026260e+00
  1.070429e+01    3.030764e+00
  1.072017e+01    2.992319e+00
  1.073604e+01    2.989047e+00
  1.075192e+01    3.010594e+00
  1.076780e+01    2.977941e+00
  1.078367e+01    2.974831e+00
  1.079955e+01    2.973677e+00
  1.081542e+01    2.970148e+00
  1.083130e+01    2.995213e+00
  1.084717e+01    2.988812e+00
  1.086305e+01    2.955199e+00
  1.087892e+01    2.889563e+00
  1.089480e+01    2.904290e+00
  1.091068e+01    2.929818e+00
  1.092655e+01    2.953308e+00
  1.094243e+01    2.937093e+00
  1.095830e+01    2.900450e+00
  1.097418e+01    2.838445e+00
  1.099005e+01    2.862186e+00
  1.100593e+01    2.936349e+00
  1.102180e+01    2.920172e+00
  1.103768e+01    2.887866e+00
  1.105356e+01    2.888540e+00
  1.106943e+01    2.905301e+00
  1.108531e+01    2.876327e+00
  1.110118e+01    2.912467e+00
  1.111706e+01    2.885877e+00
  1.113293e+01    2.866536e+00
  1.114881e+01    2.881722e+00
  1.116468e+01    2.883405e+00
  1.118056e+01    2.876921e+00
  1.119644e+01    2.819404e+00
  1.121231e+01    2.815836e+00
  1.122819e+01    2.796982e+00
  1.124406e+01    2.815673e+00
  1.125994e+01    2.829912e+00
  1.127581e+01    2.846486e+00
  1.129169e+01    2.860831e+00
  1.130756e+01    2.793171e+00
  1.132344e+01    2.793645e+00
  1.133932e+01    2.828846e+00
  1.135519e+01    2.835800e+00
  1.137107e+01    2.776911e+00
  1.138694e+01    2.853851e+00
  1.140282e+01    2.829130e+00
  1.141869e+01    2.819621e+00
  1.143457e+01    2.830519e+00
  1.145045e+01    2.798234e+00
  1.146632e+01    2.805751e+00
  1.148220e+01    2.794403e+00
  1.149807e+01    2.842262e+00
  1.151395e+01    2.823226e+00
  1.152982e+01    2.807375e+00
  1.154570e+01    2.799466e+00
  1.156157e+01    2.798814e+00
  1.157745e+01    2.780039e+00
  1.159333e+01    2.763417e+00
  1.160920e+01    2.787924e+00
  1.162508e+01    2.747503e+00
  1.164095e+01    2.708588e+00
  1.165683e+01    2.712615e+00
  1.167270e+01    2.739538e+00
  1.168858e+01    2.778171e+00
  1.170445e+01    2.775085e+00
  1.172033e+01    2.769122e+00
  1.173621e+01    2.740702e+00
  1.175208e+01    2.740567e+00
  1.176796e+01    2.739955e+00
  1.178383e+01    2.770358e+00
  1.179971e+01    2.810245e+00
  1.181558e+01    2.806519e+00
  1.183146e+01    2.756746e+00
  1.184733e+01    2.716884e+00
  1.186321e+01    2.780613e+00
  1.187909e+01    2.744092e+00
  1.189496e+01    2.717509e+00
  1.191084e+01    2.706200e+00
  1.192671e+01    2.720298e+00
  1.194259e+01    2.722041e+00
  1.195846e+01    2.722773e+00
  1.197434e+01    2.732061e+00
  1.199021e+01    2.736467e+00
  1.200609e+01    2.711807e+00
  1.202197e+01    2.721751e+00
  1.203784e+01    2.733946e+00
  1.205372e+01    2.719454e+00
  1.206959e+01    2.693512e+00
  1.208547e+01    2.705581e+00
  1.210134e+01    2.743558e+00
  1.211722e+01    2.729080e+00
  1.213309e+01    2.741085e+00
  1.214897e+01    2.761506e+00
  1.216485e+01    2.733071e+00
  1.218072e+01    2.711294e+00
  1.219660e+01    2.724807e+00
  1.221247e+01    2.696802e+00
  1.222835e+01    2.689972e+00
  1.224422e+01    2.715309e+00
  1.226010e+01    2.698853e+00
  1.227597e+01    2.640685e+00
  1.229185e+01    2.675006e+00
  1.230773e+01    2.682048e+00
  1.232360e+01    2.708382e+00
  1.233948e+01    2.718353e+00
  1.235535e+01    2.726948e+00
  1.237123e+01    2.699952e+00
  1.238710e+01    2.725208e+00
  1.240298e+01    2.708236e+00
  1.241886e+01    2.667560e+00
  1.243473e+01    2.706645e+00
  1.245061e+01    2.721103e+00
  1.246648e+01    2.710780e+00
  1.248236e+01    2.682714e+00
  1.249823e+01    2.679878e+00
  1.251411e+01    2.677336e+00
  1.252998e+01    2.664414e+00
  1.254586e+01    2.665520e+00
  1.256174e+01    2.729048e+00
  1.257761e+01    2.779783e+00
  1.259349e+01    2.748272e+00
  1.260936e+01    2.759066e+00
  1.262524e+01    2.805165e+00
  1.264111e+01    2.833809e+00
  1.265699e+01    2.767904e+00
  1.267286e+01    2.796038e+00
  1.268874e+01    2.806692e+00
  1.270462e+01    2.885883e+00
  1.272049e+01    2.940464e+00
  1.273637e+01    2.942380e+00
  1.275224e+01    2.909305e+00
  1.276812e+01    2.899800e+00
  1.278399e+01    2.978179e+00
  1.279987e+01    3.000118e+00
  1.281574e+01    3.050462e+00
  1.283162e+01    3.157676e+00
  1.284750e+01    3.196927e+00
  1.286337e+01    3.313856e+00
  1.287925e+01    3.444957e+00
  1.289512e+01    3.536238e+00
  1.291100e+01    3.669491e+00
  1.292687e+01    3.797877e+00
  1.294275e+01    4.129467e+00
  1.295862e+01    4.428397e+00
  1.297450e+01    4.855964e+00
  1.299038e+01    5.364371e+00
  1.300625e+01    5.988244e+00
  1.302213e+01    6.720428e+00
  1.303800e+01    7.683317e+00
  1.305388e+01    8.934585e+00
  1.306975e+01    1.016986e+01
  1.308563e+01    1.145972e+01
  1.310150e+01    1.270213e+01
  1.311738e+01    1.388230e+01
  1.313326e+01    1.489942e+01
  1.314913e+01    1.577928e+01
  1.316501e+01    1.642310e+01
  1.318088e+01    1.639192e+01
  1.319676e+01    1.565361e+01
  1.321263e+01    1.435544e+01
  1.322851e+01    1.257748e+01
  1.324438e+01    1.066487e+01
  1.326026e+01    9.086537e+00
  1.327614e+01    7.768684e+00
  1.329201e+01    6.777556e+00
  1.330789e+01    6.004660e+00
  1.332376e+01    5.395728e+00
  1.333964e+01    4.830862e+00
  1.335551e+01    4.446018e+00
  1.337139e+01    4.093066e+00
  1.338727e+01    3.876470e+00
  1.340314e+01    3.662114e+00
  1.341902e+01    3.488325e+00
  1.343489e+01    3.382294e+00
  1.345077e+01    3.227723e+00
  1.346664e+01    3.121050e+00
  1.348252e+01    3.022279e+00
  1.349839e+01    2.963713e+00
  1.351427e+01    2.868093e+00
  1.353015e+01    2.846020e+00
  1.354602e+01    2.808927e+00
  1.356190e+01    2.800448e+00
  1.357777e+01    2.773220e+00
  1.359365e+01    2.746771e+00
  1.360952e+01    2.688868e+00
  1.362540e+01    2.613723e+00
  1.364127e+01    2.597420e+00
  1.365715e+01    2.593460e+00
  1.367303e+01    2.629949e+00
  1.368890e+01    2.595577e+00
  1.370478e+01    2.578981e+00
  1.372065e+01    2.563764e+00
  1.373653e+01    2.527902e+00
  1.375240e+01    2.514319e+00
  1.376828e+01    2.563896e+00
  1.378415e+01    2.558753e+00
  1.380003e+01    2.501543e+00
  1.381591e+01    2.468565e+00
  1.383178e+01    2.438625e+00
  1.384766e+01    2.451281e+00
  1.386353e+01    2.427009e+00
  1.387941e+01    2.453474e+00
  1.389528e+01    2.441270e+00
  1.391116e+01    2.405810e+00
  1.392703e+01    2.418204e+00
  1.394291e+01    2.410960e+00
  1.395879e+01    2.400896e+00
  1.397466e+01    2.360295e+00
  1.399054e+01    2.371967e+00
  1.400641e+01    2.357526e+00
  1.402229e+01    2.338205e+00
  1.403816e+01    2.318121e+00
  1.405404e+01    2.320632e+00
  1.406991e+01    2.316548e+00
  1.408579e+01    2.309849e+00
  1.410167e+01    2.341676e+00
  1.411754e+01    2.325921e+00
  1.413342e+01    2.339137e+00
  1.414929e+01    2.363820e+00
  1.416517e+01    2.306765e+00
  1.418104e+01    2.316220e+00
  1.419692e+01    2.290596e+00
  1.421279e+01    2.280329e+00
  1.422867e+01    2.290709e+00
  1.424455e+01    2.256404e+00
  1.426042e+01    2.234299e+00
  1.427630e+01    2.252484e+00
  1.429217e+01    2.257209e+00
  1.430805e+01    2.245954e+00
  1.432392e+01    2.268136e+00
  1.433980e+01    2.265967e+00
  1.435568e+01    2.255307e+00
  1.437155e+01    2.260156e+00
  1.438743e+01    2.311848e+00
  1.440330e+01    2.265121e+00
  1.441918e+01    2.239062e+00
  1.443505e+01    2.218347e+00
  1.445093e+01    2.230800e+00
  1.446680e+01    2.217088e+00
  1.448268e+01    2.250912e+00
  1.449856e+01    2.231324e+00
  1.451443e+01    2.236335e+00
  1.453031e+01    2.242023e+00
  1.454618e+01    2.248483e+00
  1.456206e+01    2.248165e+00
  1.457793e+01    2.228300e+00
  1.459381e+01    2.227643e+00
  1.460968e+01    2.237466e+00
  1.462556e+01    2.223128e+00
  1.464144e+01    2.229684e+00
  1.465731e+01    2.214460e+00
  1.467319e+01    2.224959e+00
  1.468906e+01    2.206760e+00
  1.470494e+01    2.204220e+00
  1.472081e+01    2.252747e+00
  1.473669e+01    2.231353e+00
  1.475256e+01    2.216542e+00
  1.476844e+01    2.198284e+00
  1.478432e+01    2.203676e+00
  1.480019e+01    2.201467e+00
  1.481607e+01    2.218349e+00
  1.483194e+01    2.176378e+00
  1.484782e+01    2.170886e+00
  1.486369e+01    2.228977e+00
  1.487957e+01    2.220739e+00
  1.489544e+01    2.260293e+00
  1.491132e+01    2.329284e+00
  1.492720e+01    2.301468e+00
  1.494307e+01    2.332435e+00
  1.495895e+01    2.322598e+00
  1.497482e+01    2.336059e+00
  1.499070e+01    2.430287e+00
  1.500657e+01    2.456337e+00
  1.502245e+01    2.524460e+00
  1.503832e+01    2.567634e+00
  1.505420e+01    2.643955e+00
  1.507008e+01    2.819816e+00
  1.508595e+01    2.962530e+00
  1.510183e+01    3.199074e+00
  1.511770e+01    3.517183e+00
  1.513358e+01    3.774399e+00
  1.514945e+01    4.127997e+00
  1.516533e+01    4.481167e+00
  1.518120e+01    4.815523e+00
  1.519708e+01    5.168075e+00
  1.521296e+01    5.429523e+00
  1.522883e+01    5.703857e+00
  1.524471e+01    5.775080e+00
  1.526058e+01    5.841880e+00
  1.527646e+01    5.765692e+00
  1.529233e+01    5.504132e+00
  1.530821e+01    5.183775e+00
  1.532409e+01    4.761936e+00
  1.533996e+01    4.235613e+00
  1.535584e+01    3.743717e+00
  1.537171e+01    3.448322e+00
  1.538759e+01    3.191569e+00
  1.540346e+01    2.971801e+00
  1.541934e+01    2.769482e+00
  1.543521e+01    2.591156e+00
  1.545109e+01    2.513893e+00
  1.546697e+01    2.412070e+00
  1.548284e+01    2.371762e+00
  1.549872e+01    2.297999e+00
  1.551459e+01    2.219643e+00
  1.553047e+01    2.186880e+00
  1.554634e+01    2.167318e+00
  1.556222e+01    2.211571e+00
  1.557809e+01    2.123373e+00
  1.559397e+01    2.116253e+00
  1.560985e+01    2.085175e+00
  1.562572e+01    2.074297e+00
  1.564160e+01    2.045661e+00
  1.565747e+01    2.038867e+00
  1.567335e+01    2.020732e+00
  1.568922e+01    2.001319e+00
  1.570510e+01    2.013957e+00
  1.572097e+01    1.982916e+00
  1.573685e+01    2.017172e+00
  1.575273e+01    1.973003e+00
  1.576860e+01    1.965373e+00
  1.578448e+01    1.955494e+00
  1.580035e+01    1.922136e+00
  1.581623e+01    1.940505e+00
  1.583210e+01    1.954367e+00
  1.584798e+01    1.924794e+00
  1.586385e+01    1.925577e+00
  1.587973e+01    1.922594e+00
  1.589561e+01    1.887265e+00
  1.591148e+01    1.897460e+00
  1.592736e+01    1.911710e+00
  1.594323e+01    1.917342e+00
  1.595911e+01    1.897871e+00
  1.597498e+01    1.860070e+00
  1.599086e+01    1.868451e+00
  1.600673e+01    1.871172e+00
  1.602261e+01    1.867296e+00
  1.603849e+01    1.853044e+00
  1.605436e+01    1.853396e+00
  1.607024e+01    1.856436e+00
  1.608611e+01    1.878708e+00
  1.610199e+01    1.857515e+00
  1.611786e+01    1.838992e+00
  1.613374e+01    1.827274e+00
  1.614961e+01    1.834102e+00
  1.616549e+01    1.863587e+00
  1.618137e+01    1.884981e+00
  1.619724e+01    1.850367e+00
  1.621312e+01    1.835938e+00
  1.622899e+01    1.816407e+00
  1.624487e+01    1.807142e+00
  1.626074e+01    1.819506e+00
  1.627662e+01    1.815914e+00
  1.629250e+01    1.801864e+00
  1.630837e+01    1.818113e+00
  1.632425e+01    1.819315e+00
  1.634012e+01    1.820666e+00
  1.635600e+01    1.801864e+00
  1.637187e+01    1.779416e+00
  1.638775e+01    1.789237e+00
  1.640362e+01    1.773733e+00
  1.641950e+01    1.780914e+00
  1.643538e+01    1.777599e+00
  1.645125e+01    1.739431e+00
  1.646713e+01    1.753629e+00
  1.648300e+01    1.782140e+00
  1.649888e+01    1.804212e+00
  1.651475e+01    1.772429e+00
  1.653063e+01    1.765115e+00
  1.654650e+01    1.781856e+00
  1.656238e+01    1.799338e+00
  1.657826e+01    1.726910e+00
  1.659413e+01    1.707049e+00
  1.661001e+01    1.722057e+00
  1.662588e+01    1.706320e+00
  1.664176e+01    1.713031e+00
  1.665763e+01    1.738768e+00
  1.667351e+01    1.725337e+00
  1.668938e+01    1.695262e+00
  1.670526e+01    1.674418e+00
  1.672114e+01    1.693231e+00
  1.673701e+01    1.720247e+00
  1.675289e+01    1.721474e+00
  1.676876e+01    1.715776e+00
  1.678464e+01    1.719279e+00
  1.680051e+01    1.729280e+00
  1.681639e+01    1.732188e+00
  1.683226e+01    1.720060e+00
  1.684814e+01    1.680605e+00
  1.686402e+01    1.677260e+00
  1.687989e+01    1.679859e+00
  1.689577e+01    1.697670e+00
  1.691164e+01    1.704062e+00
  1.692752e+01    1.689945e+00
  1.694339e+01    1.734377e+00
  1.695927e+01    1.704649e+00
  1.697514e+01    1.658992e+00
  1.699102e+01    1.648268e+00
  1.700690e+01    1.672778e+00
  1.702277e+01    1.642211e+00
  1.703865e+01    1.651062e+00
  1.705452e+01    1.671998e+00
  1.707040e+01    1.674993e+00
  1.708627e+01    1.666229e+00
  1.710215e+01    1.674555e+00
  1.711802e+01    1.653313e+00
  1.713390e+01    1.652879e+00
  1.714978e+01    1.610809e+00
  1.716565e+01    1.607759e+00
  1.718153e+01    1.640253e+00
  1.719740e+01    1.640624e+00
  1.721328e+01    1.592453e+00
  1.722915e+01    1.629978e+00
  1.724503e+01    1.621402e+00
  1.726091e+01    1.630772e+00
  1.727678e+01    1.646008e+00
  1.729266e+01    1.619514e+00
  1.730853e+01    1.618477e+00
  1.732441e+01    1.624855e+00
  1.734028e+01    1.662460e+00
  1.735616e+01    1.605197e+00
  1.737203e+01    1.613716e+00
  1.738791e+01    1.602660e+00
  1.740379e+01    1.575310e+00
  1.741966e+01    1.590722e+00
  1.743554e+01    1.617019e+00
  1.745141e+01    1.621233e+00
  1.746729e+01    1.579367e+00
  1.748316e+01    1.588806e+00
  1.749904e+01    1.608703e+00
  1.751491e+01    1.584650e+00
  1.753079e+01    1.573908e+00
  1.754667e+01    1.570246e+00
  1.756254e+01    1.565579e+00
  1.757842e+01    1.598890e+00
  1.759429e+01    1.563118e+00
  1.761017e+01    1.559746e+00
  1.762604e+01    1.589326e+00
  1.764192e+01    1.570241e+00
  1.765779e+01    1.566512e+00
  1.767367e+01    1.576439e+00
  1.768955e+01    1.579579e+00
  1.770542e+01    1.565520e+00
  1.772130e+01    1.567592e+00
  1.773717e+01    1.529146e+00
  1.775305e+01    1.534102e+00
  1.776892e+01    1.534025e+00
  1.778480e+01    1.529429e+00
  1.780067e+01    1.529352e+00
  1.781655e+01    1.509570e+00
  1.783243e+01    1.504480e+00
  1.784830e+01    1.540458e+00
  1.786418e+01    1.524881e+00
  1.788005e+01    1.502877e+00
  1.789593e+01    1.509426e+00
  1.791180e+01    1.531404e+00
  1.792768e+01    1.535632e+00
  1.794355e+01    1.522495e+00
  1.795943e+01    1.548800e+00
  1.797531e+01    1.551098e+00
  1.799118e+01    1.524841e+00
  1.800706e+01    1.510870e+00
  1.802293e+01    1.513434e+00
  1.803881e+01    1.502039e+00
  1.805468e+01    1.491276e+00
  1.807056e+01    1.503405e+00
  1.808643e+01    1.522683e+00
  1.810231e+01    1.500353e+00
  1.811819e+01    1.478894e+00
  1.813406e+01    1.496279e+00
  1.814994e+01    1.497168e+00
  1.816581e+01    1.474816e+00
  1.818169e+01    1.499133e+00
  1.819756e+01    1.519979e+00
  1.821344e+01    1.513375e+00
  1.822932e+01    1.475374e+00
  1.824519e+01    1.496538e+00
  1.826107e+01    1.480388e+00
  1.827694e+01    1.489420e+00
  1.829282e+01    1.507743e+00
  1.830869e+01    1.486841e+00
  1.832457e+01    1.468250e+00
  1.834044e+01    1.479901e+00
  1.835632e+01    1.483478e+00
  1.837220e+01    1.459516e+00
  1.838807e+01    1.463411e+00
  1.840395e+01    1.476425e+00
  1.841982e+01    1.457289e+00
  1.843570e+01    1.434236e+00
  1.845157e+01    1.443442e+00
  1.846745e+01    1.447273e+00
  1.848332e+01    1.428461e+00
  1.849920e+01    1.464994e+00
  1.851508e+01    1.480611e+00
  1.853095e+01    1.428862e+00
  1.854683e+01    1.446700e+00
  1.856270e+01    1.450803e+00
  1.857858e+01    1.436584e+00
  1.859445e+01    1.422720e+00
  1.861033e+01    1.404929e+00
  1.862620e+01    1.396609e+00
  1.864208e+01    1.423138e+00
  1.865796e+01    1.449843e+00
  1.867383e+01    1.441276e+00
  1.868971e+01    1.431235e+00
  1.870558e+01    1.413633e+00
  1.872146e+01    1.411400e+00
  1.873733e+01    1.413356e+00
  1.875321e+01    1.416768e+00
  1.876908e+01    1.399119e+00
  1.878496e+01    1.404436e+00
  1.880084e+01    1.395517e+00
  1.881671e+01    1.383558e+00
  1.883259e+01    1.393772e+00
  1.884846e+01    1.409581e+00
  1.886434e+01    1.405441e+00
  1.888021e+01    1.388175e+00
  1.889609e+01    1.411006e+00
  1.891196e+01    1.408122e+00
  1.892784e+01    1.424316e+00
  1.894372e+01    1.401855e+00
  1.895959e+01    1.401473e+00
  1.897547e+01    1.373551e+00
  1.899134e+01    1.370173e+00
  1.900722e+01    1.390638e+00
  1.902309e+01    1.397478e+00
  1.903897e+01    1.365193e+00
  1.905484e+01    1.376292e+00
  1.907072e+01    1.382202e+00
  1.908660e+01    1.361945e+00
  1.910247e+01    1.364451e+00
  1.911835e+01    1.366345e+00
  1.913422e+01    1.358917e+00
  1.915010e+01    1.350322e+00
  1.916597e+01    1.349053e+00
  1.918185e+01    1.339638e+00
  1.919773e+01    1.363607e+00
  1.921360e+01    1.338691e+00
  1.922948e+01    1.343909e+00
  1.924535e+01    1.373970e+00
  1.926123e+01    1.366715e+00
  1.927710e+01    1.361932e+00
  1.929298e+01    1.356060e+00
  1.930885e+01    1.346423e+00
  1.932473e+01    1.375851e+00
  1.934061e+01    1.387021e+00
  1.935648e+01    1.363635e+00
  1.937236e+01    1.323440e+00
  1.938823e+01    1.315417e+00
  1.940411e+01    1.334588e+00
  1.941998e+01    1.384356e+00
  1.943586e+01    1.346342e+00
  1.945173e+01    1.349286e+00
  1.946761e+01    1.337327e+00
  1.948349e+01    1.333627e+00
  1.949936e+01    1.319757e+00
  1.951524e+01    1.314619e+00
  1.953111e+01    1.327740e+00
  1.954699e+01    1.345584e+00
  1.956286e+01    1.358366e+00
  1.957874e+01    1.353296e+00
  1.959461e+01    1.337905e+00
  1.961049e+01    1.329126e+00
  1.962637e+01    1.321600e+00
  1.964224e+01    1.303432e+00
  1.965812e+01    1.312534e+00
  1.967399e+01    1.329974e+00
  1.968987e+01    1.309604e+00
  1.970574e+01    1.329637e+00
  1.972162e+01    1.324443e+00
  1.973749e+01    1.296495e+00
  1.975337e+01    1.303982e+00
  1.976925e+01    1.282566e+00
  1.978512e+01    1.299043e+00
  1.980100e+01    1.304007e+00
  1.981687e+01    1.277506e+00
  1.983275e+01    1.289698e+00
  1.984862e+01    1.298269e+00
  1.986450e+01    1.277990e+00
  1.988037e+01    1.283120e+00
  1.989625e+01    1.313738e+00
  1.991213e+01    1.285235e+00
  1.992800e+01    1.286962e+00
  1.994388e+01    1.296818e+00
  1.995975e+01    1.289943e+00
  1.997563e+01    1.287179e+00
  1.999150e+01    1.277321e+00
  2.000738e+01    1.285514e+00
  2.002325e+01    1.273682e+00
  2.003913e+01    1.306496e+00
  2.005501e+01    1.304523e+00
  2.007088e+01    1.273546e+00
  2.008676e+01    1.246584e+00
  2.010263e+01    1.268638e+00
  2.011851e+01    1.276497e+00
  2.013438e+01    1.281283e+00
  2.015026e+01    1.282674e+00
  2.016614e+01    1.266965e+00
  2.018201e+01    1.279467e+00
  2.019789e+01    1.275226e+00
  2.021376e+01    1.263166e+00
  2.022964e+01    1.246998e+00
  2.024551e+01    1.248947e+00
  2.026139e+01    1.238191e+00
  2.027726e+01    1.260949e+00
  2.029314e+01    1.259959e+00
  2.030902e+01    1.268107e+00
  2.032489e+01    1.257638e+00
  2.034077e+01    1.255477e+00
  2.035664e+01    1.280195e+00
  2.037252e+01    1.255108e+00
  2.038839e+01    1.260781e+00
  2.040427e+01    1.264505e+00
  2.042014e+01    1.276067e+00
  2.043602e+01    1.223193e+00
  2.045190e+01    1.235532e+00
  2.046777e+01    1.258388e+00
  2.048365e+01    1.242257e+00
  2.049952e+01    1.242656e+00
  2.051540e+01    1.247549e+00
  2.053127e+01    1.224434e+00
  2.054715e+01    1.237240e+00
  2.056302e+01    1.231596e+00
  2.057890e+01    1.224043e+00
  2.059478e+01    1.232749e+00
  2.061065e+01    1.212191e+00
  2.062653e+01    1.241674e+00
  2.064240e+01    1.237369e+00
  2.065828e+01    1.235735e+00
  2.067415e+01    1.220291e+00
  2.069003e+01    1.226069e+00
  2.070590e+01    1.243736e+00
  2.072178e+01    1.246574e+00
  2.073766e+01    1.244330e+00
  2.075353e+01    1.213217e+00
  2.076941e+01    1.208264e+00
  2.078528e+01    1.242697e+00
  2.080116e+01    1.244164e+00
  2.081703e+01    1.227043e+00
  2.083291e+01    1.238543e+00
  2.084878e+01    1.241922e+00
  2.086466e+01    1.219331e+00
  2.088054e+01    1.210501e+00
  2.089641e+01    1.219817e+00
  2.091229e+01    1.220007e+00
  2.092816e+01    1.233024e+00
  2.094404e+01    1.265123e+00
  2.095991e+01    1.230640e+00
  2.097579e+01    1.205366e+00
  2.099166e+01    1.208529e+00
  2.100754e+01    1.219272e+00
  2.102342e+01    1.216130e+00
  2.103929e+01    1.216987e+00
  2.105517e+01    1.224808e+00
  2.107104e+01    1.227484e+00
  2.108692e+01    1.209714e+00
  2.110279e+01    1.248261e+00
  2.111867e+01    1.270399e+00
  2.113455e+01    1.231895e+00
  2.115042e+01    1.219894e+00
  2.116630e+01    1.228307e+00
  2.118217e+01    1.241023e+00
  2.119805e+01    1.244750e+00
  2.121392e+01    1.238614e+00
  2.122980e+01    1.238691e+00
  2.124567e+01    1.246920e+00
  2.126155e+01    1.248890e+00
  2.127743e+01    1.254627e+00
  2.129330e+01    1.268717e+00
  2.130918e+01    1.246681e+00
  2.132505e+01    1.273563e+00
  2.134093e+01    1.297910e+00
  2.135680e+01    1.287019e+00
  2.137268e+01    1.300788e+00
  2.138855e+01    1.306995e+00
  2.140443e+01    1.327203e+00
  2.142031e+01    1.325388e+00
  2.143618e+01    1.321666e+00
  2.145206e+01    1.344633e+00
  2.146793e+01    1.384028e+00
  2.148381e+01    1.409866e+00
  2.149968e+01    1.429277e+00
  2.151556e+01    1.475480e+00
  2.153143e+01    1.490207e+00
  2.154731e+01    1.528075e+00
  2.156319e+01    1.558070e+00
  2.157906e+01    1.620817e+00
  2.159494e+01    1.668700e+00
  2.161081e+01    1.747957e+00
  2.162669e+01    1.855384e+00
  2.164256e+01    1.990888e+00
  2.165844e+01    2.139483e+00
  2.167431e+01    2.299707e+00
  2.169019e+01    2.480162e+00
  2.170607e+01    2.783609e+00
  2.172194e+01    3.160229e+00
  2.173782e+01    3.552200e+00
  2.175369e+01    4.074952e+00
  2.176957e+01    4.589017e+00
  2.178544e+01    5.171307e+00
  2.180132e+01    5.855049e+00
  2.181719e+01    6.564770e+00
  2.183307e+01    7.201673e+00
  2.184895e+01    7.804044e+00
  2.186482e+01    8.388554e+00
  2.188070e+01    8.805802e+00
  2.189657e+01    9.014910e+00
  2.191245e+01    8.752813e+00
  2.192832e+01    8.205018e+00
  2.194420e+01    7.454149e+00
  2.196007e+01    6.598353e+00
  2.197595e+01    5.716737e+00
  2.199183e+01    4.883140e+00
  2.200770e+01    4.210279e+00
  2.202358e+01    3.620977e+00
  2.203945e+01    3.178807e+00
  2.205533e+01    2.853218e+00
  2.207120e+01    2.589666e+00
  2.208708e+01    2.344355e+00
  2.210296e+01    2.154576e+00
  2.211883e+01    1.995013e+00
  2.213471e+01    1.845725e+00
  2.215058e+01    1.770596e+00
  2.216646e+01    1.678751e+00
  2.218233e+01    1.593751e+00
  2.219821e+01    1.567189e+00
  2.221408e+01    1.519445e+00
  2.222996e+01    1.447419e+00
  2.224584e+01    1.395071e+00
  2.226171e+01    1.388863e+00
  2.227759e+01    1.370256e+00
  2.229346e+01    1.330819e+00
  2.230934e+01    1.295912e+00
  2.232521e+01    1.273322e+00
  2.234109e+01    1.267383e+00
  2.235696e+01    1.240798e+00
  2.237284e+01    1.230690e+00
  2.238872e+01    1.216825e+00
  2.240459e+01    1.193179e+00
  2.242047e+01    1.182477e+00
  2.243634e+01    1.206315e+00
  2.245222e+01    1.208842e+00
  2.246809e+01    1.182037e+00
  2.248397e+01    1.156619e+00
  2.249984e+01    1.150914e+00
  2.251572e+01    1.146909e+00
  2.253160e+01    1.143024e+00
  2.254747e+01    1.139328e+00
  2.256335e+01    1.130315e+00
  2.257922e+01    1.130890e+00
  2.259510e+01    1.107162e+00
  2.261097e+01    1.087289e+00
  2.262685e+01    1.089406e+00
  2.264272e+01    1.104988e+00
  2.265860e+01    1.080622e+00
  2.267448e+01    1.090291e+00
  2.269035e+01    1.094695e+00
  2.270623e+01    1.094790e+00
  2.272210e+01    1.081807e+00
  2.273798e+01    1.066564e+00
  2.275385e+01    1.062891e+00
  2.276973e+01    1.050869e+00
  2.278560e+01    1.056308e+00
  2.280148e+01    1.052485e+00
  2.281736e+01    1.043765e+00
  2.283323e+01    1.048509e+00
  2.284911e+01    1.041565e+00
  2.286498e+01    1.027534e+00
  2.288086e+01    1.035646e+00
  2.289673e+01    1.048011e+00
  2.291261e+01    1.034031e+00
  2.292848e+01    1.013270e+00
  2.294436e+01    1.018124e+00
  2.296024e+01    1.013055e+00
  2.297611e+01    1.022764e+00
  2.299199e+01    1.007425e+00
  2.300786e+01    1.021663e+00
  2.302374e+01    1.042513e+00
  2.303961e+01    1.020541e+00
  2.305549e+01    1.001443e+00
  2.307137e+01    1.002622e+00
  2.308724e+01    1.015559e+00
  2.310312e+01    1.024284e+00
  2.311899e+01    1.001992e+00
  2.313487e+01    9.802762e-01
  2.315074e+01    9.918641e-01
  2.316662e+01    9.962065e-01
  2.318249e+01    9.961297e-01
  2.319837e+01    1.000565e+00
  2.321425e+01    1.013467e+00
  2.323012e+01    9.964498e-01
  2.324600e+01    1.018698e+00
  2.326187e+01    1.014758e+00
  2.327775e+01    9.774431e-01
  2.329362e+01    9.593408e-01
  2.330950e+01    9.560808e-01
  2.332537e+01    9.782130e-01
  2.334125e+01    1.005071e+00
  2.335713e+01    9.931571e-01
  2.337300e+01    9.994162e-01
  2.338888e+01    9.878203e-01
  2.340475e+01    9.741691e-01
  2.342063e+01    9.685946e-01
  2.343650e+01    9.575650e-01
  2.345238e+01    9.694777e-01
  2.346825e+01    9.608726e-01
  2.348413e+01    9.654326e-01
  2.350001e+01    9.677675e-01
  2.351588e+01    9.732870e-01
  2.353176e+01    9.648427e-01
  2.354763e+01    9.437975e-01
  2.356351e+01    9.531969e-01
  2.357938e+01    9.857712e-01
  2.359526e+01    9.871420e-01
  2.361113e+01    9.656976e-01
  2.362701e+01    9.655575e-01
  2.364289e+01    9.632615e-01
  2.365876e+01    9.296634e-01
  2.367464e+01    9.516510e-01
  2.369051e+01    9.686394e-01
  2.370639e+01    9.581665e-01
  2.372226e+01    9.531031e-01
  2.373814e+01    9.591708e-01
  2.375401e+01    9.337214e-01
  2.376989e+01    9.241837e-01
  2.378577e+01    9.225867e-01
  2.380164e+01    9.128121e-01
  2.381752e+01    9.218259e-01
  2.383339e+01    9.109043e-01
  2.384927e+01    9.121941e-01
  2.386514e+01    9.234371e-01
  2.388102e+01    9.099100e-01
  2.389689e+01    9.117294e-01
  2.391277e+01    9.068457e-01
  2.392865e+01    9.203153e-01
  2.394452e+01    8.934919e-01
  2.396040e+01    9.108604e-01
  2.397627e+01    9.142259e-01
  2.399215e+01    9.240022e-01
  2.400802e+01    8.968127e-01
  2.402390e+01    8.924406e-01
  2.403978e+01    9.007098e-01
  2.405565e+01    8.805351e-01
  2.407153e+01    9.054821e-01
  2.408740e+01    9.078078e-01
  2.410328e+01    8.881208e-01
  2.411915e+01    8.698259e-01
  2.413503e+01    8.887767e-01
  2.415090e+01    9.099716e-01
  2.416678e+01    8.794746e-01
  2.418266e+01    8.868559e-01
  2.419853e+01    8.870691e-01
  2.421441e+01    8.911076e-01
  2.423028e+01    8.834493e-01
  2.424616e+01    8.782106e-01
  2.426203e+01    8.806549e-01
  2.427791e+01    9.132472e-01
  2.429378e+01    8.962275e-01
  2.430966e+01    9.051186e-01
  2.432554e+01    8.824959e-01
  2.434141e+01    8.879891e-01
  2.435729e+01    8.715869e-01
  2.437316e+01    8.895416e-01
  2.438904e+01    9.194788e-01
  2.440491e+01    9.040502e-01
  2.442079e+01    8.894785e-01
  2.443666e+01    8.958740e-01
  2.445254e+01    8.958922e-01
  2.446842e+01    9.073215e-01
  2.448429e+01    9.007823e-01
  2.450017e+01    8.920817e-01
  2.451604e+01    8.832662e-01
  2.453192e+01    9.044448e-01
  2.454779e+01    8.937916e-01
  2.456367e+01    8.991437e-01
  2.457954e+01    8.917530e-01
  2.459542e+01    8.805881e-01
  2.461130e+01    8.772153e-01
  2.462717e+01    8.912812e-01
  2.464305e+01    9.162865e-01
  2.465892e+01    9.003904e-01
  2.467480e+01    8.894659e-01
  2.469067e+01    9.102960e-01
  2.470655e+01    8.779792e-01
  2.472242e+01    8.806721e-01
  2.473830e+01    8.787688e-01
  2.475418e+01    8.754816e-01
  2.477005e+01    8.978755e-01
  2.478593e+01    8.935392e-01
  2.480180e+01    8.961105e-01
  2.481768e+01    8.976975e-01
  2.483355e+01    8.881216e-01
  2.484943e+01    8.996953e-01
  2.486530e+01    8.816758e-01
  2.488118e+01    8.864629e-01
  2.489706e+01    9.088750e-01
  2.491293e+01    8.982789e-01
  2.492881e+01    8.998664e-01
  2.494468e+01    8.813388e-01
  2.496056e+01    8.871877e-01
  2.497643e+01    8.792095e-01
  2.499231e+01    8.925033e-01
  2.500819e+01    8.964101e-01
  2.502406e+01    9.012790e-01
  2.503994e+01    8.939214e-01
  2.505581e+01    8.908298e-01
  2.507169e+01    8.969386e-01
  2.508756e+01    8.965219e-01
  2.510344e+01    8.821801e-01
  2.511931e+01    8.798466e-01
  2.513519e+01    9.099058e-01
  2.515107e+01    9.149150e-01
  2.516694e+01    9.195799e-01
  2.518282e+01    9.208424e-01
  2.519869e+01    9.267008e-01
  2.521457e+01    9.252208e-01
  2.523044e+01    9.260530e-01
  2.524632e+01    9.513804e-01
  2.526219e+01    9.543370e-01
  2.527807e+01    9.506474e-01
  2.529395e+01    9.570692e-01
  2.530982e+01    9.781741e-01
  2.532570e+01    9.812096e-01
  2.534157e+01    9.761709e-01
  2.535745e+01    9.795106e-01
  2.537332e+01    9.795361e-01
  2.538920e+01    9.621397e-01
  2.540507e+01    9.689710e-01
  2.542095e+01    9.942606e-01
  2.543683e+01    9.944420e-01
  2.545270e+01    1.008188e+00
  2.546858e+01    1.044689e+00
  2.548445e+01    1.049372e+00
  2.550033e+01    1.047601e+00
  2.551620e+01    1.066702e+00
  2.553208e+01    1.090946e+00
  2.554795e+01    1.097448e+00
  2.556383e+01    1.158945e+00
  2.557971e+01    1.174188e+00
  2.559558e+01    1.198883e+00
  2.561146e+01    1.229736e+00
  2.562733e+01    1.263858e+00
  2.564321e+01    1.320679e+00
  2.565908e+01    1.381023e+00
  2.567496e+01    1.440235e+00
  2.569083e+01    1.486325e+00
  2.570671e+01    1.570334e+00
  2.572259e+01    1.707940e+00
  2.573846e+01    1.817870e+00
  2.575434e+01    2.009017e+00
  2.577021e+01    2.245567e+00
  2.578609e+01    2.463034e+00
  2.580196e+01    2.807187e+00
  2.581784e+01    3.219822e+00
  2.583371e+01    3.666487e+00
  2.584959e+01    4.167869e+00
  2.586547e+01    4.712243e+00
  2.588134e+01    5.325471e+00
  2.589722e+01    5.856482e+00
  2.591309e+01    6.330573e+00
  2.592897e+01    6.853019e+00
  2.594484e+01    7.158454e+00
  2.596072e+01    7.174468e+00
  2.597660e+01    6.972434e+00
  2.599247e+01    6.563905e+00
  2.600835e+01    5.981060e+00
  2.602422e+01    5.273488e+00
  2.604010e+01    4.594813e+00
  2.605597e+01    3.973177e+00
  2.607185e+01    3.434505e+00
  2.608772e+01    3.015679e+00
  2.610360e+01    2.675696e+00
  2.611948e+01    2.360608e+00
  2.613535e+01    2.099974e+00
  2.615123e+01    1.909974e+00
  2.616710e+01    1.794147e+00
  2.618298e+01    1.692822e+00
  2.619885e+01    1.597163e+00
  2.621473e+01    1.490535e+00
  2.623060e+01    1.389447e+00
  2.624648e+01    1.343369e+00
  2.626236e+01    1.285486e+00
  2.627823e+01    1.255039e+00
  2.629411e+01    1.221713e+00
  2.630998e+01    1.200118e+00
  2.632586e+01    1.157607e+00
  2.634173e+01    1.129733e+00
  2.635761e+01    1.108134e+00
  2.637348e+01    1.106384e+00
  2.638936e+01    1.087632e+00
  2.640524e+01    1.062003e+00
  2.642111e+01    1.050839e+00
  2.643699e+01    1.028906e+00
  2.645286e+01    1.024662e+00
  2.646874e+01    1.011636e+00
  2.648461e+01    1.027986e+00
  2.650049e+01    1.043838e+00
  2.651636e+01    1.031435e+00
  2.653224e+01    1.019053e+00
  2.654812e+01    1.010700e+00
  2.656399e+01    9.986205e-01
  2.657987e+01    1.003484e+00
  2.659574e+01    9.942083e-01
  2.661162e+01    9.747286e-01
  2.662749e+01    9.651266e-01
  2.664337e+01    9.669002e-01
  2.665924e+01    9.709674e-01
  2.667512e+01    9.869847e-01
  2.669100e+01    9.811604e-01
  2.670687e+01    9.971151e-01
  2.672275e+01    9.974893e-01
  2.673862e+01    9.810096e-01
  2.675450e+01    9.896373e-01
  2.677037e+01    9.939309e-01
  2.678625e+01    9.764304e-01
  2.680212e+01    9.644349e-01
  2.681800e+01    9.921495e-01
  2.683388e+01    1.006555e+00
  2.684975e+01    1.002142e+00
  2.686563e+01    9.846758e-01
  2.688150e+01    9.944214e-01
  2.689738e+01    9.933328e-01
  2.691325e+01    1.021449e+00
  2.692913e+01    1.028419e+00
  2.694501e+01    1.034564e+00
  2.696088e+01    1.048246e+00
  2.697676e+01    1.085155e+00
  2.699263e+01    1.083645e+00
  2.700851e+01    1.151360e+00
  2.702438e+01    1.156483e+00
  2.704026e+01    1.193522e+00
  2.705613e+01    1.257728e+00
  2.707201e+01    1.281655e+00
  2.708789e+01    1.391561e+00
  2.710376e+01    1.512602e+00
  2.711964e+01    1.573803e+00
  2.713551e+01    1.696286e+00
  2.715139e+01    1.823545e+00
  2.716726e+01    1.973571e+00
  2.718314e+01    2.088151e+00
  2.719901e+01    2.155655e+00
  2.721489e+01    2.213186e+00
  2.723077e+01    2.185715e+00
  2.724664e+01    2.119752e+00
  2.726252e+01    1.981901e+00
  2.727839e+01    1.829217e+00
  2.729427e+01    1.658009e+00
  2.731014e+01    1.560799e+00
  2.732602e+01    1.439419e+00
  2.734189e+01    1.357617e+00
  2.735777e+01    1.295493e+00
  2.737365e+01    1.220408e+00
  2.738952e+01    1.173467e+00
  2.740540e+01    1.104934e+00
  2.742127e+01    1.095834e+00
  2.743715e+01    1.063120e+00
  2.745302e+01    1.047111e+00
  2.746890e+01    1.014117e+00
  2.748477e+01    1.021463e+00
  2.750065e+01    1.003096e+00
  2.751653e+01    9.845431e-01
  2.753240e+01    9.584062e-01
  2.754828e+01    9.421192e-01
  2.756415e+01    9.447379e-01
  2.758003e+01    9.408631e-01
  2.759590e+01    9.387504e-01
  2.761178e+01    9.275036e-01
  2.762765e+01    9.193699e-01
  2.764353e+01    9.300062e-01
  2.765941e+01    9.209099e-01
  2.767528e+01    9.251556e-01
  2.769116e+01    9.348801e-01
  2.770703e+01    9.213635e-01
  2.772291e+01    9.127592e-01
  2.773878e+01    8.775904e-01
  2.775466e+01    8.901901e-01
  2.777054e+01    8.860493e-01
  2.778641e+01    8.987015e-01
  2.780229e+01    8.912905e-01
  2.781816e+01    8.882512e-01
  2.783404e+01    8.793778e-01
  2.784991e+01    8.556833e-01
  2.786579e+01    8.774135e-01
  2.788166e+01    8.999699e-01
  2.789754e+01    8.738729e-01
  2.791342e+01    8.738036e-01
  2.792929e+01    8.690504e-01
  2.794517e+01    8.630213e-01
  2.796104e+01    8.611973e-01
  2.797692e+01    8.865020e-01
  2.799279e+01    8.676319e-01
  2.800867e+01    8.649880e-01
  2.802454e+01    8.682576e-01
  2.804042e+01    8.677070e-01
  2.805630e+01    8.666472e-01
  2.807217e+01    8.622779e-01
  2.808805e+01    8.555647e-01
  2.810392e+01    8.834075e-01
  2.811980e+01    8.709236e-01
  2.813567e+01    8.693557e-01
  2.815155e+01    8.564920e-01
  2.816742e+01    8.731734e-01
  2.818330e+01    8.405913e-01
  2.819918e+01    8.470407e-01
  2.821505e+01    8.491612e-01
  2.823093e+01    8.588868e-01
  2.824680e+01    8.668647e-01
  2.826268e+01    8.422630e-01
  2.827855e+01    8.424762e-01
  2.829443e+01    8.612655e-01
  2.831030e+01    8.533483e-01
  2.832618e+01    8.395183e-01
  2.834206e+01    8.452671e-01
  2.835793e+01    8.568054e-01
  2.837381e+01    8.515092e-01
  2.838968e+01    8.621355e-01
  2.840556e+01    8.600284e-01
  2.842143e+01    8.445193e-01
  2.843731e+01    8.323141e-01
  2.845318e+01    8.561677e-01
  2.846906e+01    8.283492e-01
  2.848494e+01    8.595713e-01
  2.850081e+01    8.574974e-01
  2.851669e+01    8.608501e-01
  2.853256e+01    8.344136e-01
  2.854844e+01    8.361242e-01
  2.856431e+01    8.642514e-01
  2.858019e+01    8.549623e-01
  2.859606e+01    8.296874e-01
  2.861194e+01    8.437980e-01
  2.862782e+01    8.235617e-01
  2.864369e+01    8.351707e-01
  2.865957e+01    8.326406e-01
  2.867544e+01    8.319690e-01
  2.869132e+01    8.167701e-01
  2.870719e+01    8.224803e-01
  2.872307e+01    8.465663e-01
  2.873895e+01    8.372771e-01
  2.875482e+01    8.185173e-01
  2.877070e+01    8.196250e-01
  2.878657e+01    8.273442e-01
  2.880245e+01    8.226453e-01
  2.881832e+01    8.301402e-01
  2.883420e+01    8.283057e-01
  2.885007e+01    8.171040e-01
  2.886595e+01    8.044658e-01
  2.888183e+01    8.194006e-01
  2.889770e+01    8.208575e-01
  2.891358e+01    8.239613e-01
  2.892945e+01    8.282698e-01
  2.894533e+01    8.276429e-01
  2.896120e+01    8.173398e-01
  2.897708e+01    8.144540e-01
  2.899295e+01    8.022608e-01
  2.900883e+01    8.318889e-01
  2.902471e+01    8.327862e-01
  2.904058e+01    8.308982e-01
  2.905646e+01    8.176897e-01
  2.907233e+01    8.318914e-01
  2.908821e+01    8.277901e-01
  2.910408e+01    7.999960e-01
  2.911996e+01    8.081393e-01
  2.913583e+01    8.160591e-01
  2.915171e+01    8.183905e-01
  2.916759e+01    8.340142e-01
  2.918346e+01    7.932127e-01
  2.919934e+01    8.014916e-01
  2.921521e+01    8.172517e-01
  2.923109e+01    8.059634e-01
  2.924696e+01    8.065926e-01
  2.926284e+01    8.202810e-01
  2.927871e+01    8.085523e-01
  2.929459e+01    8.198451e-01
  2.931047e+01    8.073869e-01
  2.932634e+01    8.118184e-01
  2.934222e+01    8.097897e-01
  2.935809e+01    8.009604e-01
  2.937397e+01    7.842603e-01
  2.938984e+01    8.224126e-01
  2.940572e+01    8.216141e-01
  2.942159e+01    8.228207e-01
  2.943747e+01    8.178127e-01
  2.945335e+01    8.027371e-01
  2.946922e+01    8.247555e-01
  2.948510e+01    8.107470e-01
  2.950097e+01    7.982756e-01
  2.951685e+01    7.963119e-01
  2.953272e+01    8.018430e-01
  2.954860e+01    7.906638e-01
  2.956447e+01    7.826416e-01
  2.958035e+01    7.862122e-01
  2.959623e+01    7.888485e-01
  2.961210e+01    7.957242e-01
  2.962798e+01    7.956983e-01
  2.964385e+01    7.972604e-01
  2.965973e+01    7.885788e-01
  2.967560e+01    7.837960e-01
  2.969148e+01    7.923636e-01
  2.970736e+01    8.112888e-01
  2.972323e+01    7.878419e-01
  2.973911e+01    7.850540e-01
  2.975498e+01    7.690707e-01
  2.977086e+01    7.776132e-01
  2.978673e+01    7.786475e-01
  2.980261e+01    7.867980e-01
  2.981848e+01    7.960026e-01
  2.983436e+01    8.044780e-01
  2.985024e+01    8.082263e-01
  2.986611e+01    7.990134e-01
  2.988199e+01    7.795423e-01
  2.989786e+01    7.875224e-01
  2.991374e+01    7.709162e-01
  2.992961e+01    7.830740e-01
  2.994549e+01    7.989599e-01
  2.996136e+01    8.131415e-01
  2.997724e+01    8.066670e-01
  2.999312e+01    8.179861e-01
  3.000899e+01    8.195893e-01
  3.002487e+01    8.116764e-01
  3.004074e+01    8.106912e-01
  3.005662e+01    8.224795e-01
  3.007249e+01    8.397968e-01
  3.008837e+01    8.065448e-01
  3.010424e+01    8.054934e-01
  3.012012e+01    7.835353e-01
  3.013600e+01    8.052734e-01
  3.015187e+01    7.833789e-01
  3.016775e+01    7.742202e-01
  3.018362e+01    7.892067e-01
  3.019950e+01    8.183395e-01
  3.021537e+01    8.022377e-01
  3.023125e+01    7.918141e-01
  3.024712e+01    8.023291e-01
  3.026300e+01    7.982712e-01
  3.027888e+01    7.764384e-01
  3.029475e+01    7.913480e-01
  3.031063e+01    8.058591e-01
  3.032650e+01    8.045549e-01
  3.034238e+01    7.888416e-01
  3.035825e+01    7.838850e-01
  3.037413e+01    7.744097e-01
  3.039000e+01    7.975226e-01
  3.040588e+01    7.870622e-01
  3.042176e+01    7.881505e-01
  3.043763e+01    7.909731e-01
  3.045351e+01    7.936550e-01
  3.046938e+01    7.928055e-01
  3.048526e+01    7.809160e-01
  3.050113e+01    7.814472e-01
  3.051701e+01    7.868170e-01
  3.053288e+01    8.092519e-01
  3.054876e+01    7.918811e-01
  3.056464e+01    7.784002e-01
  3.058051e+01    7.901335e-01
  3.059639e+01    8.060977e-01
  3.061226e+01    7.807814e-01
  3.062814e+01    7.898742e-01
  3.064401e+01    7.840045e-01
  3.065989e+01    7.743034e-01
  3.067577e+01    7.839885e-01
  3.069164e+01    7.612731e-01
  3.070752e+01    7.760847e-01
  3.072339e+01    7.662882e-01
  3.073927e+01    7.586330e-01
  3.075514e+01    7.677652e-01
  3.077102e+01    7.906761e-01
  3.078689e+01    7.823508e-01
  3.080277e+01    7.659663e-01
  3.081865e+01    7.812588e-01
  3.083452e+01    7.684922e-01
  3.085040e+01    7.846668e-01
  3.086627e+01    7.933193e-01
  3.088215e+01    7.859793e-01
  3.089802e+01    7.728282e-01
  3.091390e+01    7.872371e-01
  3.092977e+01    7.866024e-01
  3.094565e+01    7.995684e-01
  3.096153e+01    7.866201e-01
  3.097740e+01    7.854610e-01
  3.099328e+01    7.926884e-01
  3.100915e+01    7.977629e-01
  3.102503e+01    7.873415e-01
  3.104090e+01    7.752864e-01
  3.105678e+01    7.559984e-01
  3.107265e+01    7.513416e-01
  3.108853e+01    7.845050e-01
  3.110441e+01    7.944551e-01
  3.112028e+01    8.229787e-01
  3.113616e+01    8.057334e-01
  3.115203e+01    8.090741e-01
  3.116791e+01    7.919359e-01
  3.118378e+01    7.990121e-01
  3.119966e+01    7.874648e-01
  3.121553e+01    7.949690e-01
  3.123141e+01    7.993424e-01
  3.124729e+01    7.748748e-01
  3.126316e+01    7.758650e-01
  3.127904e+01    7.931864e-01
  3.129491e+01    7.951187e-01
  3.131079e+01    7.819549e-01
  3.132666e+01    7.761486e-01
  3.134254e+01    8.086290e-01
  3.135841e+01    7.948021e-01
  3.137429e+01    8.024414e-01
  3.139017e+01    8.035117e-01
  3.140604e+01    8.077956e-01
  3.142192e+01    8.083169e-01
  3.143779e+01    8.443024e-01
  3.145367e+01    8.276285e-01
  3.146954e+01    8.131073e-01
  3.148542e+01    8.253878e-01
  3.150129e+01    8.343404e-01
  3.151717e+01    8.281783e-01
  3.153305e+01    8.387560e-01
  3.154892e+01    8.500510e-01
  3.156480e+01    8.793737e-01
  3.158067e+01    8.576949e-01
  3.159655e+01    8.769150e-01
  3.161242e+01    8.796524e-01
  3.162830e+01    8.920652e-01
  3.164418e+01    8.974472e-01
  3.166005e+01    9.394513e-01
  3.167593e+01    9.676582e-01
  3.169180e+01    1.007547e+00
  3.170768e+01    1.030223e+00
  3.172355e+01    1.069310e+00
  3.173943e+01    1.122411e+00
  3.175530e+01    1.182428e+00
  3.177118e+01    1.258496e+00
  3.178706e+01    1.343114e+00
  3.180293e+01    1.445493e+00
  3.181881e+01    1.586385e+00
  3.183468e+01    1.726199e+00
  3.185056e+01    1.827828e+00
  3.186643e+01    1.954494e+00
  3.188231e+01    2.054368e+00
  3.189818e+01    2.102209e+00
  3.191406e+01    2.094001e+00
  3.192994e+01    2.045897e+00
  3.194581e+01    1.953362e+00
  3.196169e+01    1.792505e+00
  3.197756e+01    1.680365e+00
  3.199344e+01    1.528095e+00
  3.200931e+01    1.422057e+00
  3.202519e+01    1.314286e+00
  3.204106e+01    1.234354e+00
  3.205694e+01    1.154085e+00
  3.207282e+01    1.086224e+00
  3.208869e+01    1.027208e+00
  3.210457e+01    1.000986e+00
  3.212044e+01    9.757672e-01
  3.213632e+01    9.520553e-01
  3.215219e+01    9.218411e-01
  3.216807e+01    8.777039e-01
  3.218394e+01    8.689318e-01
  3.219982e+01    8.779882e-01
  3.221570e+01    8.494774e-01
  3.223157e+01    8.257803e-01
  3.224745e+01    8.175814e-01
  3.226332e+01    8.335574e-01
  3.227920e+01    8.221940e-01
  3.229507e+01    8.182548e-01
  3.231095e+01    8.444645e-01
  3.232682e+01    8.015953e-01
  3.234270e+01    8.002093e-01
  3.235858e+01    8.033991e-01
  3.237445e+01    8.025759e-01
  3.239033e+01    7.862137e-01
  3.240620e+01    7.888388e-01
  3.242208e+01    7.713730e-01
  3.243795e+01    7.809327e-01
  3.245383e+01    7.983848e-01
  3.246970e+01    7.880074e-01
  3.248558e+01    7.687164e-01
  3.250146e+01    7.727798e-01
  3.251733e+01    7.693817e-01
  3.253321e+01    7.565589e-01
  3.254908e+01    7.631906e-01
