# == pyFAI calibration ==
# Distance Sample to Detector: 0.3999999939076516 m
# PONI: 9.750e-02, 1.135e-01 m
# Rotations: -0.000175 0.000000 -0.000000 rad
# 
# == Fit2d calibration ==
# Distance Sample-beamCenter: 400.000 mm
# Center: x=1514.000, y=1300.000 pix
# Tilt: 0.010 deg  TiltPlanRot: 0.010 deg
# 
# Detector Detector	 Spline= None	 PixelSize= 7.500e-05, 7.500e-05 m
#    Detector has a mask: False 
#    Detector has a dark current: False 
#    detector has a flat field: False 
# 
# Wavelength: 6.888e-11 m
# Mask applied: user provided
# Dark current applied: False
# Flat field applied: False
# Polarization factor: 0.99
# Normalization factor: 1.0
# --> /home/myspot/data/2024_07_Rosario/Ru-CGO-ex/2024-07-27_003_Ru-CGO-ex_Reaction_dwell_000023_data_000047.dat
#       q_nm^-1             I 
  2.003187e-02    0.000000e+00
  3.590745e-02    0.000000e+00
  5.178302e-02    2.671360e-02
  6.765859e-02    1.994291e-01
  8.353417e-02    2.717464e-01
  9.940974e-02    2.765249e-01
  1.152853e-01    1.519757e-01
  1.311609e-01    1.170606e-02
  1.470365e-01    7.471760e-02
  1.629120e-01    4.833318e-02
  1.787876e-01    7.759479e-02
  1.946632e-01    9.979215e-02
  2.105388e-01    1.063966e-01
  2.264143e-01    9.800263e-02
  2.422899e-01    3.858612e-02
  2.581655e-01    5.831894e-02
  2.740411e-01    1.069040e-01
  2.899166e-01    5.112219e-02
  3.057922e-01    2.150793e-02
  3.216678e-01    7.138067e-02
  3.375433e-01    7.388329e-02
  3.534189e-01    3.036433e-02
  3.692945e-01    3.045044e-02
  3.851701e-01    4.010205e-02
  4.010456e-01    2.726499e-02
  4.169212e-01    3.962383e-02
  4.327968e-01    7.344431e-02
  4.486724e-01    3.796626e-02
  4.645479e-01    1.883979e-02
  4.804235e-01    3.362952e-02
  4.962991e-01    4.278977e-02
  5.121747e-01    3.808895e-02
  5.280502e-01    3.823551e-02
  5.439258e-01    4.967212e-02
  5.598014e-01    3.251418e-02
  5.756770e-01    2.412856e-02
  5.915525e-01    5.021000e-02
  6.074281e-01    6.865183e-02
  6.233037e-01    4.646550e-02
  6.391793e-01    4.947290e-02
  6.550548e-01    4.932621e-02
  6.709304e-01    6.654713e-02
  6.868060e-01    8.632037e-02
  7.026815e-01    1.077127e-01
  7.185571e-01    7.290114e-02
  7.344327e-01    4.238208e-02
  7.503083e-01    3.074708e-02
  7.661838e-01    6.617895e-02
  7.820594e-01    9.827865e-02
  7.979350e-01    1.846297e-01
  8.138106e-01    2.232363e-01
  8.296861e-01    2.304253e-01
  8.455617e-01    3.578731e-01
  8.614373e-01    3.977520e-01
  8.773129e-01    4.844991e-01
  8.931884e-01    5.563906e-01
  9.090640e-01    6.123310e-01
  9.249396e-01    7.971958e-01
  9.408152e-01    8.539697e-01
  9.566907e-01    9.404669e-01
  9.725663e-01    9.215192e-01
  9.884419e-01    1.101327e+00
  1.004317e+00    1.221590e+00
  1.020193e+00    1.263026e+00
  1.036069e+00    1.408909e+00
  1.051944e+00    1.363307e+00
  1.067820e+00    1.331779e+00
  1.083695e+00    1.488242e+00
  1.099571e+00    1.584759e+00
  1.115446e+00    1.587192e+00
  1.131322e+00    1.642867e+00
  1.147198e+00    1.622289e+00
  1.163073e+00    1.630917e+00
  1.178949e+00    1.774379e+00
  1.194824e+00    1.938555e+00
  1.210700e+00    2.134611e+00
  1.226575e+00    2.409205e+00
  1.242451e+00    2.335457e+00
  1.258327e+00    2.330682e+00
  1.274202e+00    2.431221e+00
  1.290078e+00    2.700410e+00
  1.305953e+00    2.751295e+00
  1.321829e+00    2.787458e+00
  1.337705e+00    2.714278e+00
  1.353580e+00    2.676558e+00
  1.369456e+00    2.740203e+00
  1.385331e+00    2.745529e+00
  1.401207e+00    2.810632e+00
  1.417082e+00    2.878932e+00
  1.432958e+00    2.912911e+00
  1.448834e+00    2.925197e+00
  1.464709e+00    3.008786e+00
  1.480585e+00    3.056809e+00
  1.496460e+00    3.024636e+00
  1.512336e+00    2.905909e+00
  1.528211e+00    3.088732e+00
  1.544087e+00    3.127660e+00
  1.559963e+00    3.143867e+00
  1.575838e+00    3.093175e+00
  1.591714e+00    3.185857e+00
  1.607589e+00    3.127343e+00
  1.623465e+00    3.140229e+00
  1.639340e+00    3.234957e+00
  1.655216e+00    3.124923e+00
  1.671092e+00    2.927558e+00
  1.686967e+00    2.978369e+00
  1.702843e+00    3.136328e+00
  1.718718e+00    3.154074e+00
  1.734594e+00    3.063758e+00
  1.750469e+00    3.057592e+00
  1.766345e+00    3.173765e+00
  1.782221e+00    3.240980e+00
  1.798096e+00    3.132242e+00
  1.813972e+00    3.116350e+00
  1.829847e+00    3.082019e+00
  1.845723e+00    3.017542e+00
  1.861598e+00    3.044847e+00
  1.877474e+00    3.071898e+00
  1.893350e+00    3.057806e+00
  1.909225e+00    3.042354e+00
  1.925101e+00    3.073851e+00
  1.940976e+00    2.982963e+00
  1.956852e+00    2.948804e+00
  1.972727e+00    3.151056e+00
  1.988603e+00    3.145369e+00
  2.004479e+00    3.117808e+00
  2.020354e+00    3.035991e+00
  2.036230e+00    3.036726e+00
  2.052105e+00    3.069523e+00
  2.067981e+00    3.146183e+00
  2.083856e+00    3.059726e+00
  2.099732e+00    3.029330e+00
  2.115608e+00    3.086996e+00
  2.131483e+00    3.051798e+00
  2.147359e+00    3.054753e+00
  2.163234e+00    3.119431e+00
  2.179110e+00    3.113431e+00
  2.194985e+00    3.030999e+00
  2.210861e+00    3.153952e+00
  2.226737e+00    3.257226e+00
  2.242612e+00    3.175637e+00
  2.258488e+00    3.160466e+00
  2.274363e+00    3.216532e+00
  2.290239e+00    3.107920e+00
  2.306115e+00    3.140104e+00
  2.321990e+00    3.223467e+00
  2.337866e+00    3.162287e+00
  2.353741e+00    3.158290e+00
  2.369617e+00    3.102639e+00
  2.385492e+00    3.127015e+00
  2.401368e+00    3.223773e+00
  2.417244e+00    3.179631e+00
  2.433119e+00    3.169533e+00
  2.448995e+00    3.212283e+00
  2.464870e+00    3.191904e+00
  2.480746e+00    3.244828e+00
  2.496621e+00    3.270381e+00
  2.512497e+00    3.227555e+00
  2.528373e+00    3.215138e+00
  2.544248e+00    3.212900e+00
  2.560124e+00    3.232987e+00
  2.575999e+00    3.256060e+00
  2.591875e+00    3.270743e+00
  2.607750e+00    3.159106e+00
  2.623626e+00    3.211525e+00
  2.639502e+00    3.258613e+00
  2.655377e+00    3.245490e+00
  2.671253e+00    3.315239e+00
  2.687128e+00    3.163345e+00
  2.703004e+00    3.192764e+00
  2.718879e+00    3.151219e+00
  2.734755e+00    3.234137e+00
  2.750631e+00    3.177018e+00
  2.766506e+00    3.223594e+00
  2.782382e+00    3.290593e+00
  2.798257e+00    3.324201e+00
  2.814133e+00    3.241100e+00
  2.830008e+00    3.194764e+00
  2.845884e+00    3.315826e+00
  2.861760e+00    3.318772e+00
  2.877635e+00    3.326427e+00
  2.893511e+00    3.232163e+00
  2.909386e+00    3.262524e+00
  2.925262e+00    3.256712e+00
  2.941137e+00    3.213444e+00
  2.957013e+00    3.338991e+00
  2.972889e+00    3.438256e+00
  2.988764e+00    3.354173e+00
  3.004640e+00    3.242971e+00
  3.020515e+00    3.248362e+00
  3.036391e+00    3.310372e+00
  3.052266e+00    3.293227e+00
  3.068142e+00    3.307744e+00
  3.084018e+00    3.350608e+00
  3.099893e+00    3.445510e+00
  3.115769e+00    3.375929e+00
  3.131644e+00    3.382778e+00
  3.147520e+00    3.439303e+00
  3.163395e+00    3.392579e+00
  3.179271e+00    3.429092e+00
  3.195147e+00    3.425585e+00
  3.211022e+00    3.489170e+00
  3.226898e+00    3.439319e+00
  3.242773e+00    3.404318e+00
  3.258649e+00    3.333250e+00
  3.274525e+00    3.464775e+00
  3.290400e+00    3.419896e+00
  3.306276e+00    3.395394e+00
  3.322151e+00    3.434440e+00
  3.338027e+00    3.410857e+00
  3.353902e+00    3.516711e+00
  3.369778e+00    3.434391e+00
  3.385654e+00    3.410994e+00
  3.401529e+00    3.456887e+00
  3.417405e+00    3.386991e+00
  3.433280e+00    3.410175e+00
  3.449156e+00    3.469961e+00
  3.465031e+00    3.436804e+00
  3.480907e+00    3.455018e+00
  3.496783e+00    3.472463e+00
  3.512658e+00    3.431589e+00
  3.528534e+00    3.444620e+00
  3.544409e+00    3.443603e+00
  3.560285e+00    3.454187e+00
  3.576160e+00    3.439694e+00
  3.592036e+00    3.409340e+00
  3.607912e+00    3.474690e+00
  3.623787e+00    3.472802e+00
  3.639663e+00    3.436616e+00
  3.655538e+00    3.389836e+00
  3.671414e+00    3.550762e+00
  3.687289e+00    3.655251e+00
  3.703165e+00    3.528937e+00
  3.719041e+00    3.555323e+00
  3.734916e+00    3.550932e+00
  3.750792e+00    3.459387e+00
  3.766667e+00    3.485341e+00
  3.782543e+00    3.506667e+00
  3.798418e+00    3.505172e+00
  3.814294e+00    3.536569e+00
  3.830170e+00    3.557322e+00
  3.846045e+00    3.456492e+00
  3.861921e+00    3.384047e+00
  3.877796e+00    3.470476e+00
  3.893672e+00    3.453220e+00
  3.909547e+00    3.588565e+00
  3.925423e+00    3.553653e+00
  3.941299e+00    3.544685e+00
  3.957174e+00    3.531467e+00
  3.973050e+00    3.470636e+00
  3.988925e+00    3.452513e+00
  4.004801e+00    3.612334e+00
  4.020676e+00    3.551552e+00
  4.036552e+00    3.449564e+00
  4.052428e+00    3.448161e+00
  4.068303e+00    3.520544e+00
  4.084179e+00    3.535623e+00
  4.100054e+00    3.548273e+00
  4.115930e+00    3.487957e+00
  4.131806e+00    3.592611e+00
  4.147681e+00    3.575201e+00
  4.163557e+00    3.584850e+00
  4.179432e+00    3.583495e+00
  4.195308e+00    3.564499e+00
  4.211183e+00    3.594032e+00
  4.227059e+00    3.605110e+00
  4.242935e+00    3.626075e+00
  4.258810e+00    3.535244e+00
  4.274686e+00    3.516555e+00
  4.290561e+00    3.560396e+00
  4.306437e+00    3.623556e+00
  4.322312e+00    3.557885e+00
  4.338188e+00    3.609063e+00
  4.354064e+00    3.598329e+00
  4.369939e+00    3.564656e+00
  4.385815e+00    3.616271e+00
  4.401690e+00    3.640582e+00
  4.417566e+00    3.593319e+00
  4.433441e+00    3.580515e+00
  4.449317e+00    3.552462e+00
  4.465193e+00    3.627734e+00
  4.481068e+00    3.620008e+00
  4.496944e+00    3.704856e+00
  4.512819e+00    3.578422e+00
  4.528695e+00    3.507449e+00
  4.544570e+00    3.598666e+00
  4.560446e+00    3.591050e+00
  4.576322e+00    3.536697e+00
  4.592197e+00    3.614941e+00
  4.608073e+00    3.718567e+00
  4.623948e+00    3.584129e+00
  4.639824e+00    3.597311e+00
  4.655699e+00    3.584529e+00
  4.671575e+00    3.571088e+00
  4.687451e+00    3.591717e+00
  4.703326e+00    3.579719e+00
  4.719202e+00    3.563927e+00
  4.735077e+00    3.542790e+00
  4.750953e+00    3.662513e+00
  4.766828e+00    3.714952e+00
  4.782704e+00    3.655153e+00
  4.798580e+00    3.641637e+00
  4.814455e+00    3.652903e+00
  4.830331e+00    3.658684e+00
  4.846206e+00    3.660919e+00
  4.862082e+00    3.689380e+00
  4.877957e+00    3.716187e+00
  4.893833e+00    3.700557e+00
  4.909709e+00    3.610727e+00
  4.925584e+00    3.660085e+00
  4.941460e+00    3.626817e+00
  4.957335e+00    3.587509e+00
  4.973211e+00    3.640336e+00
  4.989086e+00    3.687594e+00
  5.004962e+00    3.730377e+00
  5.020838e+00    3.681150e+00
  5.036713e+00    3.677122e+00
  5.052589e+00    3.584498e+00
  5.068464e+00    3.525022e+00
  5.084340e+00    3.610453e+00
  5.100216e+00    3.620173e+00
  5.116091e+00    3.627550e+00
  5.131967e+00    3.712985e+00
  5.147842e+00    3.701946e+00
  5.163718e+00    3.661364e+00
  5.179593e+00    3.655551e+00
  5.195469e+00    3.661556e+00
  5.211345e+00    3.695460e+00
  5.227220e+00    3.671791e+00
  5.243096e+00    3.699720e+00
  5.258971e+00    3.666570e+00
  5.274847e+00    3.628802e+00
  5.290722e+00    3.669259e+00
  5.306598e+00    3.735042e+00
  5.322474e+00    3.678733e+00
  5.338349e+00    3.676612e+00
  5.354225e+00    3.628296e+00
  5.370100e+00    3.638371e+00
  5.385976e+00    3.653626e+00
  5.401851e+00    3.631576e+00
  5.417727e+00    3.604015e+00
  5.433603e+00    3.569602e+00
  5.449478e+00    3.587806e+00
  5.465354e+00    3.648789e+00
  5.481229e+00    3.628042e+00
  5.497105e+00    3.627487e+00
  5.512980e+00    3.606288e+00
  5.528856e+00    3.626517e+00
  5.544732e+00    3.614040e+00
  5.560607e+00    3.621414e+00
  5.576483e+00    3.585239e+00
  5.592358e+00    3.569190e+00
  5.608234e+00    3.541058e+00
  5.624109e+00    3.594073e+00
  5.639985e+00    3.678312e+00
  5.655861e+00    3.656632e+00
  5.671736e+00    3.526849e+00
  5.687612e+00    3.524765e+00
  5.703487e+00    3.589427e+00
  5.719363e+00    3.594200e+00
  5.735238e+00    3.637827e+00
  5.751114e+00    3.545576e+00
  5.766990e+00    3.473186e+00
  5.782865e+00    3.497863e+00
  5.798741e+00    3.468966e+00
  5.814616e+00    3.463593e+00
  5.830492e+00    3.581569e+00
  5.846367e+00    3.629329e+00
  5.862243e+00    3.556864e+00
  5.878119e+00    3.527500e+00
  5.893994e+00    3.570112e+00
  5.909870e+00    3.553250e+00
  5.925745e+00    3.529144e+00
  5.941621e+00    3.479299e+00
  5.957497e+00    3.504863e+00
  5.973372e+00    3.540829e+00
  5.989248e+00    3.505622e+00
  6.005123e+00    3.591809e+00
  6.020999e+00    3.568513e+00
  6.036874e+00    3.635839e+00
  6.052750e+00    3.570074e+00
  6.068626e+00    3.616271e+00
  6.084501e+00    3.604064e+00
  6.100377e+00    3.613149e+00
  6.116252e+00    3.585495e+00
  6.132128e+00    3.572132e+00
  6.148003e+00    3.560510e+00
  6.163879e+00    3.576097e+00
  6.179755e+00    3.576479e+00
  6.195630e+00    3.581345e+00
  6.211506e+00    3.589941e+00
  6.227381e+00    3.667827e+00
  6.243257e+00    3.629461e+00
  6.259132e+00    3.568958e+00
  6.275008e+00    3.486683e+00
  6.290884e+00    3.594213e+00
  6.306759e+00    3.591682e+00
  6.322635e+00    3.579039e+00
  6.338510e+00    3.565821e+00
  6.354386e+00    3.585408e+00
  6.370261e+00    3.534974e+00
  6.386137e+00    3.623188e+00
  6.402013e+00    3.646632e+00
  6.417888e+00    3.573747e+00
  6.433764e+00    3.485894e+00
  6.449639e+00    3.517995e+00
  6.465515e+00    3.553520e+00
  6.481390e+00    3.535928e+00
  6.497266e+00    3.583035e+00
  6.513142e+00    3.614063e+00
  6.529017e+00    3.535555e+00
  6.544893e+00    3.598721e+00
  6.560768e+00    3.534749e+00
  6.576644e+00    3.490576e+00
  6.592519e+00    3.517236e+00
  6.608395e+00    3.588996e+00
  6.624271e+00    3.516309e+00
  6.640146e+00    3.556686e+00
  6.656022e+00    3.526753e+00
  6.671897e+00    3.619397e+00
  6.687773e+00    3.546178e+00
  6.703648e+00    3.476568e+00
  6.719524e+00    3.520446e+00
  6.735400e+00    3.520727e+00
  6.751275e+00    3.580057e+00
  6.767151e+00    3.555674e+00
  6.783026e+00    3.480049e+00
  6.798902e+00    3.522830e+00
  6.814777e+00    3.595776e+00
  6.830653e+00    3.536270e+00
  6.846529e+00    3.528467e+00
  6.862404e+00    3.541470e+00
  6.878280e+00    3.579738e+00
  6.894155e+00    3.542662e+00
  6.910031e+00    3.527781e+00
  6.925907e+00    3.454241e+00
  6.941782e+00    3.506014e+00
  6.957658e+00    3.518914e+00
  6.973533e+00    3.573139e+00
  6.989409e+00    3.650192e+00
  7.005284e+00    3.541598e+00
  7.021160e+00    3.477772e+00
  7.037036e+00    3.543331e+00
  7.052911e+00    3.529403e+00
  7.068787e+00    3.520856e+00
  7.084662e+00    3.504288e+00
  7.100538e+00    3.566970e+00
  7.116413e+00    3.550877e+00
  7.132289e+00    3.553635e+00
  7.148165e+00    3.561131e+00
  7.164040e+00    3.547900e+00
  7.179916e+00    3.551381e+00
  7.195791e+00    3.568938e+00
  7.211667e+00    3.498444e+00
  7.227542e+00    3.463533e+00
  7.243418e+00    3.504688e+00
  7.259294e+00    3.477818e+00
  7.275169e+00    3.549942e+00
  7.291045e+00    3.631091e+00
  7.306920e+00    3.593735e+00
  7.322796e+00    3.572536e+00
  7.338671e+00    3.605207e+00
  7.354547e+00    3.434476e+00
  7.370423e+00    3.454474e+00
  7.386298e+00    3.532735e+00
  7.402174e+00    3.479140e+00
  7.418049e+00    3.401515e+00
  7.433925e+00    3.481369e+00
  7.449800e+00    3.523801e+00
  7.465676e+00    3.475904e+00
  7.481552e+00    3.445628e+00
  7.497427e+00    3.491573e+00
  7.513303e+00    3.540924e+00
  7.529178e+00    3.490607e+00
  7.545054e+00    3.450053e+00
  7.560929e+00    3.536380e+00
  7.576805e+00    3.548636e+00
  7.592681e+00    3.542952e+00
  7.608556e+00    3.532637e+00
  7.624432e+00    3.554028e+00
  7.640307e+00    3.538649e+00
  7.656183e+00    3.565783e+00
  7.672058e+00    3.490955e+00
  7.687934e+00    3.469551e+00
  7.703810e+00    3.436443e+00
  7.719685e+00    3.434793e+00
  7.735561e+00    3.439896e+00
  7.751436e+00    3.436269e+00
  7.767312e+00    3.467289e+00
  7.783187e+00    3.458251e+00
  7.799063e+00    3.499495e+00
  7.814939e+00    3.458428e+00
  7.830814e+00    3.475035e+00
  7.846690e+00    3.516715e+00
  7.862565e+00    3.490004e+00
  7.878441e+00    3.417524e+00
  7.894317e+00    3.446134e+00
  7.910192e+00    3.444614e+00
  7.926068e+00    3.457926e+00
  7.941943e+00    3.437129e+00
  7.957819e+00    3.457434e+00
  7.973694e+00    3.470877e+00
  7.989570e+00    3.438277e+00
  8.005446e+00    3.403214e+00
  8.021321e+00    3.406860e+00
  8.037197e+00    3.451920e+00
  8.053072e+00    3.451002e+00
  8.068948e+00    3.436018e+00
  8.084823e+00    3.472334e+00
  8.100699e+00    3.542443e+00
  8.116575e+00    3.559790e+00
  8.132450e+00    3.461830e+00
  8.148326e+00    3.472615e+00
  8.164201e+00    3.451690e+00
  8.180077e+00    3.476442e+00
  8.195952e+00    3.463124e+00
  8.211828e+00    3.436871e+00
  8.227704e+00    3.466387e+00
  8.243579e+00    3.497107e+00
  8.259455e+00    3.427275e+00
  8.275330e+00    3.503397e+00
  8.291206e+00    3.457687e+00
  8.307081e+00    3.379522e+00
  8.322957e+00    3.343615e+00
  8.338833e+00    3.408572e+00
  8.354708e+00    3.418893e+00
  8.370584e+00    3.385172e+00
  8.386459e+00    3.402510e+00
  8.402335e+00    3.418093e+00
  8.418210e+00    3.390656e+00
  8.434086e+00    3.441737e+00
  8.449962e+00    3.276122e+00
  8.465837e+00    3.377387e+00
  8.481713e+00    3.354981e+00
  8.497588e+00    3.406575e+00
  8.513464e+00    3.395407e+00
  8.529339e+00    3.402989e+00
  8.545215e+00    3.399674e+00
  8.561091e+00    3.365649e+00
  8.576966e+00    3.379632e+00
  8.592842e+00    3.391713e+00
  8.608717e+00    3.350994e+00
  8.624593e+00    3.323976e+00
  8.640468e+00    3.366907e+00
  8.656344e+00    3.335067e+00
  8.672220e+00    3.312720e+00
  8.688095e+00    3.370869e+00
  8.703971e+00    3.375695e+00
  8.719846e+00    3.323673e+00
  8.735722e+00    3.378224e+00
  8.751598e+00    3.364628e+00
  8.767473e+00    3.267486e+00
  8.783349e+00    3.324895e+00
  8.799224e+00    3.348796e+00
  8.815100e+00    3.342152e+00
  8.830975e+00    3.275243e+00
  8.846851e+00    3.331606e+00
  8.862727e+00    3.317074e+00
  8.878602e+00    3.315715e+00
  8.894478e+00    3.336573e+00
  8.910353e+00    3.285730e+00
  8.926229e+00    3.288984e+00
  8.942104e+00    3.298122e+00
  8.957980e+00    3.288003e+00
  8.973856e+00    3.281782e+00
  8.989731e+00    3.274224e+00
  9.005607e+00    3.301794e+00
  9.021482e+00    3.284133e+00
  9.037358e+00    3.297974e+00
  9.053233e+00    3.287676e+00
  9.069109e+00    3.303734e+00
  9.084985e+00    3.267348e+00
  9.100860e+00    3.234627e+00
  9.116736e+00    3.238716e+00
  9.132611e+00    3.268881e+00
  9.148487e+00    3.294615e+00
  9.164362e+00    3.204434e+00
  9.180238e+00    3.160232e+00
  9.196114e+00    3.223986e+00
  9.211989e+00    3.281219e+00
  9.227865e+00    3.197610e+00
  9.243740e+00    3.201011e+00
  9.259616e+00    3.269030e+00
  9.275491e+00    3.279630e+00
  9.291367e+00    3.244145e+00
  9.307243e+00    3.229720e+00
  9.323118e+00    3.231425e+00
  9.338994e+00    3.219771e+00
  9.354869e+00    3.198750e+00
  9.370745e+00    3.257071e+00
  9.386620e+00    3.234505e+00
  9.402496e+00    3.169227e+00
  9.418372e+00    3.177583e+00
  9.434247e+00    3.234650e+00
  9.450123e+00    3.203907e+00
  9.465998e+00    3.201661e+00
  9.481874e+00    3.259235e+00
  9.497749e+00    3.202835e+00
  9.513625e+00    3.216639e+00
  9.529501e+00    3.222047e+00
  9.545376e+00    3.208908e+00
  9.561252e+00    3.199716e+00
  9.577127e+00    3.223594e+00
  9.593003e+00    3.238633e+00
  9.608878e+00    3.246399e+00
  9.624754e+00    3.229286e+00
  9.640630e+00    3.261144e+00
  9.656505e+00    3.207441e+00
  9.672381e+00    3.224113e+00
  9.688256e+00    3.179411e+00
  9.704132e+00    3.143514e+00
  9.720008e+00    3.140087e+00
  9.735883e+00    3.132314e+00
  9.751759e+00    3.113038e+00
  9.767634e+00    3.134014e+00
  9.783510e+00    3.133298e+00
  9.799385e+00    3.101768e+00
  9.815261e+00    3.113019e+00
  9.831137e+00    3.199359e+00
  9.847012e+00    3.195929e+00
  9.862888e+00    3.203145e+00
  9.878763e+00    3.145127e+00
  9.894639e+00    3.140220e+00
  9.910514e+00    3.101013e+00
  9.926390e+00    3.106164e+00
  9.942266e+00    3.117168e+00
  9.958141e+00    3.148152e+00
  9.974017e+00    3.138785e+00
  9.989892e+00    3.082123e+00
  1.000577e+01    3.059415e+00
  1.002164e+01    3.079676e+00
  1.003752e+01    3.159626e+00
  1.005339e+01    3.102160e+00
  1.006927e+01    3.096837e+00
  1.008515e+01    3.094688e+00
  1.010102e+01    3.098018e+00
  1.011690e+01    3.124287e+00
  1.013277e+01    3.140288e+00
  1.014865e+01    3.113382e+00
  1.016452e+01    3.105426e+00
  1.018040e+01    3.062883e+00
  1.019627e+01    3.071934e+00
  1.021215e+01    3.092094e+00
  1.022803e+01    3.035901e+00
  1.024390e+01    3.043934e+00
  1.025978e+01    3.069420e+00
  1.027565e+01    3.087791e+00
  1.029153e+01    3.074748e+00
  1.030740e+01    3.062043e+00
  1.032328e+01    3.090856e+00
  1.033915e+01    3.081859e+00
  1.035503e+01    3.090951e+00
  1.037091e+01    3.076230e+00
  1.038678e+01    3.061665e+00
  1.040266e+01    3.048643e+00
  1.041853e+01    3.054239e+00
  1.043441e+01    3.015201e+00
  1.045028e+01    2.992334e+00
  1.046616e+01    3.037452e+00
  1.048204e+01    3.013563e+00
  1.049791e+01    3.031704e+00
  1.051379e+01    3.016875e+00
  1.052966e+01    2.966701e+00
  1.054554e+01    2.990995e+00
  1.056141e+01    2.981768e+00
  1.057729e+01    3.030473e+00
  1.059316e+01    2.967141e+00
  1.060904e+01    2.972700e+00
  1.062492e+01    2.947452e+00
  1.064079e+01    2.991007e+00
  1.065667e+01    2.983819e+00
  1.067254e+01    2.948646e+00
  1.068842e+01    2.928687e+00
  1.070429e+01    2.902044e+00
  1.072017e+01    2.968282e+00
  1.073604e+01    2.983538e+00
  1.075192e+01    3.024604e+00
  1.076780e+01    2.954223e+00
  1.078367e+01    2.922315e+00
  1.079955e+01    2.960845e+00
  1.081542e+01    3.009385e+00
  1.083130e+01    2.981584e+00
  1.084717e+01    2.930045e+00
  1.086305e+01    2.944020e+00
  1.087892e+01    2.945288e+00
  1.089480e+01    2.938002e+00
  1.091068e+01    2.961830e+00
  1.092655e+01    2.944326e+00
  1.094243e+01    2.930083e+00
  1.095830e+01    2.875047e+00
  1.097418e+01    2.855344e+00
  1.099005e+01    2.892357e+00
  1.100593e+01    2.916979e+00
  1.102180e+01    2.930093e+00
  1.103768e+01    2.903505e+00
  1.105356e+01    2.909948e+00
  1.106943e+01    2.910722e+00
  1.108531e+01    2.923955e+00
  1.110118e+01    2.897492e+00
  1.111706e+01    2.882827e+00
  1.113293e+01    2.914745e+00
  1.114881e+01    2.912038e+00
  1.116468e+01    2.928417e+00
  1.118056e+01    2.885853e+00
  1.119644e+01    2.890740e+00
  1.121231e+01    2.877111e+00
  1.122819e+01    2.809966e+00
  1.124406e+01    2.829705e+00
  1.125994e+01    2.845555e+00
  1.127581e+01    2.886514e+00
  1.129169e+01    2.833608e+00
  1.130756e+01    2.823374e+00
  1.132344e+01    2.818697e+00
  1.133932e+01    2.860002e+00
  1.135519e+01    2.863257e+00
  1.137107e+01    2.822527e+00
  1.138694e+01    2.779165e+00
  1.140282e+01    2.797388e+00
  1.141869e+01    2.828525e+00
  1.143457e+01    2.852922e+00
  1.145045e+01    2.853567e+00
  1.146632e+01    2.781871e+00
  1.148220e+01    2.798484e+00
  1.149807e+01    2.815469e+00
  1.151395e+01    2.745082e+00
  1.152982e+01    2.744276e+00
  1.154570e+01    2.779082e+00
  1.156157e+01    2.764086e+00
  1.157745e+01    2.792941e+00
  1.159333e+01    2.789696e+00
  1.160920e+01    2.776619e+00
  1.162508e+01    2.788200e+00
  1.164095e+01    2.761182e+00
  1.165683e+01    2.756439e+00
  1.167270e+01    2.771754e+00
  1.168858e+01    2.798943e+00
  1.170445e+01    2.794955e+00
  1.172033e+01    2.799991e+00
  1.173621e+01    2.788489e+00
  1.175208e+01    2.792142e+00
  1.176796e+01    2.780118e+00
  1.178383e+01    2.776040e+00
  1.179971e+01    2.756748e+00
  1.181558e+01    2.742579e+00
  1.183146e+01    2.748837e+00
  1.184733e+01    2.738059e+00
  1.186321e+01    2.751788e+00
  1.187909e+01    2.689869e+00
  1.189496e+01    2.712098e+00
  1.191084e+01    2.699092e+00
  1.192671e+01    2.712743e+00
  1.194259e+01    2.751987e+00
  1.195846e+01    2.757246e+00
  1.197434e+01    2.753992e+00
  1.199021e+01    2.736769e+00
  1.200609e+01    2.721764e+00
  1.202197e+01    2.744068e+00
  1.203784e+01    2.717523e+00
  1.205372e+01    2.709703e+00
  1.206959e+01    2.723077e+00
  1.208547e+01    2.713012e+00
  1.210134e+01    2.698098e+00
  1.211722e+01    2.691459e+00
  1.213309e+01    2.724289e+00
  1.214897e+01    2.714261e+00
  1.216485e+01    2.694672e+00
  1.218072e+01    2.709644e+00
  1.219660e+01    2.649741e+00
  1.221247e+01    2.704535e+00
  1.222835e+01    2.661344e+00
  1.224422e+01    2.647888e+00
  1.226010e+01    2.645580e+00
  1.227597e+01    2.706515e+00
  1.229185e+01    2.683851e+00
  1.230773e+01    2.652741e+00
  1.232360e+01    2.653481e+00
  1.233948e+01    2.631260e+00
  1.235535e+01    2.673364e+00
  1.237123e+01    2.696815e+00
  1.238710e+01    2.709392e+00
  1.240298e+01    2.694268e+00
  1.241886e+01    2.695583e+00
  1.243473e+01    2.743473e+00
  1.245061e+01    2.672560e+00
  1.246648e+01    2.687867e+00
  1.248236e+01    2.745623e+00
  1.249823e+01    2.700339e+00
  1.251411e+01    2.681496e+00
  1.252998e+01    2.738796e+00
  1.254586e+01    2.742675e+00
  1.256174e+01    2.714442e+00
  1.257761e+01    2.756111e+00
  1.259349e+01    2.773520e+00
  1.260936e+01    2.736666e+00
  1.262524e+01    2.727079e+00
  1.264111e+01    2.767682e+00
  1.265699e+01    2.741696e+00
  1.267286e+01    2.785127e+00
  1.268874e+01    2.806490e+00
  1.270462e+01    2.829379e+00
  1.272049e+01    2.867548e+00
  1.273637e+01    2.913697e+00
  1.275224e+01    2.932963e+00
  1.276812e+01    2.921768e+00
  1.278399e+01    2.985511e+00
  1.279987e+01    3.016022e+00
  1.281574e+01    3.063337e+00
  1.283162e+01    3.134183e+00
  1.284750e+01    3.233561e+00
  1.286337e+01    3.304395e+00
  1.287925e+01    3.378370e+00
  1.289512e+01    3.519713e+00
  1.291100e+01    3.638516e+00
  1.292687e+01    3.876314e+00
  1.294275e+01    4.122306e+00
  1.295862e+01    4.442924e+00
  1.297450e+01    4.817128e+00
  1.299038e+01    5.237359e+00
  1.300625e+01    5.835464e+00
  1.302213e+01    6.718136e+00
  1.303800e+01    7.728554e+00
  1.305388e+01    8.998815e+00
  1.306975e+01    1.030535e+01
  1.308563e+01    1.144286e+01
  1.310150e+01    1.263764e+01
  1.311738e+01    1.379127e+01
  1.313326e+01    1.474925e+01
  1.314913e+01    1.554194e+01
  1.316501e+01    1.621154e+01
  1.318088e+01    1.629549e+01
  1.319676e+01    1.564468e+01
  1.321263e+01    1.422615e+01
  1.322851e+01    1.244409e+01
  1.324438e+01    1.058769e+01
  1.326026e+01    8.990449e+00
  1.327614e+01    7.714372e+00
  1.329201e+01    6.703915e+00
  1.330789e+01    5.914561e+00
  1.332376e+01    5.304040e+00
  1.333964e+01    4.841024e+00
  1.335551e+01    4.498921e+00
  1.337139e+01    4.173752e+00
  1.338727e+01    3.823294e+00
  1.340314e+01    3.627141e+00
  1.341902e+01    3.519598e+00
  1.343489e+01    3.376332e+00
  1.345077e+01    3.226174e+00
  1.346664e+01    3.148843e+00
  1.348252e+01    3.088256e+00
  1.349839e+01    3.001787e+00
  1.351427e+01    2.936232e+00
  1.353015e+01    2.899563e+00
  1.354602e+01    2.866908e+00
  1.356190e+01    2.793565e+00
  1.357777e+01    2.759917e+00
  1.359365e+01    2.747077e+00
  1.360952e+01    2.671771e+00
  1.362540e+01    2.604529e+00
  1.364127e+01    2.643808e+00
  1.365715e+01    2.633135e+00
  1.367303e+01    2.578581e+00
  1.368890e+01    2.598389e+00
  1.370478e+01    2.567684e+00
  1.372065e+01    2.566833e+00
  1.373653e+01    2.567625e+00
  1.375240e+01    2.504157e+00
  1.376828e+01    2.513119e+00
  1.378415e+01    2.493220e+00
  1.380003e+01    2.496012e+00
  1.381591e+01    2.470333e+00
  1.383178e+01    2.396000e+00
  1.384766e+01    2.414206e+00
  1.386353e+01    2.403290e+00
  1.387941e+01    2.410238e+00
  1.389528e+01    2.387687e+00
  1.391116e+01    2.438220e+00
  1.392703e+01    2.377998e+00
  1.394291e+01    2.331579e+00
  1.395879e+01    2.404571e+00
  1.397466e+01    2.399180e+00
  1.399054e+01    2.361804e+00
  1.400641e+01    2.412851e+00
  1.402229e+01    2.419843e+00
  1.403816e+01    2.382269e+00
  1.405404e+01    2.359099e+00
  1.406991e+01    2.346003e+00
  1.408579e+01    2.360725e+00
  1.410167e+01    2.347742e+00
  1.411754e+01    2.346761e+00
  1.413342e+01    2.339833e+00
  1.414929e+01    2.296848e+00
  1.416517e+01    2.300947e+00
  1.418104e+01    2.305528e+00
  1.419692e+01    2.286155e+00
  1.421279e+01    2.268106e+00
  1.422867e+01    2.299565e+00
  1.424455e+01    2.294660e+00
  1.426042e+01    2.313290e+00
  1.427630e+01    2.305233e+00
  1.429217e+01    2.250850e+00
  1.430805e+01    2.223098e+00
  1.432392e+01    2.263541e+00
  1.433980e+01    2.280613e+00
  1.435568e+01    2.282042e+00
  1.437155e+01    2.253094e+00
  1.438743e+01    2.262443e+00
  1.440330e+01    2.246945e+00
  1.441918e+01    2.255374e+00
  1.443505e+01    2.245278e+00
  1.445093e+01    2.239358e+00
  1.446680e+01    2.247293e+00
  1.448268e+01    2.226042e+00
  1.449856e+01    2.254274e+00
  1.451443e+01    2.237172e+00
  1.453031e+01    2.227395e+00
  1.454618e+01    2.248240e+00
  1.456206e+01    2.220434e+00
  1.457793e+01    2.235218e+00
  1.459381e+01    2.224879e+00
  1.460968e+01    2.211470e+00
  1.462556e+01    2.241186e+00
  1.464144e+01    2.186077e+00
  1.465731e+01    2.220666e+00
  1.467319e+01    2.202689e+00
  1.468906e+01    2.206005e+00
  1.470494e+01    2.211133e+00
  1.472081e+01    2.200628e+00
  1.473669e+01    2.220655e+00
  1.475256e+01    2.207342e+00
  1.476844e+01    2.185800e+00
  1.478432e+01    2.176854e+00
  1.480019e+01    2.194975e+00
  1.481607e+01    2.229311e+00
  1.483194e+01    2.248030e+00
  1.484782e+01    2.219233e+00
  1.486369e+01    2.209595e+00
  1.487957e+01    2.220442e+00
  1.489544e+01    2.246606e+00
  1.491132e+01    2.251428e+00
  1.492720e+01    2.225224e+00
  1.494307e+01    2.262614e+00
  1.495895e+01    2.320138e+00
  1.497482e+01    2.359917e+00
  1.499070e+01    2.385400e+00
  1.500657e+01    2.406018e+00
  1.502245e+01    2.499568e+00
  1.503832e+01    2.604939e+00
  1.505420e+01    2.656006e+00
  1.507008e+01    2.846236e+00
  1.508595e+01    3.025411e+00
  1.510183e+01    3.159509e+00
  1.511770e+01    3.374700e+00
  1.513358e+01    3.760913e+00
  1.514945e+01    4.143441e+00
  1.516533e+01    4.519668e+00
  1.518120e+01    4.871981e+00
  1.519708e+01    5.140463e+00
  1.521296e+01    5.446792e+00
  1.522883e+01    5.609422e+00
  1.524471e+01    5.726414e+00
  1.526058e+01    5.764367e+00
  1.527646e+01    5.691149e+00
  1.529233e+01    5.477364e+00
  1.530821e+01    5.112459e+00
  1.532409e+01    4.627408e+00
  1.533996e+01    4.195403e+00
  1.535584e+01    3.774507e+00
  1.537171e+01    3.406734e+00
  1.538759e+01    3.095490e+00
  1.540346e+01    2.884670e+00
  1.541934e+01    2.746062e+00
  1.543521e+01    2.628950e+00
  1.545109e+01    2.542788e+00
  1.546697e+01    2.451802e+00
  1.548284e+01    2.374933e+00
  1.549872e+01    2.275844e+00
  1.551459e+01    2.279565e+00
  1.553047e+01    2.216003e+00
  1.554634e+01    2.163069e+00
  1.556222e+01    2.152603e+00
  1.557809e+01    2.083824e+00
  1.559397e+01    2.094252e+00
  1.560985e+01    2.062145e+00
  1.562572e+01    2.057549e+00
  1.564160e+01    2.059011e+00
  1.565747e+01    2.038368e+00
  1.567335e+01    2.036818e+00
  1.568922e+01    2.035112e+00
  1.570510e+01    2.025268e+00
  1.572097e+01    1.983858e+00
  1.573685e+01    1.963463e+00
  1.575273e+01    1.963236e+00
  1.576860e+01    1.980759e+00
  1.578448e+01    1.921991e+00
  1.580035e+01    1.932011e+00
  1.581623e+01    1.954114e+00
  1.583210e+01    1.902455e+00
  1.584798e+01    1.897051e+00
  1.586385e+01    1.918977e+00
  1.587973e+01    1.943483e+00
  1.589561e+01    1.921196e+00
  1.591148e+01    1.910181e+00
  1.592736e+01    1.890853e+00
  1.594323e+01    1.894116e+00
  1.595911e+01    1.898290e+00
  1.597498e+01    1.898576e+00
  1.599086e+01    1.916904e+00
  1.600673e+01    1.863426e+00
  1.602261e+01    1.840876e+00
  1.603849e+01    1.834891e+00
  1.605436e+01    1.849697e+00
  1.607024e+01    1.859142e+00
  1.608611e+01    1.830613e+00
  1.610199e+01    1.844208e+00
  1.611786e+01    1.856986e+00
  1.613374e+01    1.863513e+00
  1.614961e+01    1.867399e+00
  1.616549e+01    1.855030e+00
  1.618137e+01    1.833644e+00
  1.619724e+01    1.838007e+00
  1.621312e+01    1.842316e+00
  1.622899e+01    1.829926e+00
  1.624487e+01    1.791642e+00
  1.626074e+01    1.787062e+00
  1.627662e+01    1.804108e+00
  1.629250e+01    1.799599e+00
  1.630837e+01    1.764619e+00
  1.632425e+01    1.770334e+00
  1.634012e+01    1.751107e+00
  1.635600e+01    1.770813e+00
  1.637187e+01    1.797305e+00
  1.638775e+01    1.771836e+00
  1.640362e+01    1.767613e+00
  1.641950e+01    1.767995e+00
  1.643538e+01    1.786041e+00
  1.645125e+01    1.778586e+00
  1.646713e+01    1.766609e+00
  1.648300e+01    1.771527e+00
  1.649888e+01    1.758537e+00
  1.651475e+01    1.737726e+00
  1.653063e+01    1.756336e+00
  1.654650e+01    1.721960e+00
  1.656238e+01    1.732988e+00
  1.657826e+01    1.731782e+00
  1.659413e+01    1.737432e+00
  1.661001e+01    1.733036e+00
  1.662588e+01    1.747122e+00
  1.664176e+01    1.718977e+00
  1.665763e+01    1.704280e+00
  1.667351e+01    1.739050e+00
  1.668938e+01    1.729759e+00
  1.670526e+01    1.725113e+00
  1.672114e+01    1.750469e+00
  1.673701e+01    1.738754e+00
  1.675289e+01    1.753807e+00
  1.676876e+01    1.707055e+00
  1.678464e+01    1.723786e+00
  1.680051e+01    1.733587e+00
  1.681639e+01    1.704961e+00
  1.683226e+01    1.681173e+00
  1.684814e+01    1.707427e+00
  1.686402e+01    1.685647e+00
  1.687989e+01    1.691283e+00
  1.689577e+01    1.681734e+00
  1.691164e+01    1.694652e+00
  1.692752e+01    1.687432e+00
  1.694339e+01    1.689545e+00
  1.695927e+01    1.715725e+00
  1.697514e+01    1.697337e+00
  1.699102e+01    1.681656e+00
  1.700690e+01    1.673079e+00
  1.702277e+01    1.683190e+00
  1.703865e+01    1.695246e+00
  1.705452e+01    1.675137e+00
  1.707040e+01    1.656655e+00
  1.708627e+01    1.675114e+00
  1.710215e+01    1.642374e+00
  1.711802e+01    1.643886e+00
  1.713390e+01    1.650008e+00
  1.714978e+01    1.671635e+00
  1.716565e+01    1.646273e+00
  1.718153e+01    1.638994e+00
  1.719740e+01    1.638707e+00
  1.721328e+01    1.643639e+00
  1.722915e+01    1.613521e+00
  1.724503e+01    1.589769e+00
  1.726091e+01    1.619938e+00
  1.727678e+01    1.617567e+00
  1.729266e+01    1.628739e+00
  1.730853e+01    1.617414e+00
  1.732441e+01    1.604616e+00
  1.734028e+01    1.591873e+00
  1.735616e+01    1.626554e+00
  1.737203e+01    1.653813e+00
  1.738791e+01    1.605811e+00
  1.740379e+01    1.560585e+00
  1.741966e+01    1.583053e+00
  1.743554e+01    1.586245e+00
  1.745141e+01    1.594449e+00
  1.746729e+01    1.588101e+00
  1.748316e+01    1.573753e+00
  1.749904e+01    1.598252e+00
  1.751491e+01    1.565118e+00
  1.753079e+01    1.572948e+00
  1.754667e+01    1.603181e+00
  1.756254e+01    1.593507e+00
  1.757842e+01    1.606718e+00
  1.759429e+01    1.603876e+00
  1.761017e+01    1.573817e+00
  1.762604e+01    1.538088e+00
  1.764192e+01    1.549422e+00
  1.765779e+01    1.558579e+00
  1.767367e+01    1.551528e+00
  1.768955e+01    1.529601e+00
  1.770542e+01    1.530582e+00
  1.772130e+01    1.559394e+00
  1.773717e+01    1.592495e+00
  1.775305e+01    1.578484e+00
  1.776892e+01    1.569753e+00
  1.778480e+01    1.550400e+00
  1.780067e+01    1.528947e+00
  1.781655e+01    1.529093e+00
  1.783243e+01    1.508436e+00
  1.784830e+01    1.500378e+00
  1.786418e+01    1.511141e+00
  1.788005e+01    1.521679e+00
  1.789593e+01    1.528663e+00
  1.791180e+01    1.528800e+00
  1.792768e+01    1.529444e+00
  1.794355e+01    1.542903e+00
  1.795943e+01    1.539603e+00
  1.797531e+01    1.523386e+00
  1.799118e+01    1.538853e+00
  1.800706e+01    1.512655e+00
  1.802293e+01    1.524629e+00
  1.803881e+01    1.495567e+00
  1.805468e+01    1.488549e+00
  1.807056e+01    1.530769e+00
  1.808643e+01    1.508139e+00
  1.810231e+01    1.498435e+00
  1.811819e+01    1.498877e+00
  1.813406e+01    1.479516e+00
  1.814994e+01    1.517068e+00
  1.816581e+01    1.497931e+00
  1.818169e+01    1.504571e+00
  1.819756e+01    1.488122e+00
  1.821344e+01    1.475373e+00
  1.822932e+01    1.484463e+00
  1.824519e+01    1.494908e+00
  1.826107e+01    1.481622e+00
  1.827694e+01    1.507570e+00
  1.829282e+01    1.484553e+00
  1.830869e+01    1.492747e+00
  1.832457e+01    1.477969e+00
  1.834044e+01    1.461529e+00
  1.835632e+01    1.446075e+00
  1.837220e+01    1.463036e+00
  1.838807e+01    1.448294e+00
  1.840395e+01    1.474235e+00
  1.841982e+01    1.425058e+00
  1.843570e+01    1.422644e+00
  1.845157e+01    1.452139e+00
  1.846745e+01    1.475819e+00
  1.848332e+01    1.464493e+00
  1.849920e+01    1.443436e+00
  1.851508e+01    1.416163e+00
  1.853095e+01    1.407748e+00
  1.854683e+01    1.399311e+00
  1.856270e+01    1.402014e+00
  1.857858e+01    1.423996e+00
  1.859445e+01    1.423972e+00
  1.861033e+01    1.420494e+00
  1.862620e+01    1.411387e+00
  1.864208e+01    1.435577e+00
  1.865796e+01    1.429407e+00
  1.867383e+01    1.406978e+00
  1.868971e+01    1.424506e+00
  1.870558e+01    1.436779e+00
  1.872146e+01    1.478833e+00
  1.873733e+01    1.439322e+00
  1.875321e+01    1.379689e+00
  1.876908e+01    1.410429e+00
  1.878496e+01    1.445320e+00
  1.880084e+01    1.440784e+00
  1.881671e+01    1.414077e+00
  1.883259e+01    1.418411e+00
  1.884846e+01    1.409008e+00
  1.886434e+01    1.403132e+00
  1.888021e+01    1.404588e+00
  1.889609e+01    1.379916e+00
  1.891196e+01    1.375131e+00
  1.892784e+01    1.381854e+00
  1.894372e+01    1.406950e+00
  1.895959e+01    1.391477e+00
  1.897547e+01    1.380405e+00
  1.899134e+01    1.377489e+00
  1.900722e+01    1.387603e+00
  1.902309e+01    1.407793e+00
  1.903897e+01    1.385685e+00
  1.905484e+01    1.354016e+00
  1.907072e+01    1.378328e+00
  1.908660e+01    1.391280e+00
  1.910247e+01    1.391500e+00
  1.911835e+01    1.359134e+00
  1.913422e+01    1.370203e+00
  1.915010e+01    1.362484e+00
  1.916597e+01    1.368663e+00
  1.918185e+01    1.391425e+00
  1.919773e+01    1.412432e+00
  1.921360e+01    1.373649e+00
  1.922948e+01    1.357348e+00
  1.924535e+01    1.341078e+00
  1.926123e+01    1.338433e+00
  1.927710e+01    1.382846e+00
  1.929298e+01    1.344435e+00
  1.930885e+01    1.339830e+00
  1.932473e+01    1.366672e+00
  1.934061e+01    1.373690e+00
  1.935648e+01    1.367950e+00
  1.937236e+01    1.355036e+00
  1.938823e+01    1.356586e+00
  1.940411e+01    1.366890e+00
  1.941998e+01    1.329084e+00
  1.943586e+01    1.338136e+00
  1.945173e+01    1.370499e+00
  1.946761e+01    1.342199e+00
  1.948349e+01    1.326011e+00
  1.949936e+01    1.344836e+00
  1.951524e+01    1.321346e+00
  1.953111e+01    1.319248e+00
  1.954699e+01    1.318143e+00
  1.956286e+01    1.312846e+00
  1.957874e+01    1.283498e+00
  1.959461e+01    1.284494e+00
  1.961049e+01    1.304083e+00
  1.962637e+01    1.332811e+00
  1.964224e+01    1.317763e+00
  1.965812e+01    1.317304e+00
  1.967399e+01    1.333528e+00
  1.968987e+01    1.345313e+00
  1.970574e+01    1.316424e+00
  1.972162e+01    1.313208e+00
  1.973749e+01    1.273827e+00
  1.975337e+01    1.304615e+00
  1.976925e+01    1.305891e+00
  1.978512e+01    1.296217e+00
  1.980100e+01    1.314574e+00
  1.981687e+01    1.295891e+00
  1.983275e+01    1.309320e+00
  1.984862e+01    1.306788e+00
  1.986450e+01    1.291265e+00
  1.988037e+01    1.297503e+00
  1.989625e+01    1.299414e+00
  1.991213e+01    1.299667e+00
  1.992800e+01    1.300813e+00
  1.994388e+01    1.286234e+00
  1.995975e+01    1.323597e+00
  1.997563e+01    1.295809e+00
  1.999150e+01    1.295441e+00
  2.000738e+01    1.288503e+00
  2.002325e+01    1.284640e+00
  2.003913e+01    1.281025e+00
  2.005501e+01    1.268535e+00
  2.007088e+01    1.276120e+00
  2.008676e+01    1.288263e+00
  2.010263e+01    1.254338e+00
  2.011851e+01    1.242035e+00
  2.013438e+01    1.257837e+00
  2.015026e+01    1.270765e+00
  2.016614e+01    1.272058e+00
  2.018201e+01    1.270746e+00
  2.019789e+01    1.282910e+00
  2.021376e+01    1.275882e+00
  2.022964e+01    1.272322e+00
  2.024551e+01    1.285480e+00
  2.026139e+01    1.283857e+00
  2.027726e+01    1.256152e+00
  2.029314e+01    1.261610e+00
  2.030902e+01    1.246988e+00
  2.032489e+01    1.268952e+00
  2.034077e+01    1.266645e+00
  2.035664e+01    1.234682e+00
  2.037252e+01    1.254675e+00
  2.038839e+01    1.258770e+00
  2.040427e+01    1.244870e+00
  2.042014e+01    1.238649e+00
  2.043602e+01    1.236512e+00
  2.045190e+01    1.227105e+00
  2.046777e+01    1.246164e+00
  2.048365e+01    1.241033e+00
  2.049952e+01    1.248671e+00
  2.051540e+01    1.255885e+00
  2.053127e+01    1.233224e+00
  2.054715e+01    1.230124e+00
  2.056302e+01    1.213123e+00
  2.057890e+01    1.215145e+00
  2.059478e+01    1.220994e+00
  2.061065e+01    1.233295e+00
  2.062653e+01    1.236350e+00
  2.064240e+01    1.202837e+00
  2.065828e+01    1.239919e+00
  2.067415e+01    1.211981e+00
  2.069003e+01    1.208200e+00
  2.070590e+01    1.205470e+00
  2.072178e+01    1.234925e+00
  2.073766e+01    1.223560e+00
  2.075353e+01    1.208086e+00
  2.076941e+01    1.204096e+00
  2.078528e+01    1.228150e+00
  2.080116e+01    1.209124e+00
  2.081703e+01    1.219639e+00
  2.083291e+01    1.227856e+00
  2.084878e+01    1.222083e+00
  2.086466e+01    1.224194e+00
  2.088054e+01    1.247617e+00
  2.089641e+01    1.237361e+00
  2.091229e+01    1.235102e+00
  2.092816e+01    1.224772e+00
  2.094404e+01    1.237226e+00
  2.095991e+01    1.240487e+00
  2.097579e+01    1.228774e+00
  2.099166e+01    1.219790e+00
  2.100754e+01    1.235154e+00
  2.102342e+01    1.216794e+00
  2.103929e+01    1.215693e+00
  2.105517e+01    1.219930e+00
  2.107104e+01    1.221004e+00
  2.108692e+01    1.225402e+00
  2.110279e+01    1.221822e+00
  2.111867e+01    1.222711e+00
  2.113455e+01    1.242680e+00
  2.115042e+01    1.235572e+00
  2.116630e+01    1.254744e+00
  2.118217e+01    1.250945e+00
  2.119805e+01    1.235212e+00
  2.121392e+01    1.254167e+00
  2.122980e+01    1.244311e+00
  2.124567e+01    1.255798e+00
  2.126155e+01    1.239213e+00
  2.127743e+01    1.227300e+00
  2.129330e+01    1.256992e+00
  2.130918e+01    1.259951e+00
  2.132505e+01    1.272929e+00
  2.134093e+01    1.290884e+00
  2.135680e+01    1.298370e+00
  2.137268e+01    1.301219e+00
  2.138855e+01    1.296449e+00
  2.140443e+01    1.284755e+00
  2.142031e+01    1.313612e+00
  2.143618e+01    1.327743e+00
  2.145206e+01    1.340689e+00
  2.146793e+01    1.384814e+00
  2.148381e+01    1.402312e+00
  2.149968e+01    1.394710e+00
  2.151556e+01    1.436861e+00
  2.153143e+01    1.482744e+00
  2.154731e+01    1.526691e+00
  2.156319e+01    1.573194e+00
  2.157906e+01    1.604063e+00
  2.159494e+01    1.668856e+00
  2.161081e+01    1.736666e+00
  2.162669e+01    1.848051e+00
  2.164256e+01    1.970164e+00
  2.165844e+01    2.108042e+00
  2.167431e+01    2.312111e+00
  2.169019e+01    2.511775e+00
  2.170607e+01    2.834262e+00
  2.172194e+01    3.160047e+00
  2.173782e+01    3.527655e+00
  2.175369e+01    4.032885e+00
  2.176957e+01    4.590234e+00
  2.178544e+01    5.230117e+00
  2.180132e+01    5.825407e+00
  2.181719e+01    6.495889e+00
  2.183307e+01    7.131902e+00
  2.184895e+01    7.748559e+00
  2.186482e+01    8.347379e+00
  2.188070e+01    8.683451e+00
  2.189657e+01    8.848151e+00
  2.191245e+01    8.762521e+00
  2.192832e+01    8.268240e+00
  2.194420e+01    7.390423e+00
  2.196007e+01    6.546661e+00
  2.197595e+01    5.710166e+00
  2.199183e+01    4.862597e+00
  2.200770e+01    4.134213e+00
  2.202358e+01    3.565700e+00
  2.203945e+01    3.137587e+00
  2.205533e+01    2.867438e+00
  2.207120e+01    2.564774e+00
  2.208708e+01    2.335632e+00
  2.210296e+01    2.184717e+00
  2.211883e+01    2.007367e+00
  2.213471e+01    1.870215e+00
  2.215058e+01    1.746328e+00
  2.216646e+01    1.666758e+00
  2.218233e+01    1.629515e+00
  2.219821e+01    1.570260e+00
  2.221408e+01    1.504302e+00
  2.222996e+01    1.469911e+00
  2.224584e+01    1.450000e+00
  2.226171e+01    1.395685e+00
  2.227759e+01    1.369017e+00
  2.229346e+01    1.322794e+00
  2.230934e+01    1.291530e+00
  2.232521e+01    1.271494e+00
  2.234109e+01    1.244884e+00
  2.235696e+01    1.248257e+00
  2.237284e+01    1.232239e+00
  2.238872e+01    1.200671e+00
  2.240459e+01    1.182661e+00
  2.242047e+01    1.168331e+00
  2.243634e+01    1.161453e+00
  2.245222e+01    1.178041e+00
  2.246809e+01    1.145784e+00
  2.248397e+01    1.146362e+00
  2.249984e+01    1.138212e+00
  2.251572e+01    1.143574e+00
  2.253160e+01    1.147548e+00
  2.254747e+01    1.124557e+00
  2.256335e+01    1.103686e+00
  2.257922e+01    1.088583e+00
  2.259510e+01    1.106014e+00
  2.261097e+01    1.116836e+00
  2.262685e+01    1.086023e+00
  2.264272e+01    1.068493e+00
  2.265860e+01    1.096510e+00
  2.267448e+01    1.115356e+00
  2.269035e+01    1.092902e+00
  2.270623e+01    1.082110e+00
  2.272210e+01    1.079658e+00
  2.273798e+01    1.064987e+00
  2.275385e+01    1.058811e+00
  2.276973e+01    1.069912e+00
  2.278560e+01    1.053757e+00
  2.280148e+01    1.052315e+00
  2.281736e+01    1.052551e+00
  2.283323e+01    1.036626e+00
  2.284911e+01    1.038950e+00
  2.286498e+01    1.054593e+00
  2.288086e+01    1.043331e+00
  2.289673e+01    1.031648e+00
  2.291261e+01    1.040227e+00
  2.292848e+01    1.045548e+00
  2.294436e+01    1.055776e+00
  2.296024e+01    1.051008e+00
  2.297611e+01    1.037528e+00
  2.299199e+01    1.026928e+00
  2.300786e+01    1.032300e+00
  2.302374e+01    1.033671e+00
  2.303961e+01    1.009067e+00
  2.305549e+01    9.973580e-01
  2.307137e+01    1.018691e+00
  2.308724e+01    1.033840e+00
  2.310312e+01    1.017439e+00
  2.311899e+01    1.015505e+00
  2.313487e+01    1.001127e+00
  2.315074e+01    9.830048e-01
  2.316662e+01    9.909650e-01
  2.318249e+01    9.980689e-01
  2.319837e+01    1.002326e+00
  2.321425e+01    9.985148e-01
  2.323012e+01    1.003939e+00
  2.324600e+01    1.003910e+00
  2.326187e+01    9.830539e-01
  2.327775e+01    9.910595e-01
  2.329362e+01    9.944259e-01
  2.330950e+01    9.688353e-01
  2.332537e+01    9.812471e-01
  2.334125e+01    9.652231e-01
  2.335713e+01    9.600642e-01
  2.337300e+01    9.850149e-01
  2.338888e+01    9.883617e-01
  2.340475e+01    9.714539e-01
  2.342063e+01    9.811221e-01
  2.343650e+01    9.615281e-01
  2.345238e+01    9.699600e-01
  2.346825e+01    9.778871e-01
  2.348413e+01    9.654949e-01
  2.350001e+01    9.483823e-01
  2.351588e+01    9.490133e-01
  2.353176e+01    9.647378e-01
  2.354763e+01    9.720259e-01
  2.356351e+01    9.512369e-01
  2.357938e+01    9.582195e-01
  2.359526e+01    9.649116e-01
  2.361113e+01    9.583059e-01
  2.362701e+01    9.506781e-01
  2.364289e+01    9.549302e-01
  2.365876e+01    9.461423e-01
  2.367464e+01    9.405196e-01
  2.369051e+01    9.418671e-01
  2.370639e+01    9.474863e-01
  2.372226e+01    9.421945e-01
  2.373814e+01    9.373803e-01
  2.375401e+01    9.435846e-01
  2.376989e+01    9.374270e-01
  2.378577e+01    9.193822e-01
  2.380164e+01    9.192835e-01
  2.381752e+01    9.181963e-01
  2.383339e+01    9.147680e-01
  2.384927e+01    9.001127e-01
  2.386514e+01    9.035221e-01
  2.388102e+01    9.171357e-01
  2.389689e+01    9.180422e-01
  2.391277e+01    9.179893e-01
  2.392865e+01    8.853892e-01
  2.394452e+01    8.842804e-01
  2.396040e+01    8.969817e-01
  2.397627e+01    9.248343e-01
  2.399215e+01    8.889553e-01
  2.400802e+01    8.822279e-01
  2.402390e+01    8.949255e-01
  2.403978e+01    8.854060e-01
  2.405565e+01    8.899255e-01
  2.407153e+01    8.743423e-01
  2.408740e+01    8.854897e-01
  2.410328e+01    8.891945e-01
  2.411915e+01    8.664443e-01
  2.413503e+01    8.792728e-01
  2.415090e+01    8.865476e-01
  2.416678e+01    8.720476e-01
  2.418266e+01    8.896319e-01
  2.419853e+01    8.952016e-01
  2.421441e+01    8.959658e-01
  2.423028e+01    8.834989e-01
  2.424616e+01    8.759539e-01
  2.426203e+01    9.029721e-01
  2.427791e+01    8.950345e-01
  2.429378e+01    8.962078e-01
  2.430966e+01    8.987035e-01
  2.432554e+01    8.825176e-01
  2.434141e+01    8.600358e-01
  2.435729e+01    8.784606e-01
  2.437316e+01    8.806340e-01
  2.438904e+01    8.980537e-01
  2.440491e+01    8.970208e-01
  2.442079e+01    9.225953e-01
  2.443666e+01    9.040340e-01
  2.445254e+01    8.821604e-01
  2.446842e+01    9.166343e-01
  2.448429e+01    9.028347e-01
  2.450017e+01    9.118392e-01
  2.451604e+01    9.046729e-01
  2.453192e+01    8.880374e-01
  2.454779e+01    8.870949e-01
  2.456367e+01    8.975278e-01
  2.457954e+01    8.945869e-01
  2.459542e+01    8.904651e-01
  2.461130e+01    8.905438e-01
  2.462717e+01    8.805910e-01
  2.464305e+01    8.886358e-01
  2.465892e+01    8.901585e-01
  2.467480e+01    8.922518e-01
  2.469067e+01    8.968533e-01
  2.470655e+01    8.922016e-01
  2.472242e+01    8.845467e-01
  2.473830e+01    9.001517e-01
  2.475418e+01    8.997799e-01
  2.477005e+01    8.991315e-01
  2.478593e+01    8.865288e-01
  2.480180e+01    8.631988e-01
  2.481768e+01    8.669373e-01
  2.483355e+01    8.742747e-01
  2.484943e+01    8.728579e-01
  2.486530e+01    8.808933e-01
  2.488118e+01    8.926756e-01
  2.489706e+01    8.991308e-01
  2.491293e+01    9.007426e-01
  2.492881e+01    9.031720e-01
  2.494468e+01    9.054863e-01
  2.496056e+01    9.000648e-01
  2.497643e+01    9.106077e-01
  2.499231e+01    9.077086e-01
  2.500819e+01    9.097853e-01
  2.502406e+01    9.075350e-01
  2.503994e+01    9.029427e-01
  2.505581e+01    8.912637e-01
  2.507169e+01    9.031301e-01
  2.508756e+01    9.101342e-01
  2.510344e+01    9.173939e-01
  2.511931e+01    9.129162e-01
  2.513519e+01    9.055887e-01
  2.515107e+01    9.101313e-01
  2.516694e+01    9.082845e-01
  2.518282e+01    9.314539e-01
  2.519869e+01    9.342205e-01
  2.521457e+01    9.359822e-01
  2.523044e+01    9.383247e-01
  2.524632e+01    9.361229e-01
  2.526219e+01    9.541292e-01
  2.527807e+01    9.557164e-01
  2.529395e+01    9.553730e-01
  2.530982e+01    9.365165e-01
  2.532570e+01    9.566315e-01
  2.534157e+01    9.713970e-01
  2.535745e+01    9.836451e-01
  2.537332e+01    9.622512e-01
  2.538920e+01    9.902694e-01
  2.540507e+01    9.961998e-01
  2.542095e+01    9.951718e-01
  2.543683e+01    1.031647e+00
  2.545270e+01    1.023078e+00
  2.546858e+01    1.046555e+00
  2.548445e+01    1.076416e+00
  2.550033e+01    1.047631e+00
  2.551620e+01    1.053487e+00
  2.553208e+01    1.085315e+00
  2.554795e+01    1.117515e+00
  2.556383e+01    1.133888e+00
  2.557971e+01    1.152843e+00
  2.559558e+01    1.177299e+00
  2.561146e+01    1.211606e+00
  2.562733e+01    1.249066e+00
  2.564321e+01    1.300240e+00
  2.565908e+01    1.347134e+00
  2.567496e+01    1.404478e+00
  2.569083e+01    1.486174e+00
  2.570671e+01    1.572406e+00
  2.572259e+01    1.714283e+00
  2.573846e+01    1.836285e+00
  2.575434e+01    2.017329e+00
  2.577021e+01    2.230992e+00
  2.578609e+01    2.490132e+00
  2.580196e+01    2.818986e+00
  2.581784e+01    3.165187e+00
  2.583371e+01    3.639793e+00
  2.584959e+01    4.120898e+00
  2.586547e+01    4.666275e+00
  2.588134e+01    5.224451e+00
  2.589722e+01    5.761057e+00
  2.591309e+01    6.339196e+00
  2.592897e+01    6.820917e+00
  2.594484e+01    7.087062e+00
  2.596072e+01    7.135885e+00
  2.597660e+01    7.004478e+00
  2.599247e+01    6.587218e+00
  2.600835e+01    5.939527e+00
  2.602422e+01    5.262045e+00
  2.604010e+01    4.557973e+00
  2.605597e+01    3.971363e+00
  2.607185e+01    3.429349e+00
  2.608772e+01    2.991140e+00
  2.610360e+01    2.654479e+00
  2.611948e+01    2.382426e+00
  2.613535e+01    2.150778e+00
  2.615123e+01    1.950403e+00
  2.616710e+01    1.806013e+00
  2.618298e+01    1.683440e+00
  2.619885e+01    1.577892e+00
  2.621473e+01    1.491668e+00
  2.623060e+01    1.429065e+00
  2.624648e+01    1.333975e+00
  2.626236e+01    1.296728e+00
  2.627823e+01    1.250394e+00
  2.629411e+01    1.211163e+00
  2.630998e+01    1.184297e+00
  2.632586e+01    1.151441e+00
  2.634173e+01    1.095174e+00
  2.635761e+01    1.090859e+00
  2.637348e+01    1.077932e+00
  2.638936e+01    1.063569e+00
  2.640524e+01    1.052755e+00
  2.642111e+01    1.039556e+00
  2.643699e+01    1.011639e+00
  2.645286e+01    1.008628e+00
  2.646874e+01    1.037550e+00
  2.648461e+01    1.009423e+00
  2.650049e+01    1.001211e+00
  2.651636e+01    9.978013e-01
  2.653224e+01    9.905413e-01
  2.654812e+01    9.932499e-01
  2.656399e+01    1.016407e+00
  2.657987e+01    9.898485e-01
  2.659574e+01    9.888110e-01
  2.661162e+01    9.840574e-01
  2.662749e+01    9.737214e-01
  2.664337e+01    9.680910e-01
  2.665924e+01    9.975603e-01
  2.667512e+01    9.817548e-01
  2.669100e+01    9.657826e-01
  2.670687e+01    9.699529e-01
  2.672275e+01    9.703054e-01
  2.673862e+01    9.701021e-01
  2.675450e+01    9.575226e-01
  2.677037e+01    9.838279e-01
  2.678625e+01    9.934391e-01
  2.680212e+01    9.812410e-01
  2.681800e+01    9.647743e-01
  2.683388e+01    9.709116e-01
  2.684975e+01    9.720377e-01
  2.686563e+01    9.800577e-01
  2.688150e+01    9.663264e-01
  2.689738e+01    9.926224e-01
  2.691325e+01    9.918171e-01
  2.692913e+01    1.000973e+00
  2.694501e+01    1.042257e+00
  2.696088e+01    1.069622e+00
  2.697676e+01    1.055637e+00
  2.699263e+01    1.059611e+00
  2.700851e+01    1.096536e+00
  2.702438e+01    1.143231e+00
  2.704026e+01    1.170090e+00
  2.705613e+01    1.251560e+00
  2.707201e+01    1.308655e+00
  2.708789e+01    1.398228e+00
  2.710376e+01    1.519632e+00
  2.711964e+01    1.620670e+00
  2.713551e+01    1.762452e+00
  2.715139e+01    1.858224e+00
  2.716726e+01    1.962285e+00
  2.718314e+01    2.069160e+00
  2.719901e+01    2.181465e+00
  2.721489e+01    2.208102e+00
  2.723077e+01    2.147732e+00
  2.724664e+01    2.071223e+00
  2.726252e+01    1.962528e+00
  2.727839e+01    1.799545e+00
  2.729427e+01    1.698394e+00
  2.731014e+01    1.581514e+00
  2.732602e+01    1.473996e+00
  2.734189e+01    1.353628e+00
  2.735777e+01    1.298379e+00
  2.737365e+01    1.209614e+00
  2.738952e+01    1.144997e+00
  2.740540e+01    1.101020e+00
  2.742127e+01    1.073925e+00
  2.743715e+01    1.049022e+00
  2.745302e+01    1.050552e+00
  2.746890e+01    1.033707e+00
  2.748477e+01    1.003162e+00
  2.750065e+01    9.967682e-01
  2.751653e+01    1.012125e+00
  2.753240e+01    9.764245e-01
  2.754828e+01    9.692327e-01
  2.756415e+01    9.543899e-01
  2.758003e+01    9.261144e-01
  2.759590e+01    9.277011e-01
  2.761178e+01    9.107454e-01
  2.762765e+01    9.253470e-01
  2.764353e+01    9.111968e-01
  2.765941e+01    9.091504e-01
  2.767528e+01    9.230945e-01
  2.769116e+01    9.051210e-01
  2.770703e+01    9.254436e-01
  2.772291e+01    9.094613e-01
  2.773878e+01    9.125714e-01
  2.775466e+01    8.858929e-01
  2.777054e+01    8.690158e-01
  2.778641e+01    8.854432e-01
  2.780229e+01    8.914793e-01
  2.781816e+01    8.943624e-01
  2.783404e+01    8.787041e-01
  2.784991e+01    8.902741e-01
  2.786579e+01    8.993479e-01
  2.788166e+01    8.786888e-01
  2.789754e+01    8.845459e-01
  2.791342e+01    8.822342e-01
  2.792929e+01    9.049853e-01
  2.794517e+01    8.853279e-01
  2.796104e+01    8.633013e-01
  2.797692e+01    8.497651e-01
  2.799279e+01    8.462099e-01
  2.800867e+01    8.732858e-01
  2.802454e+01    8.896097e-01
  2.804042e+01    8.725871e-01
  2.805630e+01    8.804733e-01
  2.807217e+01    8.679875e-01
  2.808805e+01    8.522764e-01
  2.810392e+01    8.675846e-01
  2.811980e+01    8.437323e-01
  2.813567e+01    8.435317e-01
  2.815155e+01    8.594040e-01
  2.816742e+01    8.424022e-01
  2.818330e+01    8.618414e-01
  2.819918e+01    8.579311e-01
  2.821505e+01    8.257564e-01
  2.823093e+01    8.545573e-01
  2.824680e+01    8.660132e-01
  2.826268e+01    8.548484e-01
  2.827855e+01    8.300422e-01
  2.829443e+01    8.537953e-01
  2.831030e+01    8.476609e-01
  2.832618e+01    8.531836e-01
  2.834206e+01    8.551217e-01
  2.835793e+01    8.621779e-01
  2.837381e+01    8.730208e-01
  2.838968e+01    8.541080e-01
  2.840556e+01    8.462490e-01
  2.842143e+01    8.415616e-01
  2.843731e+01    8.354352e-01
  2.845318e+01    8.423369e-01
  2.846906e+01    8.616955e-01
  2.848494e+01    8.522865e-01
  2.850081e+01    8.502535e-01
  2.851669e+01    8.355267e-01
  2.853256e+01    8.627713e-01
  2.854844e+01    8.369510e-01
  2.856431e+01    8.271074e-01
  2.858019e+01    8.205380e-01
  2.859606e+01    8.221000e-01
  2.861194e+01    8.357140e-01
  2.862782e+01    8.490497e-01
  2.864369e+01    8.459860e-01
  2.865957e+01    8.342948e-01
  2.867544e+01    8.348207e-01
  2.869132e+01    8.523763e-01
  2.870719e+01    8.388981e-01
  2.872307e+01    8.344314e-01
  2.873895e+01    8.301828e-01
  2.875482e+01    8.316149e-01
  2.877070e+01    8.416915e-01
  2.878657e+01    8.152908e-01
  2.880245e+01    8.210581e-01
  2.881832e+01    8.215657e-01
  2.883420e+01    8.144855e-01
  2.885007e+01    8.260520e-01
  2.886595e+01    8.148931e-01
  2.888183e+01    8.205708e-01
  2.889770e+01    8.220232e-01
  2.891358e+01    8.254536e-01
  2.892945e+01    8.138576e-01
  2.894533e+01    8.079637e-01
  2.896120e+01    8.064058e-01
  2.897708e+01    8.159071e-01
  2.899295e+01    8.183897e-01
  2.900883e+01    8.284395e-01
  2.902471e+01    8.309960e-01
  2.904058e+01    8.194208e-01
  2.905646e+01    8.146564e-01
  2.907233e+01    8.209312e-01
  2.908821e+01    8.302119e-01
  2.910408e+01    8.151987e-01
  2.911996e+01    8.242750e-01
  2.913583e+01    8.113002e-01
  2.915171e+01    8.136512e-01
  2.916759e+01    8.250921e-01
  2.918346e+01    8.324318e-01
  2.919934e+01    8.365393e-01
  2.921521e+01    8.096482e-01
  2.923109e+01    8.033681e-01
  2.924696e+01    8.148049e-01
  2.926284e+01    8.065730e-01
  2.927871e+01    8.053591e-01
  2.929459e+01    8.086339e-01
  2.931047e+01    8.359770e-01
  2.932634e+01    8.195073e-01
  2.934222e+01    8.207355e-01
  2.935809e+01    8.128366e-01
  2.937397e+01    7.954384e-01
  2.938984e+01    8.079520e-01
  2.940572e+01    7.900458e-01
  2.942159e+01    8.227907e-01
  2.943747e+01    8.302486e-01
  2.945335e+01    8.187301e-01
  2.946922e+01    8.179560e-01
  2.948510e+01    8.198994e-01
  2.950097e+01    8.044932e-01
  2.951685e+01    8.115090e-01
  2.953272e+01    8.041331e-01
  2.954860e+01    7.962687e-01
  2.956447e+01    8.046737e-01
  2.958035e+01    7.994503e-01
  2.959623e+01    8.048410e-01
  2.961210e+01    8.002716e-01
  2.962798e+01    7.958680e-01
  2.964385e+01    7.932465e-01
  2.965973e+01    7.947555e-01
  2.967560e+01    8.052033e-01
  2.969148e+01    8.139669e-01
  2.970736e+01    7.876751e-01
  2.972323e+01    7.881406e-01
  2.973911e+01    7.922977e-01
  2.975498e+01    7.759902e-01
  2.977086e+01    7.875479e-01
  2.978673e+01    8.060578e-01
  2.980261e+01    8.038314e-01
  2.981848e+01    8.167649e-01
  2.983436e+01    8.102732e-01
  2.985024e+01    8.028159e-01
  2.986611e+01    8.212179e-01
  2.988199e+01    8.021429e-01
  2.989786e+01    8.022676e-01
  2.991374e+01    7.915426e-01
  2.992961e+01    8.069071e-01
  2.994549e+01    8.082801e-01
  2.996136e+01    8.071133e-01
  2.997724e+01    8.020709e-01
  2.999312e+01    8.068876e-01
  3.000899e+01    8.062032e-01
  3.002487e+01    8.071677e-01
  3.004074e+01    8.173537e-01
  3.005662e+01    8.156383e-01
  3.007249e+01    8.288116e-01
  3.008837e+01    7.978969e-01
  3.010424e+01    7.948911e-01
  3.012012e+01    8.024006e-01
  3.013600e+01    8.069144e-01
  3.015187e+01    8.110236e-01
  3.016775e+01    7.915311e-01
  3.018362e+01    7.915267e-01
  3.019950e+01    7.810128e-01
  3.021537e+01    7.795593e-01
  3.023125e+01    7.831603e-01
  3.024712e+01    7.952173e-01
  3.026300e+01    8.121596e-01
  3.027888e+01    7.861025e-01
  3.029475e+01    7.803186e-01
  3.031063e+01    7.861130e-01
  3.032650e+01    7.865049e-01
  3.034238e+01    7.977442e-01
  3.035825e+01    8.039441e-01
  3.037413e+01    8.151398e-01
  3.039000e+01    7.916136e-01
  3.040588e+01    7.906374e-01
  3.042176e+01    7.828760e-01
  3.043763e+01    8.076036e-01
  3.045351e+01    7.973379e-01
  3.046938e+01    7.857754e-01
  3.048526e+01    7.937456e-01
  3.050113e+01    7.835956e-01
  3.051701e+01    8.031753e-01
  3.053288e+01    7.952138e-01
  3.054876e+01    7.757215e-01
  3.056464e+01    7.833512e-01
  3.058051e+01    7.966939e-01
  3.059639e+01    7.883063e-01
  3.061226e+01    7.658387e-01
  3.062814e+01    7.838317e-01
  3.064401e+01    7.830700e-01
  3.065989e+01    7.811351e-01
  3.067577e+01    7.911233e-01
  3.069164e+01    7.944463e-01
  3.070752e+01    7.944527e-01
  3.072339e+01    8.059282e-01
  3.073927e+01    7.850751e-01
  3.075514e+01    7.866585e-01
  3.077102e+01    7.670423e-01
  3.078689e+01    7.671713e-01
  3.080277e+01    7.826964e-01
  3.081865e+01    7.994742e-01
  3.083452e+01    7.963140e-01
  3.085040e+01    8.056855e-01
  3.086627e+01    7.858859e-01
  3.088215e+01    7.830831e-01
  3.089802e+01    8.033099e-01
  3.091390e+01    7.863566e-01
  3.092977e+01    7.760274e-01
  3.094565e+01    7.620467e-01
  3.096153e+01    7.752299e-01
  3.097740e+01    7.938131e-01
  3.099328e+01    7.899576e-01
  3.100915e+01    7.778032e-01
  3.102503e+01    7.770870e-01
  3.104090e+01    7.815556e-01
  3.105678e+01    7.840524e-01
  3.107265e+01    7.895436e-01
  3.108853e+01    8.055562e-01
  3.110441e+01    7.855955e-01
  3.112028e+01    7.648672e-01
  3.113616e+01    7.933823e-01
  3.115203e+01    7.921096e-01
  3.116791e+01    7.874598e-01
  3.118378e+01    8.088337e-01
  3.119966e+01    8.080879e-01
  3.121553e+01    8.084140e-01
  3.123141e+01    7.658899e-01
  3.124729e+01    7.804733e-01
  3.126316e+01    8.135425e-01
  3.127904e+01    7.965530e-01
  3.129491e+01    8.123027e-01
  3.131079e+01    8.086752e-01
  3.132666e+01    8.042105e-01
  3.134254e+01    7.881811e-01
  3.135841e+01    7.929487e-01
  3.137429e+01    7.976668e-01
  3.139017e+01    8.070865e-01
  3.140604e+01    8.248547e-01
  3.142192e+01    8.123955e-01
  3.143779e+01    8.127283e-01
  3.145367e+01    8.200634e-01
  3.146954e+01    7.974611e-01
  3.148542e+01    8.161669e-01
  3.150129e+01    8.128222e-01
  3.151717e+01    8.214598e-01
  3.153305e+01    8.374769e-01
  3.154892e+01    8.377925e-01
  3.156480e+01    8.617157e-01
  3.158067e+01    8.700778e-01
  3.159655e+01    8.795033e-01
  3.161242e+01    8.882465e-01
  3.162830e+01    8.883484e-01
  3.164418e+01    9.121798e-01
  3.166005e+01    9.469259e-01
  3.167593e+01    9.668322e-01
  3.169180e+01    9.829850e-01
  3.170768e+01    1.044663e+00
  3.172355e+01    1.087674e+00
  3.173943e+01    1.102453e+00
  3.175530e+01    1.159081e+00
  3.177118e+01    1.270211e+00
  3.178706e+01    1.357244e+00
  3.180293e+01    1.454238e+00
  3.181881e+01    1.585359e+00
  3.183468e+01    1.727585e+00
  3.185056e+01    1.825562e+00
  3.186643e+01    1.938773e+00
  3.188231e+01    2.036177e+00
  3.189818e+01    2.114950e+00
  3.191406e+01    2.051541e+00
  3.192994e+01    2.016541e+00
  3.194581e+01    1.958825e+00
  3.196169e+01    1.820641e+00
  3.197756e+01    1.708684e+00
  3.199344e+01    1.553136e+00
  3.200931e+01    1.441267e+00
  3.202519e+01    1.332470e+00
  3.204106e+01    1.252075e+00
  3.205694e+01    1.154536e+00
  3.207282e+01    1.085882e+00
  3.208869e+01    1.041078e+00
  3.210457e+01    9.949410e-01
  3.212044e+01    9.783549e-01
  3.213632e+01    9.454390e-01
  3.215219e+01    9.037860e-01
  3.216807e+01    8.754293e-01
  3.218394e+01    8.731258e-01
  3.219982e+01    8.531603e-01
  3.221570e+01    8.497943e-01
  3.223157e+01    8.200900e-01
  3.224745e+01    8.298426e-01
  3.226332e+01    8.348565e-01
  3.227920e+01    8.232232e-01
  3.229507e+01    7.963974e-01
  3.231095e+01    8.092185e-01
  3.232682e+01    8.119496e-01
  3.234270e+01    8.047791e-01
  3.235858e+01    8.130551e-01
  3.237445e+01    8.063294e-01
  3.239033e+01    8.086488e-01
  3.240620e+01    7.894447e-01
  3.242208e+01    7.828842e-01
  3.243795e+01    7.635465e-01
  3.245383e+01    7.656559e-01
  3.246970e+01    7.761191e-01
  3.248558e+01    8.062348e-01
  3.250146e+01    7.905528e-01
  3.251733e+01    7.826062e-01
  3.253321e+01    7.901316e-01
  3.254908e+01    7.948003e-01
