# == pyFAI calibration ==
# Distance Sample to Detector: 0.3999999939076516 m
# PONI: 9.750e-02, 1.135e-01 m
# Rotations: -0.000175 0.000000 -0.000000 rad
# 
# == Fit2d calibration ==
# Distance Sample-beamCenter: 400.000 mm
# Center: x=1514.000, y=1300.000 pix
# Tilt: 0.010 deg  TiltPlanRot: 0.010 deg
# 
# Detector Detector	 Spline= None	 PixelSize= 7.500e-05, 7.500e-05 m
#    Detector has a mask: False 
#    Detector has a dark current: False 
#    detector has a flat field: False 
# 
# Wavelength: 6.888e-11 m
# Mask applied: user provided
# Dark current applied: False
# Flat field applied: False
# Polarization factor: 0.99
# Normalization factor: 1.0
# --> /home/myspot/data/2024_07_Rosario/Ru-CGO-ex/2024-07-27_002_Ru-CGO-ex_Activtation_ramp_000002_data_000121.dat
#       q_nm^-1             I 
  2.003187e-02    7.712225e-02
  3.590745e-02    6.421505e-02
  5.178302e-02    2.671360e-02
  6.765859e-02    5.596884e-02
  8.353417e-02    3.959378e-02
  9.940974e-02    9.662358e-02
  1.152853e-01    6.230468e-02
  1.311609e-01    1.873547e-02
  1.470365e-01    0.000000e+00
  1.629120e-01    0.000000e+00
  1.787876e-01    2.311424e-02
  1.946632e-01    2.957468e-02
  2.105388e-01    7.026820e-03
  2.264143e-01    3.254575e-02
  2.422899e-01    5.598680e-02
  2.581655e-01    6.995298e-02
  2.740411e-01    6.567616e-02
  2.899166e-01    6.067188e-02
  3.057922e-01    4.355547e-02
  3.216678e-01    3.777811e-02
  3.375433e-01    4.141570e-02
  3.534189e-01    1.605240e-02
  3.692945e-01    3.059032e-03
  3.851701e-01    2.759969e-02
  4.010456e-01    4.560182e-02
  4.169212e-01    4.475827e-02
  4.327968e-01    2.517437e-02
  4.486724e-01    2.223915e-02
  4.645479e-01    3.477916e-02
  4.804235e-01    3.609737e-02
  4.962991e-01    9.561014e-03
  5.121747e-01    2.981842e-02
  5.280502e-01    4.482779e-02
  5.439258e-01    3.024465e-02
  5.598014e-01    2.625116e-02
  5.756770e-01    2.710917e-02
  5.915525e-01    1.537572e-02
  6.074281e-01    1.132472e-02
  6.233037e-01    1.900058e-02
  6.391793e-01    4.702981e-02
  6.550548e-01    3.760730e-02
  6.709304e-01    3.347389e-02
  6.868060e-01    9.486304e-03
  7.026815e-01    2.157352e-02
  7.185571e-01    4.706576e-02
  7.344327e-01    1.493671e-02
  7.503083e-01    4.177793e-02
  7.661838e-01    6.364845e-02
  7.820594e-01    6.722750e-02
  7.979350e-01    1.249009e-01
  8.138106e-01    1.936278e-01
  8.296861e-01    2.453295e-01
  8.455617e-01    3.253224e-01
  8.614373e-01    3.600775e-01
  8.773129e-01    3.658220e-01
  8.931884e-01    4.205503e-01
  9.090640e-01    4.701260e-01
  9.249396e-01    5.753644e-01
  9.408152e-01    6.628550e-01
  9.566907e-01    7.515053e-01
  9.725663e-01    8.966110e-01
  9.884419e-01    1.080144e+00
  1.004317e+00    1.154380e+00
  1.020193e+00    1.100796e+00
  1.036069e+00    1.138743e+00
  1.051944e+00    1.137689e+00
  1.067820e+00    1.152378e+00
  1.083695e+00    1.312838e+00
  1.099571e+00    1.309733e+00
  1.115446e+00    1.379061e+00
  1.131322e+00    1.470908e+00
  1.147198e+00    1.442648e+00
  1.163073e+00    1.435307e+00
  1.178949e+00    1.418918e+00
  1.194824e+00    1.554304e+00
  1.210700e+00    1.913957e+00
  1.226575e+00    2.049724e+00
  1.242451e+00    2.135358e+00
  1.258327e+00    2.303412e+00
  1.274202e+00    2.389651e+00
  1.290078e+00    2.399270e+00
  1.305953e+00    2.295126e+00
  1.321829e+00    2.381763e+00
  1.337705e+00    2.453709e+00
  1.353580e+00    2.297046e+00
  1.369456e+00    2.565226e+00
  1.385331e+00    2.528812e+00
  1.401207e+00    2.584468e+00
  1.417082e+00    2.531138e+00
  1.432958e+00    2.677864e+00
  1.448834e+00    2.854157e+00
  1.464709e+00    2.756980e+00
  1.480585e+00    2.778196e+00
  1.496460e+00    2.761113e+00
  1.512336e+00    2.784127e+00
  1.528211e+00    2.875376e+00
  1.544087e+00    2.948694e+00
  1.559963e+00    3.025383e+00
  1.575838e+00    2.965584e+00
  1.591714e+00    2.945465e+00
  1.607589e+00    2.874229e+00
  1.623465e+00    2.772895e+00
  1.639340e+00    2.810635e+00
  1.655216e+00    2.917550e+00
  1.671092e+00    2.815663e+00
  1.686967e+00    2.796504e+00
  1.702843e+00    2.916874e+00
  1.718718e+00    2.795047e+00
  1.734594e+00    2.754138e+00
  1.750469e+00    2.604489e+00
  1.766345e+00    2.602191e+00
  1.782221e+00    2.748333e+00
  1.798096e+00    2.798650e+00
  1.813972e+00    2.799453e+00
  1.829847e+00    2.725781e+00
  1.845723e+00    2.580053e+00
  1.861598e+00    2.636438e+00
  1.877474e+00    2.631929e+00
  1.893350e+00    2.669112e+00
  1.909225e+00    2.631936e+00
  1.925101e+00    2.527230e+00
  1.940976e+00    2.594537e+00
  1.956852e+00    2.809403e+00
  1.972727e+00    2.829683e+00
  1.988603e+00    2.682199e+00
  2.004479e+00    2.647859e+00
  2.020354e+00    2.662219e+00
  2.036230e+00    2.669286e+00
  2.052105e+00    2.682249e+00
  2.067981e+00    2.617073e+00
  2.083856e+00    2.657128e+00
  2.099732e+00    2.606944e+00
  2.115608e+00    2.642940e+00
  2.131483e+00    2.694636e+00
  2.147359e+00    2.729169e+00
  2.163234e+00    2.788097e+00
  2.179110e+00    2.767240e+00
  2.194985e+00    2.653377e+00
  2.210861e+00    2.613943e+00
  2.226737e+00    2.748523e+00
  2.242612e+00    2.711970e+00
  2.258488e+00    2.645211e+00
  2.274363e+00    2.753407e+00
  2.290239e+00    2.759295e+00
  2.306115e+00    2.751577e+00
  2.321990e+00    2.788556e+00
  2.337866e+00    2.690200e+00
  2.353741e+00    2.631395e+00
  2.369617e+00    2.682704e+00
  2.385492e+00    2.743386e+00
  2.401368e+00    2.708098e+00
  2.417244e+00    2.636999e+00
  2.433119e+00    2.708460e+00
  2.448995e+00    2.719708e+00
  2.464870e+00    2.727289e+00
  2.480746e+00    2.722897e+00
  2.496621e+00    2.651330e+00
  2.512497e+00    2.740860e+00
  2.528373e+00    2.705705e+00
  2.544248e+00    2.758922e+00
  2.560124e+00    2.788237e+00
  2.575999e+00    2.778725e+00
  2.591875e+00    2.795060e+00
  2.607750e+00    2.750985e+00
  2.623626e+00    2.761708e+00
  2.639502e+00    2.743809e+00
  2.655377e+00    2.694999e+00
  2.671253e+00    2.723636e+00
  2.687128e+00    2.697508e+00
  2.703004e+00    2.703102e+00
  2.718879e+00    2.774168e+00
  2.734755e+00    2.767960e+00
  2.750631e+00    2.770415e+00
  2.766506e+00    2.780443e+00
  2.782382e+00    2.857406e+00
  2.798257e+00    2.794657e+00
  2.814133e+00    2.766168e+00
  2.830008e+00    2.876286e+00
  2.845884e+00    2.891798e+00
  2.861760e+00    2.803466e+00
  2.877635e+00    2.854046e+00
  2.893511e+00    2.852830e+00
  2.909386e+00    2.850738e+00
  2.925262e+00    2.830477e+00
  2.941137e+00    2.818641e+00
  2.957013e+00    2.708655e+00
  2.972889e+00    2.743382e+00
  2.988764e+00    2.921922e+00
  3.004640e+00    2.830876e+00
  3.020515e+00    2.849541e+00
  3.036391e+00    2.854059e+00
  3.052266e+00    2.934592e+00
  3.068142e+00    2.862813e+00
  3.084018e+00    2.845396e+00
  3.099893e+00    2.865676e+00
  3.115769e+00    2.804327e+00
  3.131644e+00    2.808679e+00
  3.147520e+00    2.793698e+00
  3.163395e+00    2.824636e+00
  3.179271e+00    2.852208e+00
  3.195147e+00    2.903333e+00
  3.211022e+00    2.878430e+00
  3.226898e+00    2.803041e+00
  3.242773e+00    2.877300e+00
  3.258649e+00    2.995673e+00
  3.274525e+00    2.889659e+00
  3.290400e+00    2.912997e+00
  3.306276e+00    2.956666e+00
  3.322151e+00    2.985640e+00
  3.338027e+00    2.943439e+00
  3.353902e+00    2.876679e+00
  3.369778e+00    2.870823e+00
  3.385654e+00    2.855472e+00
  3.401529e+00    2.872145e+00
  3.417405e+00    2.886832e+00
  3.433280e+00    2.940709e+00
  3.449156e+00    2.849851e+00
  3.465031e+00    2.855455e+00
  3.480907e+00    2.901621e+00
  3.496783e+00    2.930396e+00
  3.512658e+00    2.905526e+00
  3.528534e+00    2.872831e+00
  3.544409e+00    2.869545e+00
  3.560285e+00    2.828946e+00
  3.576160e+00    2.958071e+00
  3.592036e+00    2.967854e+00
  3.607912e+00    2.922445e+00
  3.623787e+00    2.934976e+00
  3.639663e+00    2.981145e+00
  3.655538e+00    2.941553e+00
  3.671414e+00    2.899472e+00
  3.687289e+00    2.914078e+00
  3.703165e+00    2.943267e+00
  3.719041e+00    2.977163e+00
  3.734916e+00    2.935281e+00
  3.750792e+00    2.991920e+00
  3.766667e+00    2.985176e+00
  3.782543e+00    2.941791e+00
  3.798418e+00    2.985327e+00
  3.814294e+00    2.968164e+00
  3.830170e+00    2.965439e+00
  3.846045e+00    3.003536e+00
  3.861921e+00    2.999364e+00
  3.877796e+00    3.008248e+00
  3.893672e+00    2.931726e+00
  3.909547e+00    3.014415e+00
  3.925423e+00    3.041320e+00
  3.941299e+00    3.025224e+00
  3.957174e+00    2.996230e+00
  3.973050e+00    2.994343e+00
  3.988925e+00    2.939806e+00
  4.004801e+00    2.946095e+00
  4.020676e+00    2.929599e+00
  4.036552e+00    2.875553e+00
  4.052428e+00    2.927255e+00
  4.068303e+00    2.966970e+00
  4.084179e+00    3.017058e+00
  4.100054e+00    3.046698e+00
  4.115930e+00    2.993200e+00
  4.131806e+00    2.990026e+00
  4.147681e+00    3.021588e+00
  4.163557e+00    3.058446e+00
  4.179432e+00    3.026667e+00
  4.195308e+00    2.954417e+00
  4.211183e+00    2.935913e+00
  4.227059e+00    2.985593e+00
  4.242935e+00    3.008923e+00
  4.258810e+00    2.994068e+00
  4.274686e+00    3.004184e+00
  4.290561e+00    2.975403e+00
  4.306437e+00    3.020951e+00
  4.322312e+00    3.114208e+00
  4.338188e+00    2.961864e+00
  4.354064e+00    2.953728e+00
  4.369939e+00    3.036444e+00
  4.385815e+00    3.037567e+00
  4.401690e+00    3.001902e+00
  4.417566e+00    2.997652e+00
  4.433441e+00    2.958436e+00
  4.449317e+00    2.955652e+00
  4.465193e+00    3.027535e+00
  4.481068e+00    3.050347e+00
  4.496944e+00    3.037726e+00
  4.512819e+00    3.034611e+00
  4.528695e+00    2.979219e+00
  4.544570e+00    3.054501e+00
  4.560446e+00    3.035753e+00
  4.576322e+00    3.092894e+00
  4.592197e+00    3.075775e+00
  4.608073e+00    2.978981e+00
  4.623948e+00    2.981706e+00
  4.639824e+00    3.061873e+00
  4.655699e+00    3.049542e+00
  4.671575e+00    3.004740e+00
  4.687451e+00    3.038047e+00
  4.703326e+00    3.006396e+00
  4.719202e+00    3.055854e+00
  4.735077e+00    3.027261e+00
  4.750953e+00    3.040375e+00
  4.766828e+00    3.073698e+00
  4.782704e+00    3.013226e+00
  4.798580e+00    2.953385e+00
  4.814455e+00    2.969126e+00
  4.830331e+00    3.025168e+00
  4.846206e+00    3.042533e+00
  4.862082e+00    3.149459e+00
  4.877957e+00    3.094427e+00
  4.893833e+00    3.106445e+00
  4.909709e+00    3.152542e+00
  4.925584e+00    3.072697e+00
  4.941460e+00    3.083843e+00
  4.957335e+00    3.080843e+00
  4.973211e+00    3.071240e+00
  4.989086e+00    3.041361e+00
  5.004962e+00    3.092393e+00
  5.020838e+00    3.115208e+00
  5.036713e+00    2.975541e+00
  5.052589e+00    3.003198e+00
  5.068464e+00    3.107273e+00
  5.084340e+00    3.098402e+00
  5.100216e+00    3.096802e+00
  5.116091e+00    3.069521e+00
  5.131967e+00    3.040595e+00
  5.147842e+00    3.099698e+00
  5.163718e+00    3.072191e+00
  5.179593e+00    3.029659e+00
  5.195469e+00    3.094520e+00
  5.211345e+00    3.117229e+00
  5.227220e+00    3.057038e+00
  5.243096e+00    3.029493e+00
  5.258971e+00    2.983639e+00
  5.274847e+00    3.004692e+00
  5.290722e+00    3.053945e+00
  5.306598e+00    3.079823e+00
  5.322474e+00    3.052660e+00
  5.338349e+00    3.108590e+00
  5.354225e+00    3.089525e+00
  5.370100e+00    3.081786e+00
  5.385976e+00    3.034024e+00
  5.401851e+00    3.114444e+00
  5.417727e+00    3.094487e+00
  5.433603e+00    3.108508e+00
  5.449478e+00    3.098915e+00
  5.465354e+00    3.125974e+00
  5.481229e+00    3.038522e+00
  5.497105e+00    3.035224e+00
  5.512980e+00    2.961470e+00
  5.528856e+00    2.954684e+00
  5.544732e+00    2.988540e+00
  5.560607e+00    2.990657e+00
  5.576483e+00    2.973369e+00
  5.592358e+00    3.033843e+00
  5.608234e+00    3.032873e+00
  5.624109e+00    3.067813e+00
  5.639985e+00    3.026817e+00
  5.655861e+00    3.034707e+00
  5.671736e+00    2.956783e+00
  5.687612e+00    2.955210e+00
  5.703487e+00    2.956247e+00
  5.719363e+00    2.994652e+00
  5.735238e+00    3.097809e+00
  5.751114e+00    2.978681e+00
  5.766990e+00    3.044252e+00
  5.782865e+00    3.010693e+00
  5.798741e+00    2.971403e+00
  5.814616e+00    3.026733e+00
  5.830492e+00    3.045001e+00
  5.846367e+00    3.040802e+00
  5.862243e+00    3.034988e+00
  5.878119e+00    3.013659e+00
  5.893994e+00    2.935072e+00
  5.909870e+00    2.930828e+00
  5.925745e+00    2.994769e+00
  5.941621e+00    3.049762e+00
  5.957497e+00    2.938128e+00
  5.973372e+00    2.954359e+00
  5.989248e+00    3.059195e+00
  6.005123e+00    3.013346e+00
  6.020999e+00    2.935035e+00
  6.036874e+00    2.968531e+00
  6.052750e+00    2.976925e+00
  6.068626e+00    3.051852e+00
  6.084501e+00    3.058245e+00
  6.100377e+00    3.093779e+00
  6.116252e+00    3.001579e+00
  6.132128e+00    3.082612e+00
  6.148003e+00    3.070166e+00
  6.163879e+00    2.978132e+00
  6.179755e+00    3.047868e+00
  6.195630e+00    2.991582e+00
  6.211506e+00    2.956072e+00
  6.227381e+00    2.902973e+00
  6.243257e+00    2.949180e+00
  6.259132e+00    2.964403e+00
  6.275008e+00    3.051079e+00
  6.290884e+00    3.050831e+00
  6.306759e+00    2.968952e+00
  6.322635e+00    2.925067e+00
  6.338510e+00    2.974382e+00
  6.354386e+00    2.938775e+00
  6.370261e+00    2.973187e+00
  6.386137e+00    3.030416e+00
  6.402013e+00    3.020098e+00
  6.417888e+00    3.027493e+00
  6.433764e+00    3.054273e+00
  6.449639e+00    3.071352e+00
  6.465515e+00    2.988522e+00
  6.481390e+00    2.953606e+00
  6.497266e+00    2.978587e+00
  6.513142e+00    2.975621e+00
  6.529017e+00    2.929689e+00
  6.544893e+00    3.005411e+00
  6.560768e+00    3.018137e+00
  6.576644e+00    2.973931e+00
  6.592519e+00    3.011123e+00
  6.608395e+00    3.031591e+00
  6.624271e+00    3.012504e+00
  6.640146e+00    2.948901e+00
  6.656022e+00    2.952432e+00
  6.671897e+00    2.988542e+00
  6.687773e+00    3.047411e+00
  6.703648e+00    2.954238e+00
  6.719524e+00    2.913903e+00
  6.735400e+00    3.000912e+00
  6.751275e+00    2.991208e+00
  6.767151e+00    3.025913e+00
  6.783026e+00    3.026118e+00
  6.798902e+00    2.929925e+00
  6.814777e+00    3.008079e+00
  6.830653e+00    3.010085e+00
  6.846529e+00    2.951275e+00
  6.862404e+00    2.946326e+00
  6.878280e+00    2.921749e+00
  6.894155e+00    2.920935e+00
  6.910031e+00    2.929893e+00
  6.925907e+00    2.946843e+00
  6.941782e+00    2.937224e+00
  6.957658e+00    2.970353e+00
  6.973533e+00    3.015173e+00
  6.989409e+00    3.020541e+00
  7.005284e+00    2.991029e+00
  7.021160e+00    3.008695e+00
  7.037036e+00    3.049154e+00
  7.052911e+00    2.993413e+00
  7.068787e+00    2.958083e+00
  7.084662e+00    3.002452e+00
  7.100538e+00    3.024615e+00
  7.116413e+00    2.942091e+00
  7.132289e+00    2.969990e+00
  7.148165e+00    3.006955e+00
  7.164040e+00    2.892713e+00
  7.179916e+00    2.923762e+00
  7.195791e+00    3.007013e+00
  7.211667e+00    2.988463e+00
  7.227542e+00    2.990657e+00
  7.243418e+00    2.981850e+00
  7.259294e+00    2.931462e+00
  7.275169e+00    2.940706e+00
  7.291045e+00    2.944494e+00
  7.306920e+00    2.989727e+00
  7.322796e+00    2.964855e+00
  7.338671e+00    2.952395e+00
  7.354547e+00    2.918982e+00
  7.370423e+00    2.937766e+00
  7.386298e+00    2.955132e+00
  7.402174e+00    2.957669e+00
  7.418049e+00    2.955683e+00
  7.433925e+00    2.953754e+00
  7.449800e+00    2.928522e+00
  7.465676e+00    2.879310e+00
  7.481552e+00    2.891718e+00
  7.497427e+00    2.895688e+00
  7.513303e+00    2.869762e+00
  7.529178e+00    2.891723e+00
  7.545054e+00    2.928015e+00
  7.560929e+00    2.904679e+00
  7.576805e+00    2.940285e+00
  7.592681e+00    2.915644e+00
  7.608556e+00    2.882941e+00
  7.624432e+00    2.942805e+00
  7.640307e+00    2.863598e+00
  7.656183e+00    2.835524e+00
  7.672058e+00    2.843225e+00
  7.687934e+00    2.919038e+00
  7.703810e+00    2.892613e+00
  7.719685e+00    2.935153e+00
  7.735561e+00    2.885942e+00
  7.751436e+00    2.927535e+00
  7.767312e+00    2.890136e+00
  7.783187e+00    2.875720e+00
  7.799063e+00    2.895938e+00
  7.814939e+00    2.868562e+00
  7.830814e+00    2.878445e+00
  7.846690e+00    2.931795e+00
  7.862565e+00    2.892469e+00
  7.878441e+00    2.844424e+00
  7.894317e+00    2.852041e+00
  7.910192e+00    2.866442e+00
  7.926068e+00    2.906053e+00
  7.941943e+00    2.873729e+00
  7.957819e+00    2.902019e+00
  7.973694e+00    2.919553e+00
  7.989570e+00    2.903652e+00
  8.005446e+00    2.867178e+00
  8.021321e+00    2.888134e+00
  8.037197e+00    2.892452e+00
  8.053072e+00    2.873574e+00
  8.068948e+00    2.836361e+00
  8.084823e+00    2.880679e+00
  8.100699e+00    2.940936e+00
  8.116575e+00    2.950192e+00
  8.132450e+00    2.904627e+00
  8.148326e+00    2.910864e+00
  8.164201e+00    2.914379e+00
  8.180077e+00    2.916328e+00
  8.195952e+00    2.849036e+00
  8.211828e+00    2.924452e+00
  8.227704e+00    2.925894e+00
  8.243579e+00    2.866341e+00
  8.259455e+00    2.872945e+00
  8.275330e+00    2.902271e+00
  8.291206e+00    2.821655e+00
  8.307081e+00    2.810783e+00
  8.322957e+00    2.842564e+00
  8.338833e+00    2.855363e+00
  8.354708e+00    2.836667e+00
  8.370584e+00    2.877599e+00
  8.386459e+00    2.926740e+00
  8.402335e+00    2.867124e+00
  8.418210e+00    2.832702e+00
  8.434086e+00    2.850305e+00
  8.449962e+00    2.826627e+00
  8.465837e+00    2.839272e+00
  8.481713e+00    2.829031e+00
  8.497588e+00    2.806386e+00
  8.513464e+00    2.922993e+00
  8.529339e+00    2.856750e+00
  8.545215e+00    2.791676e+00
  8.561091e+00    2.812747e+00
  8.576966e+00    2.842806e+00
  8.592842e+00    2.859663e+00
  8.608717e+00    2.855896e+00
  8.624593e+00    2.816781e+00
  8.640468e+00    2.828501e+00
  8.656344e+00    2.809096e+00
  8.672220e+00    2.813287e+00
  8.688095e+00    2.743848e+00
  8.703971e+00    2.790291e+00
  8.719846e+00    2.819561e+00
  8.735722e+00    2.870725e+00
  8.751598e+00    2.834471e+00
  8.767473e+00    2.822219e+00
  8.783349e+00    2.820224e+00
  8.799224e+00    2.775306e+00
  8.815100e+00    2.816927e+00
  8.830975e+00    2.788659e+00
  8.846851e+00    2.757144e+00
  8.862727e+00    2.788492e+00
  8.878602e+00    2.780684e+00
  8.894478e+00    2.767687e+00
  8.910353e+00    2.777430e+00
  8.926229e+00    2.772090e+00
  8.942104e+00    2.755032e+00
  8.957980e+00    2.773112e+00
  8.973856e+00    2.778375e+00
  8.989731e+00    2.811789e+00
  9.005607e+00    2.788655e+00
  9.021482e+00    2.836205e+00
  9.037358e+00    2.797451e+00
  9.053233e+00    2.751693e+00
  9.069109e+00    2.800154e+00
  9.084985e+00    2.835402e+00
  9.100860e+00    2.790123e+00
  9.116736e+00    2.774596e+00
  9.132611e+00    2.769266e+00
  9.148487e+00    2.731108e+00
  9.164362e+00    2.726364e+00
  9.180238e+00    2.762986e+00
  9.196114e+00    2.759917e+00
  9.211989e+00    2.698949e+00
  9.227865e+00    2.701539e+00
  9.243740e+00    2.762473e+00
  9.259616e+00    2.756688e+00
  9.275491e+00    2.762078e+00
  9.291367e+00    2.686874e+00
  9.307243e+00    2.710128e+00
  9.323118e+00    2.760985e+00
  9.338994e+00    2.747420e+00
  9.354869e+00    2.710102e+00
  9.370745e+00    2.708936e+00
  9.386620e+00    2.709992e+00
  9.402496e+00    2.767119e+00
  9.418372e+00    2.732283e+00
  9.434247e+00    2.743725e+00
  9.450123e+00    2.783050e+00
  9.465998e+00    2.759477e+00
  9.481874e+00    2.717287e+00
  9.497749e+00    2.709220e+00
  9.513625e+00    2.738271e+00
  9.529501e+00    2.662375e+00
  9.545376e+00    2.691970e+00
  9.561252e+00    2.728225e+00
  9.577127e+00    2.717331e+00
  9.593003e+00    2.662724e+00
  9.608878e+00    2.661292e+00
  9.624754e+00    2.697649e+00
  9.640630e+00    2.727276e+00
  9.656505e+00    2.714075e+00
  9.672381e+00    2.711392e+00
  9.688256e+00    2.699013e+00
  9.704132e+00    2.670503e+00
  9.720008e+00    2.748924e+00
  9.735883e+00    2.688339e+00
  9.751759e+00    2.669564e+00
  9.767634e+00    2.664430e+00
  9.783510e+00    2.673844e+00
  9.799385e+00    2.670666e+00
  9.815261e+00    2.710201e+00
  9.831137e+00    2.695308e+00
  9.847012e+00    2.694040e+00
  9.862888e+00    2.643387e+00
  9.878763e+00    2.622897e+00
  9.894639e+00    2.679859e+00
  9.910514e+00    2.679959e+00
  9.926390e+00    2.671262e+00
  9.942266e+00    2.637615e+00
  9.958141e+00    2.646845e+00
  9.974017e+00    2.614633e+00
  9.989892e+00    2.637985e+00
  1.000577e+01    2.634558e+00
  1.002164e+01    2.606293e+00
  1.003752e+01    2.578744e+00
  1.005339e+01    2.530360e+00
  1.006927e+01    2.639514e+00
  1.008515e+01    2.631825e+00
  1.010102e+01    2.547184e+00
  1.011690e+01    2.559071e+00
  1.013277e+01    2.555189e+00
  1.014865e+01    2.618105e+00
  1.016452e+01    2.631751e+00
  1.018040e+01    2.619911e+00
  1.019627e+01    2.600975e+00
  1.021215e+01    2.562531e+00
  1.022803e+01    2.527719e+00
  1.024390e+01    2.543357e+00
  1.025978e+01    2.555432e+00
  1.027565e+01    2.564921e+00
  1.029153e+01    2.635341e+00
  1.030740e+01    2.572273e+00
  1.032328e+01    2.541431e+00
  1.033915e+01    2.565084e+00
  1.035503e+01    2.629076e+00
  1.037091e+01    2.580695e+00
  1.038678e+01    2.587144e+00
  1.040266e+01    2.579325e+00
  1.041853e+01    2.567930e+00
  1.043441e+01    2.600344e+00
  1.045028e+01    2.554381e+00
  1.046616e+01    2.560340e+00
  1.048204e+01    2.541198e+00
  1.049791e+01    2.560104e+00
  1.051379e+01    2.531900e+00
  1.052966e+01    2.545697e+00
  1.054554e+01    2.534686e+00
  1.056141e+01    2.565547e+00
  1.057729e+01    2.523043e+00
  1.059316e+01    2.522799e+00
  1.060904e+01    2.516537e+00
  1.062492e+01    2.530406e+00
  1.064079e+01    2.512250e+00
  1.065667e+01    2.493417e+00
  1.067254e+01    2.483941e+00
  1.068842e+01    2.502410e+00
  1.070429e+01    2.500553e+00
  1.072017e+01    2.530817e+00
  1.073604e+01    2.553185e+00
  1.075192e+01    2.527239e+00
  1.076780e+01    2.518999e+00
  1.078367e+01    2.552184e+00
  1.079955e+01    2.536096e+00
  1.081542e+01    2.493603e+00
  1.083130e+01    2.491721e+00
  1.084717e+01    2.486670e+00
  1.086305e+01    2.443799e+00
  1.087892e+01    2.467033e+00
  1.089480e+01    2.499664e+00
  1.091068e+01    2.464115e+00
  1.092655e+01    2.450238e+00
  1.094243e+01    2.431882e+00
  1.095830e+01    2.418475e+00
  1.097418e+01    2.430747e+00
  1.099005e+01    2.423709e+00
  1.100593e+01    2.427067e+00
  1.102180e+01    2.471787e+00
  1.103768e+01    2.471648e+00
  1.105356e+01    2.443250e+00
  1.106943e+01    2.438680e+00
  1.108531e+01    2.425431e+00
  1.110118e+01    2.442031e+00
  1.111706e+01    2.420491e+00
  1.113293e+01    2.439256e+00
  1.114881e+01    2.414036e+00
  1.116468e+01    2.404785e+00
  1.118056e+01    2.444224e+00
  1.119644e+01    2.427891e+00
  1.121231e+01    2.378551e+00
  1.122819e+01    2.398867e+00
  1.124406e+01    2.470010e+00
  1.125994e+01    2.415469e+00
  1.127581e+01    2.379670e+00
  1.129169e+01    2.376942e+00
  1.130756e+01    2.365757e+00
  1.132344e+01    2.414025e+00
  1.133932e+01    2.464037e+00
  1.135519e+01    2.421232e+00
  1.137107e+01    2.432770e+00
  1.138694e+01    2.427768e+00
  1.140282e+01    2.379580e+00
  1.141869e+01    2.367932e+00
  1.143457e+01    2.354580e+00
  1.145045e+01    2.357514e+00
  1.146632e+01    2.373103e+00
  1.148220e+01    2.401098e+00
  1.149807e+01    2.369607e+00
  1.151395e+01    2.386287e+00
  1.152982e+01    2.382143e+00
  1.154570e+01    2.373878e+00
  1.156157e+01    2.369436e+00
  1.157745e+01    2.355184e+00
  1.159333e+01    2.336530e+00
  1.160920e+01    2.300582e+00
  1.162508e+01    2.335550e+00
  1.164095e+01    2.368228e+00
  1.165683e+01    2.315124e+00
  1.167270e+01    2.271379e+00
  1.168858e+01    2.311308e+00
  1.170445e+01    2.309845e+00
  1.172033e+01    2.299044e+00
  1.173621e+01    2.332011e+00
  1.175208e+01    2.386543e+00
  1.176796e+01    2.306068e+00
  1.178383e+01    2.299747e+00
  1.179971e+01    2.296488e+00
  1.181558e+01    2.303570e+00
  1.183146e+01    2.300110e+00
  1.184733e+01    2.296391e+00
  1.186321e+01    2.282254e+00
  1.187909e+01    2.303550e+00
  1.189496e+01    2.282845e+00
  1.191084e+01    2.291960e+00
  1.192671e+01    2.315912e+00
  1.194259e+01    2.298117e+00
  1.195846e+01    2.290706e+00
  1.197434e+01    2.285289e+00
  1.199021e+01    2.279053e+00
  1.200609e+01    2.292737e+00
  1.202197e+01    2.273987e+00
  1.203784e+01    2.227788e+00
  1.205372e+01    2.296014e+00
  1.206959e+01    2.287909e+00
  1.208547e+01    2.237518e+00
  1.210134e+01    2.279558e+00
  1.211722e+01    2.314798e+00
  1.213309e+01    2.264180e+00
  1.214897e+01    2.305081e+00
  1.216485e+01    2.297498e+00
  1.218072e+01    2.316132e+00
  1.219660e+01    2.306222e+00
  1.221247e+01    2.295088e+00
  1.222835e+01    2.308352e+00
  1.224422e+01    2.241018e+00
  1.226010e+01    2.240766e+00
  1.227597e+01    2.325973e+00
  1.229185e+01    2.288474e+00
  1.230773e+01    2.273344e+00
  1.232360e+01    2.274247e+00
  1.233948e+01    2.261699e+00
  1.235535e+01    2.311670e+00
  1.237123e+01    2.304273e+00
  1.238710e+01    2.287735e+00
  1.240298e+01    2.285945e+00
  1.241886e+01    2.297404e+00
  1.243473e+01    2.304644e+00
  1.245061e+01    2.304883e+00
  1.246648e+01    2.299968e+00
  1.248236e+01    2.325615e+00
  1.249823e+01    2.297133e+00
  1.251411e+01    2.309695e+00
  1.252998e+01    2.330762e+00
  1.254586e+01    2.370196e+00
  1.256174e+01    2.358548e+00
  1.257761e+01    2.328228e+00
  1.259349e+01    2.324182e+00
  1.260936e+01    2.316697e+00
  1.262524e+01    2.346811e+00
  1.264111e+01    2.362296e+00
  1.265699e+01    2.393317e+00
  1.267286e+01    2.411457e+00
  1.268874e+01    2.421011e+00
  1.270462e+01    2.432802e+00
  1.272049e+01    2.442860e+00
  1.273637e+01    2.472744e+00
  1.275224e+01    2.489918e+00
  1.276812e+01    2.536084e+00
  1.278399e+01    2.625573e+00
  1.279987e+01    2.648116e+00
  1.281574e+01    2.646073e+00
  1.283162e+01    2.695577e+00
  1.284750e+01    2.782025e+00
  1.286337e+01    2.885557e+00
  1.287925e+01    3.032083e+00
  1.289512e+01    3.084858e+00
  1.291100e+01    3.251357e+00
  1.292687e+01    3.410086e+00
  1.294275e+01    3.583010e+00
  1.295862e+01    3.979310e+00
  1.297450e+01    4.373712e+00
  1.299038e+01    4.783676e+00
  1.300625e+01    5.323058e+00
  1.302213e+01    6.024441e+00
  1.303800e+01    6.981493e+00
  1.305388e+01    8.178262e+00
  1.306975e+01    9.385113e+00
  1.308563e+01    1.067791e+01
  1.310150e+01    1.206515e+01
  1.311738e+01    1.333223e+01
  1.313326e+01    1.447615e+01
  1.314913e+01    1.553973e+01
  1.316501e+01    1.654507e+01
  1.318088e+01    1.723808e+01
  1.319676e+01    1.708910e+01
  1.321263e+01    1.600523e+01
  1.322851e+01    1.425041e+01
  1.324438e+01    1.213835e+01
  1.326026e+01    1.020143e+01
  1.327614e+01    8.578579e+00
  1.329201e+01    7.341039e+00
  1.330789e+01    6.348566e+00
  1.332376e+01    5.569577e+00
  1.333964e+01    4.867646e+00
  1.335551e+01    4.421078e+00
  1.337139e+01    4.029523e+00
  1.338727e+01    3.726655e+00
  1.340314e+01    3.530081e+00
  1.341902e+01    3.322880e+00
  1.343489e+01    3.130653e+00
  1.345077e+01    2.973034e+00
  1.346664e+01    2.863070e+00
  1.348252e+01    2.792335e+00
  1.349839e+01    2.653441e+00
  1.351427e+01    2.655530e+00
  1.353015e+01    2.564657e+00
  1.354602e+01    2.499746e+00
  1.356190e+01    2.453408e+00
  1.357777e+01    2.370693e+00
  1.359365e+01    2.363552e+00
  1.360952e+01    2.339032e+00
  1.362540e+01    2.322540e+00
  1.364127e+01    2.289349e+00
  1.365715e+01    2.286332e+00
  1.367303e+01    2.248233e+00
  1.368890e+01    2.212132e+00
  1.370478e+01    2.229911e+00
  1.372065e+01    2.193211e+00
  1.373653e+01    2.178862e+00
  1.375240e+01    2.154820e+00
  1.376828e+01    2.143475e+00
  1.378415e+01    2.118519e+00
  1.380003e+01    2.154517e+00
  1.381591e+01    2.121907e+00
  1.383178e+01    2.084945e+00
  1.384766e+01    2.071501e+00
  1.386353e+01    2.090015e+00
  1.387941e+01    2.081010e+00
  1.389528e+01    2.086616e+00
  1.391116e+01    2.080182e+00
  1.392703e+01    2.015702e+00
  1.394291e+01    2.033109e+00
  1.395879e+01    2.029555e+00
  1.397466e+01    2.004539e+00
  1.399054e+01    2.009240e+00
  1.400641e+01    2.019344e+00
  1.402229e+01    2.037304e+00
  1.403816e+01    2.001199e+00
  1.405404e+01    1.981011e+00
  1.406991e+01    1.989985e+00
  1.408579e+01    2.003942e+00
  1.410167e+01    1.974782e+00
  1.411754e+01    1.977484e+00
  1.413342e+01    1.965551e+00
  1.414929e+01    1.965503e+00
  1.416517e+01    1.995832e+00
  1.418104e+01    2.028661e+00
  1.419692e+01    1.986142e+00
  1.421279e+01    1.958261e+00
  1.422867e+01    1.926560e+00
  1.424455e+01    1.926009e+00
  1.426042e+01    1.955351e+00
  1.427630e+01    1.943462e+00
  1.429217e+01    1.956996e+00
  1.430805e+01    1.992151e+00
  1.432392e+01    1.954706e+00
  1.433980e+01    1.946940e+00
  1.435568e+01    1.937879e+00
  1.437155e+01    1.913712e+00
  1.438743e+01    1.908451e+00
  1.440330e+01    1.887036e+00
  1.441918e+01    1.906190e+00
  1.443505e+01    1.927887e+00
  1.445093e+01    1.927246e+00
  1.446680e+01    1.890886e+00
  1.448268e+01    1.919934e+00
  1.449856e+01    1.890028e+00
  1.451443e+01    1.918966e+00
  1.453031e+01    1.878634e+00
  1.454618e+01    1.850840e+00
  1.456206e+01    1.867657e+00
  1.457793e+01    1.871343e+00
  1.459381e+01    1.874956e+00
  1.460968e+01    1.884963e+00
  1.462556e+01    1.861414e+00
  1.464144e+01    1.847377e+00
  1.465731e+01    1.830264e+00
  1.467319e+01    1.861607e+00
  1.468906e+01    1.901061e+00
  1.470494e+01    1.923345e+00
  1.472081e+01    1.878277e+00
  1.473669e+01    1.889163e+00
  1.475256e+01    1.901819e+00
  1.476844e+01    1.886341e+00
  1.478432e+01    1.852457e+00
  1.480019e+01    1.878198e+00
  1.481607e+01    1.898992e+00
  1.483194e+01    1.928922e+00
  1.484782e+01    1.925795e+00
  1.486369e+01    1.912024e+00
  1.487957e+01    1.910914e+00
  1.489544e+01    1.908745e+00
  1.491132e+01    1.960310e+00
  1.492720e+01    1.971146e+00
  1.494307e+01    2.010490e+00
  1.495895e+01    2.006021e+00
  1.497482e+01    2.037380e+00
  1.499070e+01    2.077004e+00
  1.500657e+01    2.121950e+00
  1.502245e+01    2.188634e+00
  1.503832e+01    2.309577e+00
  1.505420e+01    2.309363e+00
  1.507008e+01    2.424607e+00
  1.508595e+01    2.567490e+00
  1.510183e+01    2.795731e+00
  1.511770e+01    3.048201e+00
  1.513358e+01    3.355290e+00
  1.514945e+01    3.741566e+00
  1.516533e+01    4.097269e+00
  1.518120e+01    4.462690e+00
  1.519708e+01    4.783085e+00
  1.521296e+01    5.129146e+00
  1.522883e+01    5.452852e+00
  1.524471e+01    5.670287e+00
  1.526058e+01    5.826833e+00
  1.527646e+01    5.872619e+00
  1.529233e+01    5.767679e+00
  1.530821e+01    5.470891e+00
  1.532409e+01    5.004025e+00
  1.533996e+01    4.453846e+00
  1.535584e+01    3.875157e+00
  1.537171e+01    3.421411e+00
  1.538759e+01    3.130989e+00
  1.540346e+01    2.857546e+00
  1.541934e+01    2.640866e+00
  1.543521e+01    2.471574e+00
  1.545109e+01    2.344428e+00
  1.546697e+01    2.234281e+00
  1.548284e+01    2.147289e+00
  1.549872e+01    2.075058e+00
  1.551459e+01    2.021448e+00
  1.553047e+01    1.961776e+00
  1.554634e+01    1.936130e+00
  1.556222e+01    1.871166e+00
  1.557809e+01    1.857731e+00
  1.559397e+01    1.841093e+00
  1.560985e+01    1.775994e+00
  1.562572e+01    1.744501e+00
  1.564160e+01    1.768192e+00
  1.565747e+01    1.764768e+00
  1.567335e+01    1.767812e+00
  1.568922e+01    1.718951e+00
  1.570510e+01    1.698314e+00
  1.572097e+01    1.703773e+00
  1.573685e+01    1.712085e+00
  1.575273e+01    1.704132e+00
  1.576860e+01    1.675760e+00
  1.578448e+01    1.662459e+00
  1.580035e+01    1.679133e+00
  1.581623e+01    1.679899e+00
  1.583210e+01    1.654241e+00
  1.584798e+01    1.678253e+00
  1.586385e+01    1.665155e+00
  1.587973e+01    1.600423e+00
  1.589561e+01    1.585933e+00
  1.591148e+01    1.622873e+00
  1.592736e+01    1.606487e+00
  1.594323e+01    1.606385e+00
  1.595911e+01    1.626752e+00
  1.597498e+01    1.592921e+00
  1.599086e+01    1.594741e+00
  1.600673e+01    1.603249e+00
  1.602261e+01    1.603623e+00
  1.603849e+01    1.590267e+00
  1.605436e+01    1.572937e+00
  1.607024e+01    1.569228e+00
  1.608611e+01    1.569204e+00
  1.610199e+01    1.574723e+00
  1.611786e+01    1.565220e+00
  1.613374e+01    1.580200e+00
  1.614961e+01    1.562056e+00
  1.616549e+01    1.541358e+00
  1.618137e+01    1.527046e+00
  1.619724e+01    1.511327e+00
  1.621312e+01    1.548497e+00
  1.622899e+01    1.541211e+00
  1.624487e+01    1.541179e+00
  1.626074e+01    1.541376e+00
  1.627662e+01    1.486988e+00
  1.629250e+01    1.480388e+00
  1.630837e+01    1.507316e+00
  1.632425e+01    1.527392e+00
  1.634012e+01    1.484276e+00
  1.635600e+01    1.482713e+00
  1.637187e+01    1.519271e+00
  1.638775e+01    1.523594e+00
  1.640362e+01    1.505926e+00
  1.641950e+01    1.504610e+00
  1.643538e+01    1.527477e+00
  1.645125e+01    1.508142e+00
  1.646713e+01    1.499950e+00
  1.648300e+01    1.513563e+00
  1.649888e+01    1.503675e+00
  1.651475e+01    1.499268e+00
  1.653063e+01    1.479716e+00
  1.654650e+01    1.478385e+00
  1.656238e+01    1.484143e+00
  1.657826e+01    1.480946e+00
  1.659413e+01    1.476795e+00
  1.661001e+01    1.461446e+00
  1.662588e+01    1.452258e+00
  1.664176e+01    1.507459e+00
  1.665763e+01    1.504108e+00
  1.667351e+01    1.477179e+00
  1.668938e+01    1.510851e+00
  1.670526e+01    1.460560e+00
  1.672114e+01    1.416575e+00
  1.673701e+01    1.429892e+00
  1.675289e+01    1.420843e+00
  1.676876e+01    1.424379e+00
  1.678464e+01    1.410709e+00
  1.680051e+01    1.412835e+00
  1.681639e+01    1.439348e+00
  1.683226e+01    1.451539e+00
  1.684814e+01    1.445786e+00
  1.686402e+01    1.427826e+00
  1.687989e+01    1.413851e+00
  1.689577e+01    1.421316e+00
  1.691164e+01    1.466159e+00
  1.692752e+01    1.433543e+00
  1.694339e+01    1.420394e+00
  1.695927e+01    1.405531e+00
  1.697514e+01    1.422158e+00
  1.699102e+01    1.419078e+00
  1.700690e+01    1.431769e+00
  1.702277e+01    1.402701e+00
  1.703865e+01    1.424299e+00
  1.705452e+01    1.396330e+00
  1.707040e+01    1.366794e+00
  1.708627e+01    1.381457e+00
  1.710215e+01    1.386624e+00
  1.711802e+01    1.406612e+00
  1.713390e+01    1.414643e+00
  1.714978e+01    1.428957e+00
  1.716565e+01    1.415378e+00
  1.718153e+01    1.386519e+00
  1.719740e+01    1.392569e+00
  1.721328e+01    1.392657e+00
  1.722915e+01    1.376969e+00
  1.724503e+01    1.371019e+00
  1.726091e+01    1.346985e+00
  1.727678e+01    1.391977e+00
  1.729266e+01    1.394234e+00
  1.730853e+01    1.381959e+00
  1.732441e+01    1.366709e+00
  1.734028e+01    1.388179e+00
  1.735616e+01    1.365596e+00
  1.737203e+01    1.341899e+00
  1.738791e+01    1.337314e+00
  1.740379e+01    1.354912e+00
  1.741966e+01    1.380135e+00
  1.743554e+01    1.349119e+00
  1.745141e+01    1.340219e+00
  1.746729e+01    1.353951e+00
  1.748316e+01    1.347557e+00
  1.749904e+01    1.365612e+00
  1.751491e+01    1.363697e+00
  1.753079e+01    1.347516e+00
  1.754667e+01    1.310949e+00
  1.756254e+01    1.323230e+00
  1.757842e+01    1.335154e+00
  1.759429e+01    1.325745e+00
  1.761017e+01    1.326034e+00
  1.762604e+01    1.342799e+00
  1.764192e+01    1.332219e+00
  1.765779e+01    1.328931e+00
  1.767367e+01    1.336508e+00
  1.768955e+01    1.292290e+00
  1.770542e+01    1.303506e+00
  1.772130e+01    1.336750e+00
  1.773717e+01    1.318926e+00
  1.775305e+01    1.333126e+00
  1.776892e+01    1.292028e+00
  1.778480e+01    1.293868e+00
  1.780067e+01    1.327000e+00
  1.781655e+01    1.293777e+00
  1.783243e+01    1.310964e+00
  1.784830e+01    1.309164e+00
  1.786418e+01    1.288807e+00
  1.788005e+01    1.305549e+00
  1.789593e+01    1.328986e+00
  1.791180e+01    1.282956e+00
  1.792768e+01    1.281915e+00
  1.794355e+01    1.286496e+00
  1.795943e+01    1.289339e+00
  1.797531e+01    1.289026e+00
  1.799118e+01    1.303124e+00
  1.800706e+01    1.290224e+00
  1.802293e+01    1.286275e+00
  1.803881e+01    1.268920e+00
  1.805468e+01    1.269460e+00
  1.807056e+01    1.257538e+00
  1.808643e+01    1.290633e+00
  1.810231e+01    1.276849e+00
  1.811819e+01    1.241478e+00
  1.813406e+01    1.245319e+00
  1.814994e+01    1.262468e+00
  1.816581e+01    1.266529e+00
  1.818169e+01    1.283265e+00
  1.819756e+01    1.260327e+00
  1.821344e+01    1.256219e+00
  1.822932e+01    1.258542e+00
  1.824519e+01    1.258142e+00
  1.826107e+01    1.273359e+00
  1.827694e+01    1.269618e+00
  1.829282e+01    1.252073e+00
  1.830869e+01    1.252073e+00
  1.832457e+01    1.264891e+00
  1.834044e+01    1.258482e+00
  1.835632e+01    1.241878e+00
  1.837220e+01    1.256142e+00
  1.838807e+01    1.237346e+00
  1.840395e+01    1.240807e+00
  1.841982e+01    1.237452e+00
  1.843570e+01    1.232468e+00
  1.845157e+01    1.223507e+00
  1.846745e+01    1.203439e+00
  1.848332e+01    1.227233e+00
  1.849920e+01    1.247494e+00
  1.851508e+01    1.258433e+00
  1.853095e+01    1.242765e+00
  1.854683e+01    1.214664e+00
  1.856270e+01    1.234398e+00
  1.857858e+01    1.210952e+00
  1.859445e+01    1.201644e+00
  1.861033e+01    1.216191e+00
  1.862620e+01    1.217189e+00
  1.864208e+01    1.215342e+00
  1.865796e+01    1.232751e+00
  1.867383e+01    1.236684e+00
  1.868971e+01    1.215394e+00
  1.870558e+01    1.216180e+00
  1.872146e+01    1.189539e+00
  1.873733e+01    1.231197e+00
  1.875321e+01    1.205063e+00
  1.876908e+01    1.191052e+00
  1.878496e+01    1.189511e+00
  1.880084e+01    1.188265e+00
  1.881671e+01    1.195053e+00
  1.883259e+01    1.166623e+00
  1.884846e+01    1.161834e+00
  1.886434e+01    1.181627e+00
  1.888021e+01    1.190875e+00
  1.889609e+01    1.174159e+00
  1.891196e+01    1.218041e+00
  1.892784e+01    1.230102e+00
  1.894372e+01    1.216671e+00
  1.895959e+01    1.185481e+00
  1.897547e+01    1.209406e+00
  1.899134e+01    1.211298e+00
  1.900722e+01    1.182423e+00
  1.902309e+01    1.157293e+00
  1.903897e+01    1.151130e+00
  1.905484e+01    1.185223e+00
  1.907072e+01    1.197029e+00
  1.908660e+01    1.176599e+00
  1.910247e+01    1.183564e+00
  1.911835e+01    1.162482e+00
  1.913422e+01    1.174761e+00
  1.915010e+01    1.178246e+00
  1.916597e+01    1.170820e+00
  1.918185e+01    1.172796e+00
  1.919773e+01    1.177492e+00
  1.921360e+01    1.158542e+00
  1.922948e+01    1.152259e+00
  1.924535e+01    1.146443e+00
  1.926123e+01    1.172873e+00
  1.927710e+01    1.164127e+00
  1.929298e+01    1.163826e+00
  1.930885e+01    1.160649e+00
  1.932473e+01    1.164218e+00
  1.934061e+01    1.165606e+00
  1.935648e+01    1.172907e+00
  1.937236e+01    1.168694e+00
  1.938823e+01    1.156838e+00
  1.940411e+01    1.132935e+00
  1.941998e+01    1.121312e+00
  1.943586e+01    1.142764e+00
  1.945173e+01    1.130928e+00
  1.946761e+01    1.118669e+00
  1.948349e+01    1.137044e+00
  1.949936e+01    1.146259e+00
  1.951524e+01    1.138726e+00
  1.953111e+01    1.149944e+00
  1.954699e+01    1.143077e+00
  1.956286e+01    1.123159e+00
  1.957874e+01    1.134130e+00
  1.959461e+01    1.144924e+00
  1.961049e+01    1.134499e+00
  1.962637e+01    1.163371e+00
  1.964224e+01    1.142835e+00
  1.965812e+01    1.120981e+00
  1.967399e+01    1.118223e+00
  1.968987e+01    1.127889e+00
  1.970574e+01    1.137622e+00
  1.972162e+01    1.124422e+00
  1.973749e+01    1.108538e+00
  1.975337e+01    1.108135e+00
  1.976925e+01    1.112995e+00
  1.978512e+01    1.115939e+00
  1.980100e+01    1.130185e+00
  1.981687e+01    1.121160e+00
  1.983275e+01    1.118438e+00
  1.984862e+01    1.092171e+00
  1.986450e+01    1.131535e+00
  1.988037e+01    1.124835e+00
  1.989625e+01    1.104331e+00
  1.991213e+01    1.100890e+00
  1.992800e+01    1.126701e+00
  1.994388e+01    1.111456e+00
  1.995975e+01    1.122243e+00
  1.997563e+01    1.114962e+00
  1.999150e+01    1.100129e+00
  2.000738e+01    1.112113e+00
  2.002325e+01    1.093143e+00
  2.003913e+01    1.075689e+00
  2.005501e+01    1.105936e+00
  2.007088e+01    1.097319e+00
  2.008676e+01    1.110383e+00
  2.010263e+01    1.111334e+00
  2.011851e+01    1.115283e+00
  2.013438e+01    1.123561e+00
  2.015026e+01    1.096324e+00
  2.016614e+01    1.090610e+00
  2.018201e+01    1.083291e+00
  2.019789e+01    1.064221e+00
  2.021376e+01    1.089119e+00
  2.022964e+01    1.118055e+00
  2.024551e+01    1.084810e+00
  2.026139e+01    1.068308e+00
  2.027726e+01    1.089198e+00
  2.029314e+01    1.085196e+00
  2.030902e+01    1.064438e+00
  2.032489e+01    1.074169e+00
  2.034077e+01    1.086269e+00
  2.035664e+01    1.083641e+00
  2.037252e+01    1.073046e+00
  2.038839e+01    1.072875e+00
  2.040427e+01    1.062810e+00
  2.042014e+01    1.066208e+00
  2.043602e+01    1.075431e+00
  2.045190e+01    1.066529e+00
  2.046777e+01    1.070720e+00
  2.048365e+01    1.090421e+00
  2.049952e+01    1.067318e+00
  2.051540e+01    1.077900e+00
  2.053127e+01    1.057680e+00
  2.054715e+01    1.068103e+00
  2.056302e+01    1.073818e+00
  2.057890e+01    1.050549e+00
  2.059478e+01    1.057526e+00
  2.061065e+01    1.070034e+00
  2.062653e+01    1.057738e+00
  2.064240e+01    1.085195e+00
  2.065828e+01    1.094885e+00
  2.067415e+01    1.073034e+00
  2.069003e+01    1.062958e+00
  2.070590e+01    1.073879e+00
  2.072178e+01    1.064779e+00
  2.073766e+01    1.055056e+00
  2.075353e+01    1.055874e+00
  2.076941e+01    1.050305e+00
  2.078528e+01    1.078530e+00
  2.080116e+01    1.066408e+00
  2.081703e+01    1.066377e+00
  2.083291e+01    1.083286e+00
  2.084878e+01    1.082282e+00
  2.086466e+01    1.067705e+00
  2.088054e+01    1.047557e+00
  2.089641e+01    1.053079e+00
  2.091229e+01    1.040091e+00
  2.092816e+01    1.059868e+00
  2.094404e+01    1.073433e+00
  2.095991e+01    1.058560e+00
  2.097579e+01    1.063182e+00
  2.099166e+01    1.043328e+00
  2.100754e+01    1.028326e+00
  2.102342e+01    1.059920e+00
  2.103929e+01    1.096301e+00
  2.105517e+01    1.065071e+00
  2.107104e+01    1.045728e+00
  2.108692e+01    1.052640e+00
  2.110279e+01    1.054906e+00
  2.111867e+01    1.057224e+00
  2.113455e+01    1.064839e+00
  2.115042e+01    1.089660e+00
  2.116630e+01    1.079448e+00
  2.118217e+01    1.092306e+00
  2.119805e+01    1.058843e+00
  2.121392e+01    1.090268e+00
  2.122980e+01    1.096409e+00
  2.124567e+01    1.073834e+00
  2.126155e+01    1.099925e+00
  2.127743e+01    1.092177e+00
  2.129330e+01    1.070744e+00
  2.130918e+01    1.081766e+00
  2.132505e+01    1.119401e+00
  2.134093e+01    1.114364e+00
  2.135680e+01    1.129601e+00
  2.137268e+01    1.126486e+00
  2.138855e+01    1.128536e+00
  2.140443e+01    1.138895e+00
  2.142031e+01    1.157046e+00
  2.143618e+01    1.163473e+00
  2.145206e+01    1.203962e+00
  2.146793e+01    1.218768e+00
  2.148381e+01    1.261161e+00
  2.149968e+01    1.254577e+00
  2.151556e+01    1.290372e+00
  2.153143e+01    1.314290e+00
  2.154731e+01    1.316881e+00
  2.156319e+01    1.391480e+00
  2.157906e+01    1.422854e+00
  2.159494e+01    1.490463e+00
  2.161081e+01    1.558639e+00
  2.162669e+01    1.661842e+00
  2.164256e+01    1.768949e+00
  2.165844e+01    1.888853e+00
  2.167431e+01    2.064384e+00
  2.169019e+01    2.260646e+00
  2.170607e+01    2.486891e+00
  2.172194e+01    2.780422e+00
  2.173782e+01    3.153355e+00
  2.175369e+01    3.586632e+00
  2.176957e+01    4.081925e+00
  2.178544e+01    4.678844e+00
  2.180132e+01    5.321603e+00
  2.181719e+01    6.017201e+00
  2.183307e+01    6.788095e+00
  2.184895e+01    7.560662e+00
  2.186482e+01    8.321638e+00
  2.188070e+01    8.964269e+00
  2.189657e+01    9.330930e+00
  2.191245e+01    9.479151e+00
  2.192832e+01    9.234303e+00
  2.194420e+01    8.581329e+00
  2.196007e+01    7.691366e+00
  2.197595e+01    6.661572e+00
  2.199183e+01    5.675370e+00
  2.200770e+01    4.792913e+00
  2.202358e+01    4.077848e+00
  2.203945e+01    3.504616e+00
  2.205533e+01    3.025104e+00
  2.207120e+01    2.694717e+00
  2.208708e+01    2.378887e+00
  2.210296e+01    2.173775e+00
  2.211883e+01    1.987400e+00
  2.213471e+01    1.843433e+00
  2.215058e+01    1.716856e+00
  2.216646e+01    1.600984e+00
  2.218233e+01    1.559924e+00
  2.219821e+01    1.504180e+00
  2.221408e+01    1.413063e+00
  2.222996e+01    1.372007e+00
  2.224584e+01    1.301054e+00
  2.226171e+01    1.283731e+00
  2.227759e+01    1.259584e+00
  2.229346e+01    1.211921e+00
  2.230934e+01    1.181015e+00
  2.232521e+01    1.147447e+00
  2.234109e+01    1.129380e+00
  2.235696e+01    1.124244e+00
  2.237284e+01    1.101301e+00
  2.238872e+01    1.060161e+00
  2.240459e+01    1.083602e+00
  2.242047e+01    1.078275e+00
  2.243634e+01    1.051180e+00
  2.245222e+01    1.046409e+00
  2.246809e+01    1.034439e+00
  2.248397e+01    1.038029e+00
  2.249984e+01    1.009907e+00
  2.251572e+01    1.009730e+00
  2.253160e+01    1.008360e+00
  2.254747e+01    1.006124e+00
  2.256335e+01    1.009130e+00
  2.257922e+01    9.964113e-01
  2.259510e+01    9.795109e-01
  2.261097e+01    9.770691e-01
  2.262685e+01    9.594179e-01
  2.264272e+01    9.588750e-01
  2.265860e+01    9.681029e-01
  2.267448e+01    9.511466e-01
  2.269035e+01    9.776716e-01
  2.270623e+01    9.520806e-01
  2.272210e+01    9.504554e-01
  2.273798e+01    9.402562e-01
  2.275385e+01    9.296141e-01
  2.276973e+01    9.199250e-01
  2.278560e+01    9.118198e-01
  2.280148e+01    9.241171e-01
  2.281736e+01    9.275593e-01
  2.283323e+01    9.173178e-01
  2.284911e+01    8.932620e-01
  2.286498e+01    8.892252e-01
  2.288086e+01    9.031233e-01
  2.289673e+01    9.006276e-01
  2.291261e+01    8.978648e-01
  2.292848e+01    8.887837e-01
  2.294436e+01    8.802510e-01
  2.296024e+01    8.898979e-01
  2.297611e+01    8.874851e-01
  2.299199e+01    8.726979e-01
  2.300786e+01    8.714080e-01
  2.302374e+01    8.747829e-01
  2.303961e+01    8.551612e-01
  2.305549e+01    8.388912e-01
  2.307137e+01    8.619369e-01
  2.308724e+01    8.721575e-01
  2.310312e+01    8.937610e-01
  2.311899e+01    8.774914e-01
  2.313487e+01    8.889619e-01
  2.315074e+01    8.740946e-01
  2.316662e+01    8.669499e-01
  2.318249e+01    8.699780e-01
  2.319837e+01    8.663524e-01
  2.321425e+01    8.691891e-01
  2.323012e+01    8.738661e-01
  2.324600e+01    8.312169e-01
  2.326187e+01    8.616616e-01
  2.327775e+01    8.655958e-01
  2.329362e+01    8.675646e-01
  2.330950e+01    8.620231e-01
  2.332537e+01    8.688375e-01
  2.334125e+01    8.495180e-01
  2.335713e+01    8.490097e-01
  2.337300e+01    8.463025e-01
  2.338888e+01    8.426396e-01
  2.340475e+01    8.312310e-01
  2.342063e+01    8.430849e-01
  2.343650e+01    8.481307e-01
  2.345238e+01    8.421443e-01
  2.346825e+01    8.391231e-01
  2.348413e+01    8.373792e-01
  2.350001e+01    8.486012e-01
  2.351588e+01    8.508025e-01
  2.353176e+01    8.477995e-01
  2.354763e+01    8.539317e-01
  2.356351e+01    8.344353e-01
  2.357938e+01    8.205580e-01
  2.359526e+01    8.074571e-01
  2.361113e+01    8.273762e-01
  2.362701e+01    8.085000e-01
  2.364289e+01    8.234666e-01
  2.365876e+01    8.346310e-01
  2.367464e+01    8.198286e-01
  2.369051e+01    8.168843e-01
  2.370639e+01    8.207462e-01
  2.372226e+01    8.098521e-01
  2.373814e+01    8.132817e-01
  2.375401e+01    8.119851e-01
  2.376989e+01    8.018253e-01
  2.378577e+01    7.938451e-01
  2.380164e+01    7.879381e-01
  2.381752e+01    8.190317e-01
  2.383339e+01    7.965924e-01
  2.384927e+01    7.971742e-01
  2.386514e+01    8.100144e-01
  2.388102e+01    7.903960e-01
  2.389689e+01    7.838117e-01
  2.391277e+01    7.909284e-01
  2.392865e+01    7.791085e-01
  2.394452e+01    7.677513e-01
  2.396040e+01    7.686785e-01
  2.397627e+01    7.850729e-01
  2.399215e+01    7.749525e-01
  2.400802e+01    7.771138e-01
  2.402390e+01    7.783886e-01
  2.403978e+01    7.764627e-01
  2.405565e+01    7.620091e-01
  2.407153e+01    7.663866e-01
  2.408740e+01    7.819377e-01
  2.410328e+01    7.756580e-01
  2.411915e+01    7.760763e-01
  2.413503e+01    7.571573e-01
  2.415090e+01    7.676005e-01
  2.416678e+01    7.801898e-01
  2.418266e+01    7.877629e-01
  2.419853e+01    7.804281e-01
  2.421441e+01    7.860127e-01
  2.423028e+01    7.774698e-01
  2.424616e+01    7.828172e-01
  2.426203e+01    7.566958e-01
  2.427791e+01    7.824497e-01
  2.429378e+01    7.845591e-01
  2.430966e+01    7.793689e-01
  2.432554e+01    7.762486e-01
  2.434141e+01    7.848405e-01
  2.435729e+01    7.869229e-01
  2.437316e+01    7.854357e-01
  2.438904e+01    7.760481e-01
  2.440491e+01    7.719563e-01
  2.442079e+01    7.758394e-01
  2.443666e+01    7.795129e-01
  2.445254e+01    7.821603e-01
  2.446842e+01    7.778102e-01
  2.448429e+01    7.737754e-01
  2.450017e+01    7.853191e-01
  2.451604e+01    7.782987e-01
  2.453192e+01    7.765118e-01
  2.454779e+01    7.668786e-01
  2.456367e+01    7.500858e-01
  2.457954e+01    7.817982e-01
  2.459542e+01    7.920091e-01
  2.461130e+01    7.829921e-01
  2.462717e+01    7.945440e-01
  2.464305e+01    7.864473e-01
  2.465892e+01    7.894780e-01
  2.467480e+01    7.825251e-01
  2.469067e+01    7.927702e-01
  2.470655e+01    7.999114e-01
  2.472242e+01    7.926274e-01
  2.473830e+01    7.932330e-01
  2.475418e+01    7.925204e-01
  2.477005e+01    8.006986e-01
  2.478593e+01    7.973489e-01
  2.480180e+01    7.991718e-01
  2.481768e+01    7.841777e-01
  2.483355e+01    7.697035e-01
  2.484943e+01    7.726914e-01
  2.486530e+01    7.875629e-01
  2.488118e+01    7.959217e-01
  2.489706e+01    7.784292e-01
  2.491293e+01    7.970408e-01
  2.492881e+01    7.868006e-01
  2.494468e+01    7.888255e-01
  2.496056e+01    7.731900e-01
  2.497643e+01    7.876788e-01
  2.499231e+01    7.836374e-01
  2.500819e+01    7.988734e-01
  2.502406e+01    7.997068e-01
  2.503994e+01    8.141112e-01
  2.505581e+01    8.085178e-01
  2.507169e+01    7.969024e-01
  2.508756e+01    7.869750e-01
  2.510344e+01    8.181646e-01
  2.511931e+01    8.072429e-01
  2.513519e+01    7.847651e-01
  2.515107e+01    7.915493e-01
  2.516694e+01    8.158808e-01
  2.518282e+01    8.098198e-01
  2.519869e+01    8.097311e-01
  2.521457e+01    8.006051e-01
  2.523044e+01    8.199416e-01
  2.524632e+01    8.434511e-01
  2.526219e+01    8.483728e-01
  2.527807e+01    8.347410e-01
  2.529395e+01    8.299197e-01
  2.530982e+01    8.457716e-01
  2.532570e+01    8.410994e-01
  2.534157e+01    8.440906e-01
  2.535745e+01    8.641828e-01
  2.537332e+01    8.802840e-01
  2.538920e+01    8.967106e-01
  2.540507e+01    9.074146e-01
  2.542095e+01    9.036940e-01
  2.543683e+01    9.093565e-01
  2.545270e+01    9.122975e-01
  2.546858e+01    9.159849e-01
  2.548445e+01    9.511490e-01
  2.550033e+01    9.615911e-01
  2.551620e+01    9.579695e-01
  2.553208e+01    9.890409e-01
  2.554795e+01    1.024312e+00
  2.556383e+01    1.062549e+00
  2.557971e+01    1.057796e+00
  2.559558e+01    1.069324e+00
  2.561146e+01    1.101247e+00
  2.562733e+01    1.162272e+00
  2.564321e+01    1.211480e+00
  2.565908e+01    1.247886e+00
  2.567496e+01    1.296611e+00
  2.569083e+01    1.366853e+00
  2.570671e+01    1.442512e+00
  2.572259e+01    1.562906e+00
  2.573846e+01    1.671362e+00
  2.575434e+01    1.794384e+00
  2.577021e+01    1.989162e+00
  2.578609e+01    2.204550e+00
  2.580196e+01    2.491864e+00
  2.581784e+01    2.816576e+00
  2.583371e+01    3.198495e+00
  2.584959e+01    3.678820e+00
  2.586547e+01    4.242271e+00
  2.588134e+01    4.914248e+00
  2.589722e+01    5.508075e+00
  2.591309e+01    6.156093e+00
  2.592897e+01    6.749297e+00
  2.594484e+01    7.264913e+00
  2.596072e+01    7.665002e+00
  2.597660e+01    7.785796e+00
  2.599247e+01    7.644892e+00
  2.600835e+01    7.169079e+00
  2.602422e+01    6.508640e+00
  2.604010e+01    5.696270e+00
  2.605597e+01    4.911719e+00
  2.607185e+01    4.223415e+00
  2.608772e+01    3.619338e+00
  2.610360e+01    3.079142e+00
  2.611948e+01    2.678442e+00
  2.613535e+01    2.371090e+00
  2.615123e+01    2.172799e+00
  2.616710e+01    1.952051e+00
  2.618298e+01    1.771195e+00
  2.619885e+01    1.636424e+00
  2.621473e+01    1.540363e+00
  2.623060e+01    1.445663e+00
  2.624648e+01    1.374727e+00
  2.626236e+01    1.258383e+00
  2.627823e+01    1.203416e+00
  2.629411e+01    1.189355e+00
  2.630998e+01    1.153721e+00
  2.632586e+01    1.110981e+00
  2.634173e+01    1.085519e+00
  2.635761e+01    1.074443e+00
  2.637348e+01    1.043231e+00
  2.638936e+01    1.012541e+00
  2.640524e+01    9.895128e-01
  2.642111e+01    9.852296e-01
  2.643699e+01    9.864572e-01
  2.645286e+01    9.565511e-01
  2.646874e+01    9.442146e-01
  2.648461e+01    9.357012e-01
  2.650049e+01    9.180275e-01
  2.651636e+01    9.290920e-01
  2.653224e+01    9.410461e-01
  2.654812e+01    9.063581e-01
  2.656399e+01    8.993955e-01
  2.657987e+01    8.899050e-01
  2.659574e+01    8.916986e-01
  2.661162e+01    9.051552e-01
  2.662749e+01    9.014577e-01
  2.664337e+01    8.811736e-01
  2.665924e+01    8.847504e-01
  2.667512e+01    8.994377e-01
  2.669100e+01    8.940118e-01
  2.670687e+01    8.728597e-01
  2.672275e+01    8.762585e-01
  2.673862e+01    8.843325e-01
  2.675450e+01    8.956454e-01
  2.677037e+01    8.958195e-01
  2.678625e+01    8.688040e-01
  2.680212e+01    8.600366e-01
  2.681800e+01    8.932554e-01
  2.683388e+01    9.086011e-01
  2.684975e+01    9.068418e-01
  2.686563e+01    9.151085e-01
  2.688150e+01    9.057718e-01
  2.689738e+01    8.936837e-01
  2.691325e+01    9.066228e-01
  2.692913e+01    9.086103e-01
  2.694501e+01    9.253863e-01
  2.696088e+01    9.378055e-01
  2.697676e+01    9.810011e-01
  2.699263e+01    9.733359e-01
  2.700851e+01    9.889627e-01
  2.702438e+01    1.018157e+00
  2.704026e+01    1.079013e+00
  2.705613e+01    1.129706e+00
  2.707201e+01    1.185015e+00
  2.708789e+01    1.252779e+00
  2.710376e+01    1.340393e+00
  2.711964e+01    1.431749e+00
  2.713551e+01    1.546469e+00
  2.715139e+01    1.703742e+00
  2.716726e+01    1.853060e+00
  2.718314e+01    1.969608e+00
  2.719901e+01    2.109419e+00
  2.721489e+01    2.250471e+00
  2.723077e+01    2.310176e+00
  2.724664e+01    2.305229e+00
  2.726252e+01    2.221084e+00
  2.727839e+01    2.075049e+00
  2.729427e+01    1.909006e+00
  2.731014e+01    1.761862e+00
  2.732602e+01    1.582246e+00
  2.734189e+01    1.453910e+00
  2.735777e+01    1.345610e+00
  2.737365e+01    1.267612e+00
  2.738952e+01    1.167811e+00
  2.740540e+01    1.108451e+00
  2.742127e+01    1.054040e+00
  2.743715e+01    1.045553e+00
  2.745302e+01    1.008912e+00
  2.746890e+01    9.706371e-01
  2.748477e+01    9.316269e-01
  2.750065e+01    9.171834e-01
  2.751653e+01    8.944477e-01
  2.753240e+01    8.955173e-01
  2.754828e+01    8.802871e-01
  2.756415e+01    8.694803e-01
  2.758003e+01    8.702272e-01
  2.759590e+01    8.608115e-01
  2.761178e+01    8.561103e-01
  2.762765e+01    8.246841e-01
  2.764353e+01    8.294325e-01
  2.765941e+01    8.333250e-01
  2.767528e+01    8.080465e-01
  2.769116e+01    8.308301e-01
  2.770703e+01    8.381294e-01
  2.772291e+01    8.114788e-01
  2.773878e+01    8.147292e-01
  2.775466e+01    8.008545e-01
  2.777054e+01    8.047085e-01
  2.778641e+01    7.934300e-01
  2.780229e+01    8.066555e-01
  2.781816e+01    7.999061e-01
  2.783404e+01    7.725878e-01
  2.784991e+01    7.810261e-01
  2.786579e+01    8.033298e-01
  2.788166e+01    8.053903e-01
  2.789754e+01    7.884777e-01
  2.791342e+01    7.969679e-01
  2.792929e+01    7.921829e-01
  2.794517e+01    7.976839e-01
  2.796104e+01    7.858610e-01
  2.797692e+01    7.906536e-01
  2.799279e+01    7.692442e-01
  2.800867e+01    7.803382e-01
  2.802454e+01    7.900779e-01
  2.804042e+01    7.904642e-01
  2.805630e+01    7.762266e-01
  2.807217e+01    7.894790e-01
  2.808805e+01    7.864274e-01
  2.810392e+01    7.803864e-01
  2.811980e+01    7.542466e-01
  2.813567e+01    7.391080e-01
  2.815155e+01    7.677664e-01
  2.816742e+01    7.957022e-01
  2.818330e+01    7.921820e-01
  2.819918e+01    7.594841e-01
  2.821505e+01    7.421600e-01
  2.823093e+01    7.605595e-01
  2.824680e+01    7.425705e-01
  2.826268e+01    7.456715e-01
  2.827855e+01    7.538624e-01
  2.829443e+01    7.656431e-01
  2.831030e+01    7.558976e-01
  2.832618e+01    7.366226e-01
  2.834206e+01    7.321395e-01
  2.835793e+01    7.375526e-01
  2.837381e+01    7.323690e-01
  2.838968e+01    7.332192e-01
  2.840556e+01    7.480664e-01
  2.842143e+01    7.667788e-01
  2.843731e+01    7.603902e-01
  2.845318e+01    7.557514e-01
  2.846906e+01    7.386140e-01
  2.848494e+01    7.400105e-01
  2.850081e+01    7.311932e-01
  2.851669e+01    7.353483e-01
  2.853256e+01    7.353464e-01
  2.854844e+01    7.307091e-01
  2.856431e+01    7.554597e-01
  2.858019e+01    7.209414e-01
  2.859606e+01    7.509540e-01
  2.861194e+01    7.383852e-01
  2.862782e+01    7.491890e-01
  2.864369e+01    7.557186e-01
  2.865957e+01    7.599894e-01
  2.867544e+01    7.428432e-01
  2.869132e+01    7.508361e-01
  2.870719e+01    7.281256e-01
  2.872307e+01    7.318876e-01
  2.873895e+01    7.359304e-01
  2.875482e+01    7.324743e-01
  2.877070e+01    7.365149e-01
  2.878657e+01    7.391143e-01
  2.880245e+01    7.357283e-01
  2.881832e+01    7.278324e-01
  2.883420e+01    7.360628e-01
  2.885007e+01    7.277759e-01
  2.886595e+01    7.225333e-01
  2.888183e+01    7.371977e-01
  2.889770e+01    7.424065e-01
  2.891358e+01    7.260273e-01
  2.892945e+01    7.260881e-01
  2.894533e+01    7.147058e-01
  2.896120e+01    7.221284e-01
  2.897708e+01    7.388310e-01
  2.899295e+01    7.420236e-01
  2.900883e+01    7.243062e-01
  2.902471e+01    7.135952e-01
  2.904058e+01    7.357203e-01
  2.905646e+01    7.495003e-01
  2.907233e+01    7.272043e-01
  2.908821e+01    7.406389e-01
  2.910408e+01    7.360578e-01
  2.911996e+01    7.318830e-01
  2.913583e+01    7.121974e-01
  2.915171e+01    7.271054e-01
  2.916759e+01    7.396092e-01
  2.918346e+01    7.467309e-01
  2.919934e+01    7.230908e-01
  2.921521e+01    7.127363e-01
  2.923109e+01    7.093976e-01
  2.924696e+01    7.189273e-01
  2.926284e+01    6.992572e-01
  2.927871e+01    7.119368e-01
  2.929459e+01    7.180057e-01
  2.931047e+01    7.230906e-01
  2.932634e+01    7.165849e-01
  2.934222e+01    7.313503e-01
  2.935809e+01    7.390740e-01
  2.937397e+01    7.211653e-01
  2.938984e+01    7.144171e-01
  2.940572e+01    7.155706e-01
  2.942159e+01    7.335631e-01
  2.943747e+01    7.200745e-01
  2.945335e+01    7.064615e-01
  2.946922e+01    7.034565e-01
  2.948510e+01    7.045945e-01
  2.950097e+01    6.976864e-01
  2.951685e+01    7.173523e-01
  2.953272e+01    7.116632e-01
  2.954860e+01    7.094083e-01
  2.956447e+01    7.064030e-01
  2.958035e+01    6.795948e-01
  2.959623e+01    6.994190e-01
  2.961210e+01    7.151123e-01
  2.962798e+01    7.304828e-01
  2.964385e+01    7.234651e-01
  2.965973e+01    7.312698e-01
  2.967560e+01    6.962712e-01
  2.969148e+01    6.820937e-01
  2.970736e+01    6.845746e-01
  2.972323e+01    6.977593e-01
  2.973911e+01    6.912621e-01
  2.975498e+01    6.995083e-01
  2.977086e+01    6.998582e-01
  2.978673e+01    7.093781e-01
  2.980261e+01    7.038683e-01
  2.981848e+01    6.916212e-01
  2.983436e+01    7.082046e-01
  2.985024e+01    7.056019e-01
  2.986611e+01    7.022392e-01
  2.988199e+01    7.178877e-01
  2.989786e+01    7.064620e-01
  2.991374e+01    7.160645e-01
  2.992961e+01    7.006973e-01
  2.994549e+01    7.171136e-01
  2.996136e+01    7.222830e-01
  2.997724e+01    7.181836e-01
  2.999312e+01    7.085754e-01
  3.000899e+01    7.237970e-01
  3.002487e+01    7.305614e-01
  3.004074e+01    7.424982e-01
  3.005662e+01    7.423624e-01
  3.007249e+01    7.166885e-01
  3.008837e+01    7.308854e-01
  3.010424e+01    7.283397e-01
  3.012012e+01    7.153701e-01
  3.013600e+01    7.245363e-01
  3.015187e+01    7.067034e-01
  3.016775e+01    7.116252e-01
  3.018362e+01    7.173002e-01
  3.019950e+01    7.094465e-01
  3.021537e+01    7.093018e-01
  3.023125e+01    7.073989e-01
  3.024712e+01    7.028059e-01
  3.026300e+01    7.057643e-01
  3.027888e+01    7.072317e-01
  3.029475e+01    7.027279e-01
  3.031063e+01    6.966662e-01
  3.032650e+01    7.040250e-01
  3.034238e+01    7.143283e-01
  3.035825e+01    7.254137e-01
  3.037413e+01    7.200172e-01
  3.039000e+01    6.989786e-01
  3.040588e+01    7.125816e-01
  3.042176e+01    7.084870e-01
  3.043763e+01    7.167693e-01
  3.045351e+01    7.116399e-01
  3.046938e+01    7.033377e-01
  3.048526e+01    6.969123e-01
  3.050113e+01    6.942555e-01
  3.051701e+01    6.920115e-01
  3.053288e+01    6.822615e-01
  3.054876e+01    7.034394e-01
  3.056464e+01    7.098646e-01
  3.058051e+01    7.190251e-01
  3.059639e+01    7.135422e-01
  3.061226e+01    6.930917e-01
  3.062814e+01    6.951981e-01
  3.064401e+01    6.898853e-01
  3.065989e+01    6.790966e-01
  3.067577e+01    6.993673e-01
  3.069164e+01    6.980544e-01
  3.070752e+01    6.909404e-01
  3.072339e+01    7.066066e-01
  3.073927e+01    7.002422e-01
  3.075514e+01    7.097730e-01
  3.077102e+01    7.002350e-01
  3.078689e+01    7.061338e-01
  3.080277e+01    6.978464e-01
  3.081865e+01    6.813220e-01
  3.083452e+01    6.902403e-01
  3.085040e+01    7.071795e-01
  3.086627e+01    7.134081e-01
  3.088215e+01    6.992908e-01
  3.089802e+01    7.147246e-01
  3.091390e+01    7.140352e-01
  3.092977e+01    7.102127e-01
  3.094565e+01    7.064030e-01
  3.096153e+01    6.999089e-01
  3.097740e+01    6.930094e-01
  3.099328e+01    6.955013e-01
  3.100915e+01    6.854697e-01
  3.102503e+01    7.155709e-01
  3.104090e+01    7.243903e-01
  3.105678e+01    7.155337e-01
  3.107265e+01    7.014690e-01
  3.108853e+01    6.935474e-01
  3.110441e+01    7.121584e-01
  3.112028e+01    7.086598e-01
  3.113616e+01    7.197887e-01
  3.115203e+01    7.135766e-01
  3.116791e+01    7.100885e-01
  3.118378e+01    7.125579e-01
  3.119966e+01    7.266650e-01
  3.121553e+01    7.162564e-01
  3.123141e+01    7.294509e-01
  3.124729e+01    7.348632e-01
  3.126316e+01    7.258828e-01
  3.127904e+01    7.221668e-01
  3.129491e+01    7.435315e-01
  3.131079e+01    7.643100e-01
  3.132666e+01    7.354918e-01
  3.134254e+01    7.322378e-01
  3.135841e+01    7.360737e-01
  3.137429e+01    7.417974e-01
  3.139017e+01    7.388130e-01
  3.140604e+01    7.269148e-01
  3.142192e+01    7.177587e-01
  3.143779e+01    7.172684e-01
  3.145367e+01    7.327582e-01
  3.146954e+01    7.366033e-01
  3.148542e+01    7.502655e-01
  3.150129e+01    7.665265e-01
  3.151717e+01    7.583714e-01
  3.153305e+01    7.479432e-01
  3.154892e+01    7.775597e-01
  3.156480e+01    7.972695e-01
  3.158067e+01    7.885617e-01
  3.159655e+01    7.964863e-01
  3.161242e+01    8.104220e-01
  3.162830e+01    8.170357e-01
  3.164418e+01    8.431392e-01
  3.166005e+01    8.566712e-01
  3.167593e+01    8.829015e-01
  3.169180e+01    9.005697e-01
  3.170768e+01    9.213114e-01
  3.172355e+01    9.701691e-01
  3.173943e+01    1.035967e+00
  3.175530e+01    1.082999e+00
  3.177118e+01    1.121901e+00
  3.178706e+01    1.209368e+00
  3.180293e+01    1.296695e+00
  3.181881e+01    1.440565e+00
  3.183468e+01    1.586752e+00
  3.185056e+01    1.737238e+00
  3.186643e+01    1.880834e+00
  3.188231e+01    2.038800e+00
  3.189818e+01    2.210202e+00
  3.191406e+01    2.256023e+00
  3.192994e+01    2.276896e+00
  3.194581e+01    2.176755e+00
  3.196169e+01    2.141446e+00
  3.197756e+01    2.011186e+00
  3.199344e+01    1.846099e+00
  3.200931e+01    1.643371e+00
  3.202519e+01    1.505062e+00
  3.204106e+01    1.372383e+00
  3.205694e+01    1.262639e+00
  3.207282e+01    1.168218e+00
  3.208869e+01    1.076469e+00
  3.210457e+01    1.015521e+00
  3.212044e+01    9.751714e-01
  3.213632e+01    9.606839e-01
  3.215219e+01    9.071424e-01
  3.216807e+01    8.566458e-01
  3.218394e+01    8.494592e-01
  3.219982e+01    8.351601e-01
  3.221570e+01    8.303106e-01
  3.223157e+01    7.992251e-01
  3.224745e+01    7.843311e-01
  3.226332e+01    7.919685e-01
  3.227920e+01    7.513883e-01
  3.229507e+01    7.345359e-01
  3.231095e+01    7.456181e-01
  3.232682e+01    7.384825e-01
  3.234270e+01    7.574232e-01
  3.235858e+01    7.800439e-01
  3.237445e+01    7.367852e-01
  3.239033e+01    7.296031e-01
  3.240620e+01    7.419912e-01
  3.242208e+01    7.323357e-01
  3.243795e+01    7.498170e-01
  3.245383e+01    7.027681e-01
  3.246970e+01    7.130268e-01
  3.248558e+01    7.393578e-01
  3.250146e+01    7.462658e-01
  3.251733e+01    7.062349e-01
  3.253321e+01    7.002637e-01
  3.254908e+01    7.108753e-01
