# == pyFAI calibration ==
# Distance Sample to Detector: 0.3999999939076516 m
# PONI: 9.750e-02, 1.135e-01 m
# Rotations: -0.000175 0.000000 -0.000000 rad
# 
# == Fit2d calibration ==
# Distance Sample-beamCenter: 400.000 mm
# Center: x=1514.000, y=1300.000 pix
# Tilt: 0.010 deg  TiltPlanRot: 0.010 deg
# 
# Detector Detector	 Spline= None	 PixelSize= 7.500e-05, 7.500e-05 m
#    Detector has a mask: False 
#    Detector has a dark current: False 
#    detector has a flat field: False 
# 
# Wavelength: 6.888e-11 m
# Mask applied: user provided
# Dark current applied: False
# Flat field applied: False
# Polarization factor: 0.99
# Normalization factor: 1.0
# --> /home/myspot/data/2024_07_Rosario/Ru-CGO-ex/2024-07-27_002_Ru-CGO-ex_Activtation_ramp_000002_data_000081.dat
#       q_nm^-1             I 
  2.003187e-02    2.849293e-01
  3.590745e-02    0.000000e+00
  5.178302e-02    7.387637e-02
  6.765859e-02    2.252240e-01
  8.353417e-02    1.108382e-01
  9.940974e-02    9.180977e-02
  1.152853e-01    1.347533e-01
  1.311609e-01    1.626186e-02
  1.470365e-01    0.000000e+00
  1.629120e-01    1.917347e-02
  1.787876e-01    1.442434e-02
  1.946632e-01    3.934178e-03
  2.105388e-01    4.339655e-02
  2.264143e-01    6.547263e-02
  2.422899e-01    3.711267e-02
  2.581655e-01    2.214972e-03
  2.740411e-01    3.084903e-03
  2.899166e-01    3.174601e-02
  3.057922e-01    4.175109e-02
  3.216678e-01    5.770931e-02
  3.375433e-01    3.377682e-02
  3.534189e-01    3.180460e-02
  3.692945e-01    2.808284e-02
  3.851701e-01    6.314027e-02
  4.010456e-01    7.043377e-02
  4.169212e-01    3.990575e-02
  4.327968e-01    1.542295e-02
  4.486724e-01    0.000000e+00
  4.645479e-01    1.407257e-02
  4.804235e-01    1.593268e-02
  4.962991e-01    1.410654e-02
  5.121747e-01    2.163835e-02
  5.280502e-01    1.651129e-02
  5.439258e-01    2.817852e-02
  5.598014e-01    2.162140e-02
  5.756770e-01    5.697845e-02
  5.915525e-01    5.099371e-02
  6.074281e-01    2.371806e-02
  6.233037e-01    6.065045e-02
  6.391793e-01    4.647719e-02
  6.550548e-01    3.858485e-02
  6.709304e-01    2.166578e-02
  6.868060e-01    1.223575e-02
  7.026815e-01    2.265387e-02
  7.185571e-01    4.957939e-02
  7.344327e-01    4.561762e-02
  7.503083e-01    5.618551e-02
  7.661838e-01    7.972857e-02
  7.820594e-01    9.409682e-02
  7.979350e-01    1.476219e-01
  8.138106e-01    2.055646e-01
  8.296861e-01    2.472375e-01
  8.455617e-01    3.221646e-01
  8.614373e-01    3.675297e-01
  8.773129e-01    4.002165e-01
  8.931884e-01    4.406502e-01
  9.090640e-01    5.290920e-01
  9.249396e-01    6.226481e-01
  9.408152e-01    7.031161e-01
  9.566907e-01    7.463019e-01
  9.725663e-01    8.193797e-01
  9.884419e-01    9.277835e-01
  1.004317e+00    1.022642e+00
  1.020193e+00    1.048205e+00
  1.036069e+00    1.155717e+00
  1.051944e+00    1.271687e+00
  1.067820e+00    1.300423e+00
  1.083695e+00    1.321792e+00
  1.099571e+00    1.355784e+00
  1.115446e+00    1.360659e+00
  1.131322e+00    1.413593e+00
  1.147198e+00    1.428163e+00
  1.163073e+00    1.369122e+00
  1.178949e+00    1.385017e+00
  1.194824e+00    1.669431e+00
  1.210700e+00    1.811365e+00
  1.226575e+00    1.900732e+00
  1.242451e+00    2.184926e+00
  1.258327e+00    2.502344e+00
  1.274202e+00    2.503689e+00
  1.290078e+00    2.419280e+00
  1.305953e+00    2.508538e+00
  1.321829e+00    2.513762e+00
  1.337705e+00    2.489192e+00
  1.353580e+00    2.575286e+00
  1.369456e+00    2.643081e+00
  1.385331e+00    2.672373e+00
  1.401207e+00    2.585642e+00
  1.417082e+00    2.606370e+00
  1.432958e+00    2.560098e+00
  1.448834e+00    2.670608e+00
  1.464709e+00    2.681114e+00
  1.480585e+00    2.785197e+00
  1.496460e+00    2.874007e+00
  1.512336e+00    2.800896e+00
  1.528211e+00    2.838379e+00
  1.544087e+00    2.920594e+00
  1.559963e+00    3.054446e+00
  1.575838e+00    2.909452e+00
  1.591714e+00    2.863915e+00
  1.607589e+00    2.867874e+00
  1.623465e+00    2.866225e+00
  1.639340e+00    2.872742e+00
  1.655216e+00    2.992798e+00
  1.671092e+00    2.897516e+00
  1.686967e+00    2.839142e+00
  1.702843e+00    2.800112e+00
  1.718718e+00    2.831976e+00
  1.734594e+00    2.814978e+00
  1.750469e+00    2.815403e+00
  1.766345e+00    2.817487e+00
  1.782221e+00    2.882220e+00
  1.798096e+00    2.870714e+00
  1.813972e+00    2.798984e+00
  1.829847e+00    2.797032e+00
  1.845723e+00    2.856099e+00
  1.861598e+00    2.864731e+00
  1.877474e+00    2.917266e+00
  1.893350e+00    2.961076e+00
  1.909225e+00    2.814901e+00
  1.925101e+00    2.808030e+00
  1.940976e+00    2.777864e+00
  1.956852e+00    2.667412e+00
  1.972727e+00    2.628773e+00
  1.988603e+00    2.568973e+00
  2.004479e+00    2.629658e+00
  2.020354e+00    2.704834e+00
  2.036230e+00    2.661542e+00
  2.052105e+00    2.682335e+00
  2.067981e+00    2.658064e+00
  2.083856e+00    2.641018e+00
  2.099732e+00    2.772999e+00
  2.115608e+00    2.695464e+00
  2.131483e+00    2.690026e+00
  2.147359e+00    2.693895e+00
  2.163234e+00    2.788732e+00
  2.179110e+00    2.694060e+00
  2.194985e+00    2.775590e+00
  2.210861e+00    2.735965e+00
  2.226737e+00    2.682446e+00
  2.242612e+00    2.829050e+00
  2.258488e+00    2.838241e+00
  2.274363e+00    2.748303e+00
  2.290239e+00    2.613231e+00
  2.306115e+00    2.585482e+00
  2.321990e+00    2.708462e+00
  2.337866e+00    2.798548e+00
  2.353741e+00    2.740814e+00
  2.369617e+00    2.715605e+00
  2.385492e+00    2.769937e+00
  2.401368e+00    2.761052e+00
  2.417244e+00    2.787898e+00
  2.433119e+00    2.718908e+00
  2.448995e+00    2.757425e+00
  2.464870e+00    2.798965e+00
  2.480746e+00    2.780787e+00
  2.496621e+00    2.741271e+00
  2.512497e+00    2.858841e+00
  2.528373e+00    2.965893e+00
  2.544248e+00    2.800759e+00
  2.560124e+00    2.772256e+00
  2.575999e+00    2.875574e+00
  2.591875e+00    2.785303e+00
  2.607750e+00    2.814074e+00
  2.623626e+00    2.832514e+00
  2.639502e+00    2.830576e+00
  2.655377e+00    2.733503e+00
  2.671253e+00    2.730219e+00
  2.687128e+00    2.769032e+00
  2.703004e+00    2.677876e+00
  2.718879e+00    2.682251e+00
  2.734755e+00    2.773834e+00
  2.750631e+00    2.828260e+00
  2.766506e+00    2.804316e+00
  2.782382e+00    2.875736e+00
  2.798257e+00    3.035029e+00
  2.814133e+00    2.860893e+00
  2.830008e+00    2.903927e+00
  2.845884e+00    2.766298e+00
  2.861760e+00    2.806236e+00
  2.877635e+00    2.847440e+00
  2.893511e+00    2.891138e+00
  2.909386e+00    2.841734e+00
  2.925262e+00    2.866570e+00
  2.941137e+00    2.944732e+00
  2.957013e+00    2.832571e+00
  2.972889e+00    2.798187e+00
  2.988764e+00    2.836957e+00
  3.004640e+00    2.843282e+00
  3.020515e+00    2.834671e+00
  3.036391e+00    2.894831e+00
  3.052266e+00    2.884447e+00
  3.068142e+00    2.867302e+00
  3.084018e+00    2.799396e+00
  3.099893e+00    2.825333e+00
  3.115769e+00    2.848474e+00
  3.131644e+00    2.906737e+00
  3.147520e+00    2.934320e+00
  3.163395e+00    2.976942e+00
  3.179271e+00    2.981115e+00
  3.195147e+00    2.885061e+00
  3.211022e+00    2.859552e+00
  3.226898e+00    2.836838e+00
  3.242773e+00    2.875116e+00
  3.258649e+00    2.844276e+00
  3.274525e+00    2.913960e+00
  3.290400e+00    2.984141e+00
  3.306276e+00    2.923064e+00
  3.322151e+00    2.843628e+00
  3.338027e+00    2.918166e+00
  3.353902e+00    2.895342e+00
  3.369778e+00    2.878288e+00
  3.385654e+00    2.913108e+00
  3.401529e+00    2.882401e+00
  3.417405e+00    2.931074e+00
  3.433280e+00    2.864365e+00
  3.449156e+00    2.865881e+00
  3.465031e+00    2.903304e+00
  3.480907e+00    2.926232e+00
  3.496783e+00    2.932797e+00
  3.512658e+00    2.944053e+00
  3.528534e+00    2.926626e+00
  3.544409e+00    2.945798e+00
  3.560285e+00    2.951143e+00
  3.576160e+00    2.965441e+00
  3.592036e+00    2.945695e+00
  3.607912e+00    2.950199e+00
  3.623787e+00    2.986597e+00
  3.639663e+00    2.973396e+00
  3.655538e+00    2.996279e+00
  3.671414e+00    2.919604e+00
  3.687289e+00    2.958296e+00
  3.703165e+00    2.941373e+00
  3.719041e+00    2.992411e+00
  3.734916e+00    3.024711e+00
  3.750792e+00    2.957971e+00
  3.766667e+00    2.972581e+00
  3.782543e+00    2.942040e+00
  3.798418e+00    2.964524e+00
  3.814294e+00    3.059522e+00
  3.830170e+00    3.066358e+00
  3.846045e+00    3.023711e+00
  3.861921e+00    2.949636e+00
  3.877796e+00    3.030814e+00
  3.893672e+00    3.005989e+00
  3.909547e+00    3.010421e+00
  3.925423e+00    2.967439e+00
  3.941299e+00    2.935099e+00
  3.957174e+00    2.987546e+00
  3.973050e+00    2.987113e+00
  3.988925e+00    3.006613e+00
  4.004801e+00    2.933292e+00
  4.020676e+00    2.941950e+00
  4.036552e+00    2.979817e+00
  4.052428e+00    3.018766e+00
  4.068303e+00    2.984280e+00
  4.084179e+00    2.935368e+00
  4.100054e+00    2.951386e+00
  4.115930e+00    3.011264e+00
  4.131806e+00    2.965221e+00
  4.147681e+00    2.961508e+00
  4.163557e+00    3.001438e+00
  4.179432e+00    2.943879e+00
  4.195308e+00    3.010310e+00
  4.211183e+00    3.035167e+00
  4.227059e+00    2.966784e+00
  4.242935e+00    2.959992e+00
  4.258810e+00    3.010526e+00
  4.274686e+00    2.998201e+00
  4.290561e+00    3.009418e+00
  4.306437e+00    3.096013e+00
  4.322312e+00    3.049718e+00
  4.338188e+00    2.979356e+00
  4.354064e+00    3.043290e+00
  4.369939e+00    3.124062e+00
  4.385815e+00    3.025772e+00
  4.401690e+00    3.066176e+00
  4.417566e+00    3.077859e+00
  4.433441e+00    3.071234e+00
  4.449317e+00    3.137211e+00
  4.465193e+00    3.079084e+00
  4.481068e+00    3.060202e+00
  4.496944e+00    3.067409e+00
  4.512819e+00    3.060257e+00
  4.528695e+00    3.036023e+00
  4.544570e+00    3.017462e+00
  4.560446e+00    3.061370e+00
  4.576322e+00    3.053331e+00
  4.592197e+00    3.012964e+00
  4.608073e+00    3.007872e+00
  4.623948e+00    3.050269e+00
  4.639824e+00    3.046358e+00
  4.655699e+00    3.041892e+00
  4.671575e+00    3.084931e+00
  4.687451e+00    3.029860e+00
  4.703326e+00    3.067503e+00
  4.719202e+00    3.118095e+00
  4.735077e+00    3.300507e+00
  4.750953e+00    3.215953e+00
  4.766828e+00    2.962861e+00
  4.782704e+00    2.969921e+00
  4.798580e+00    2.996249e+00
  4.814455e+00    3.040190e+00
  4.830331e+00    3.009847e+00
  4.846206e+00    3.033894e+00
  4.862082e+00    3.102373e+00
  4.877957e+00    3.152674e+00
  4.893833e+00    3.163084e+00
  4.909709e+00    3.067913e+00
  4.925584e+00    3.008372e+00
  4.941460e+00    3.152668e+00
  4.957335e+00    3.188718e+00
  4.973211e+00    3.111016e+00
  4.989086e+00    3.080144e+00
  5.004962e+00    3.079611e+00
  5.020838e+00    3.142213e+00
  5.036713e+00    3.076496e+00
  5.052589e+00    3.061366e+00
  5.068464e+00    3.104678e+00
  5.084340e+00    3.051914e+00
  5.100216e+00    3.081168e+00
  5.116091e+00    3.067967e+00
  5.131967e+00    3.089499e+00
  5.147842e+00    3.203310e+00
  5.163718e+00    3.310515e+00
  5.179593e+00    3.123948e+00
  5.195469e+00    3.153510e+00
  5.211345e+00    3.056566e+00
  5.227220e+00    3.065642e+00
  5.243096e+00    3.101336e+00
  5.258971e+00    3.092926e+00
  5.274847e+00    2.983839e+00
  5.290722e+00    3.043145e+00
  5.306598e+00    3.068052e+00
  5.322474e+00    3.041178e+00
  5.338349e+00    3.021210e+00
  5.354225e+00    3.097520e+00
  5.370100e+00    3.137797e+00
  5.385976e+00    3.088383e+00
  5.401851e+00    3.118361e+00
  5.417727e+00    3.109055e+00
  5.433603e+00    3.065810e+00
  5.449478e+00    3.075472e+00
  5.465354e+00    3.175400e+00
  5.481229e+00    3.144312e+00
  5.497105e+00    3.016222e+00
  5.512980e+00    3.049652e+00
  5.528856e+00    3.039682e+00
  5.544732e+00    3.023136e+00
  5.560607e+00    3.008054e+00
  5.576483e+00    3.051308e+00
  5.592358e+00    3.013950e+00
  5.608234e+00    3.100721e+00
  5.624109e+00    3.154599e+00
  5.639985e+00    3.108707e+00
  5.655861e+00    3.102557e+00
  5.671736e+00    3.037994e+00
  5.687612e+00    3.039717e+00
  5.703487e+00    2.999663e+00
  5.719363e+00    3.041193e+00
  5.735238e+00    3.063972e+00
  5.751114e+00    3.062107e+00
  5.766990e+00    3.096904e+00
  5.782865e+00    3.026354e+00
  5.798741e+00    3.026489e+00
  5.814616e+00    3.075841e+00
  5.830492e+00    3.098222e+00
  5.846367e+00    3.103217e+00
  5.862243e+00    3.057280e+00
  5.878119e+00    2.996232e+00
  5.893994e+00    2.997254e+00
  5.909870e+00    3.008019e+00
  5.925745e+00    2.909532e+00
  5.941621e+00    2.906682e+00
  5.957497e+00    2.967064e+00
  5.973372e+00    2.972605e+00
  5.989248e+00    3.000000e+00
  6.005123e+00    3.052500e+00
  6.020999e+00    3.047399e+00
  6.036874e+00    3.063849e+00
  6.052750e+00    3.004200e+00
  6.068626e+00    2.973092e+00
  6.084501e+00    2.991957e+00
  6.100377e+00    3.039029e+00
  6.116252e+00    3.033744e+00
  6.132128e+00    3.006248e+00
  6.148003e+00    3.042673e+00
  6.163879e+00    3.067188e+00
  6.179755e+00    3.058964e+00
  6.195630e+00    3.045212e+00
  6.211506e+00    3.014344e+00
  6.227381e+00    3.039825e+00
  6.243257e+00    3.070050e+00
  6.259132e+00    3.016576e+00
  6.275008e+00    3.017544e+00
  6.290884e+00    3.012519e+00
  6.306759e+00    3.012601e+00
  6.322635e+00    2.973118e+00
  6.338510e+00    3.011682e+00
  6.354386e+00    3.011536e+00
  6.370261e+00    3.006957e+00
  6.386137e+00    3.081457e+00
  6.402013e+00    3.026983e+00
  6.417888e+00    2.990669e+00
  6.433764e+00    3.006444e+00
  6.449639e+00    3.020969e+00
  6.465515e+00    2.920362e+00
  6.481390e+00    2.964438e+00
  6.497266e+00    2.972336e+00
  6.513142e+00    3.075852e+00
  6.529017e+00    3.038718e+00
  6.544893e+00    3.049216e+00
  6.560768e+00    2.922730e+00
  6.576644e+00    2.946368e+00
  6.592519e+00    2.974010e+00
  6.608395e+00    2.936634e+00
  6.624271e+00    2.968972e+00
  6.640146e+00    3.039456e+00
  6.656022e+00    3.034836e+00
  6.671897e+00    2.987077e+00
  6.687773e+00    2.991313e+00
  6.703648e+00    3.003450e+00
  6.719524e+00    3.022120e+00
  6.735400e+00    3.009620e+00
  6.751275e+00    2.997089e+00
  6.767151e+00    3.022069e+00
  6.783026e+00    3.027855e+00
  6.798902e+00    3.034256e+00
  6.814777e+00    3.013976e+00
  6.830653e+00    2.955414e+00
  6.846529e+00    3.053921e+00
  6.862404e+00    3.121457e+00
  6.878280e+00    3.022107e+00
  6.894155e+00    2.934413e+00
  6.910031e+00    2.938341e+00
  6.925907e+00    2.974416e+00
  6.941782e+00    3.005081e+00
  6.957658e+00    3.029693e+00
  6.973533e+00    3.034273e+00
  6.989409e+00    3.004275e+00
  7.005284e+00    2.951214e+00
  7.021160e+00    3.029327e+00
  7.037036e+00    3.058421e+00
  7.052911e+00    3.109370e+00
  7.068787e+00    3.012096e+00
  7.084662e+00    2.947997e+00
  7.100538e+00    3.011778e+00
  7.116413e+00    3.003403e+00
  7.132289e+00    2.956937e+00
  7.148165e+00    3.001830e+00
  7.164040e+00    3.034465e+00
  7.179916e+00    2.995721e+00
  7.195791e+00    2.938902e+00
  7.211667e+00    2.945163e+00
  7.227542e+00    2.924162e+00
  7.243418e+00    3.012479e+00
  7.259294e+00    2.995180e+00
  7.275169e+00    2.944153e+00
  7.291045e+00    2.978974e+00
  7.306920e+00    2.948757e+00
  7.322796e+00    2.933541e+00
  7.338671e+00    2.945037e+00
  7.354547e+00    2.894946e+00
  7.370423e+00    2.937496e+00
  7.386298e+00    3.018406e+00
  7.402174e+00    3.002406e+00
  7.418049e+00    3.033005e+00
  7.433925e+00    2.976984e+00
  7.449800e+00    2.893694e+00
  7.465676e+00    2.910664e+00
  7.481552e+00    3.009878e+00
  7.497427e+00    2.929395e+00
  7.513303e+00    2.920265e+00
  7.529178e+00    2.999443e+00
  7.545054e+00    2.917908e+00
  7.560929e+00    2.943243e+00
  7.576805e+00    2.928948e+00
  7.592681e+00    2.923630e+00
  7.608556e+00    2.910481e+00
  7.624432e+00    2.926842e+00
  7.640307e+00    2.885816e+00
  7.656183e+00    2.916288e+00
  7.672058e+00    2.920090e+00
  7.687934e+00    2.886197e+00
  7.703810e+00    2.858800e+00
  7.719685e+00    2.974850e+00
  7.735561e+00    2.951298e+00
  7.751436e+00    2.864535e+00
  7.767312e+00    2.905478e+00
  7.783187e+00    2.971906e+00
  7.799063e+00    3.017774e+00
  7.814939e+00    2.986218e+00
  7.830814e+00    2.966840e+00
  7.846690e+00    2.944884e+00
  7.862565e+00    2.938387e+00
  7.878441e+00    2.916079e+00
  7.894317e+00    2.953773e+00
  7.910192e+00    2.935561e+00
  7.926068e+00    2.920647e+00
  7.941943e+00    2.889079e+00
  7.957819e+00    2.875244e+00
  7.973694e+00    2.875916e+00
  7.989570e+00    2.870445e+00
  8.005446e+00    2.887167e+00
  8.021321e+00    2.877252e+00
  8.037197e+00    2.882313e+00
  8.053072e+00    2.856505e+00
  8.068948e+00    2.927883e+00
  8.084823e+00    2.889319e+00
  8.100699e+00    2.908708e+00
  8.116575e+00    2.911664e+00
  8.132450e+00    2.920141e+00
  8.148326e+00    2.947415e+00
  8.164201e+00    2.932096e+00
  8.180077e+00    2.879225e+00
  8.195952e+00    2.944913e+00
  8.211828e+00    2.937297e+00
  8.227704e+00    2.991987e+00
  8.243579e+00    2.990947e+00
  8.259455e+00    2.855447e+00
  8.275330e+00    2.869631e+00
  8.291206e+00    2.923674e+00
  8.307081e+00    2.886880e+00
  8.322957e+00    2.895313e+00
  8.338833e+00    2.904079e+00
  8.354708e+00    2.913291e+00
  8.370584e+00    2.909541e+00
  8.386459e+00    2.895746e+00
  8.402335e+00    2.859765e+00
  8.418210e+00    2.867229e+00
  8.434086e+00    2.895253e+00
  8.449962e+00    2.920475e+00
  8.465837e+00    2.837941e+00
  8.481713e+00    2.863673e+00
  8.497588e+00    2.844401e+00
  8.513464e+00    2.858383e+00
  8.529339e+00    2.873871e+00
  8.545215e+00    2.872114e+00
  8.561091e+00    2.773618e+00
  8.576966e+00    2.841985e+00
  8.592842e+00    2.916826e+00
  8.608717e+00    2.837252e+00
  8.624593e+00    2.870822e+00
  8.640468e+00    2.921964e+00
  8.656344e+00    2.918427e+00
  8.672220e+00    2.925671e+00
  8.688095e+00    2.833332e+00
  8.703971e+00    2.789143e+00
  8.719846e+00    2.869721e+00
  8.735722e+00    2.858253e+00
  8.751598e+00    2.775513e+00
  8.767473e+00    2.845484e+00
  8.783349e+00    2.886364e+00
  8.799224e+00    2.883114e+00
  8.815100e+00    2.838734e+00
  8.830975e+00    2.805082e+00
  8.846851e+00    2.816632e+00
  8.862727e+00    2.833939e+00
  8.878602e+00    2.841425e+00
  8.894478e+00    2.806134e+00
  8.910353e+00    2.793852e+00
  8.926229e+00    2.811805e+00
  8.942104e+00    2.824799e+00
  8.957980e+00    2.855710e+00
  8.973856e+00    2.842952e+00
  8.989731e+00    2.762828e+00
  9.005607e+00    2.788095e+00
  9.021482e+00    2.785753e+00
  9.037358e+00    2.787337e+00
  9.053233e+00    2.796483e+00
  9.069109e+00    2.797367e+00
  9.084985e+00    2.812436e+00
  9.100860e+00    2.797498e+00
  9.116736e+00    2.735194e+00
  9.132611e+00    2.790435e+00
  9.148487e+00    2.747255e+00
  9.164362e+00    2.775002e+00
  9.180238e+00    2.785004e+00
  9.196114e+00    2.743513e+00
  9.211989e+00    2.776875e+00
  9.227865e+00    2.799125e+00
  9.243740e+00    2.752943e+00
  9.259616e+00    2.766805e+00
  9.275491e+00    2.753083e+00
  9.291367e+00    2.715377e+00
  9.307243e+00    2.764378e+00
  9.323118e+00    2.817122e+00
  9.338994e+00    2.800795e+00
  9.354869e+00    2.783189e+00
  9.370745e+00    2.728852e+00
  9.386620e+00    2.779664e+00
  9.402496e+00    2.822729e+00
  9.418372e+00    2.791027e+00
  9.434247e+00    2.790980e+00
  9.450123e+00    2.782115e+00
  9.465998e+00    2.721083e+00
  9.481874e+00    2.775594e+00
  9.497749e+00    2.764098e+00
  9.513625e+00    2.734278e+00
  9.529501e+00    2.696723e+00
  9.545376e+00    2.759817e+00
  9.561252e+00    2.785867e+00
  9.577127e+00    2.782747e+00
  9.593003e+00    2.793103e+00
  9.608878e+00    2.785761e+00
  9.624754e+00    2.742543e+00
  9.640630e+00    2.760500e+00
  9.656505e+00    2.770912e+00
  9.672381e+00    2.689118e+00
  9.688256e+00    2.689482e+00
  9.704132e+00    2.764528e+00
  9.720008e+00    2.716991e+00
  9.735883e+00    2.657628e+00
  9.751759e+00    2.749940e+00
  9.767634e+00    2.754545e+00
  9.783510e+00    2.718810e+00
  9.799385e+00    2.697114e+00
  9.815261e+00    2.715763e+00
  9.831137e+00    2.699303e+00
  9.847012e+00    2.635513e+00
  9.862888e+00    2.614708e+00
  9.878763e+00    2.680082e+00
  9.894639e+00    2.724379e+00
  9.910514e+00    2.652819e+00
  9.926390e+00    2.621568e+00
  9.942266e+00    2.628418e+00
  9.958141e+00    2.686382e+00
  9.974017e+00    2.634169e+00
  9.989892e+00    2.664626e+00
  1.000577e+01    2.640307e+00
  1.002164e+01    2.639351e+00
  1.003752e+01    2.626580e+00
  1.005339e+01    2.621612e+00
  1.006927e+01    2.617298e+00
  1.008515e+01    2.610027e+00
  1.010102e+01    2.624998e+00
  1.011690e+01    2.622419e+00
  1.013277e+01    2.625841e+00
  1.014865e+01    2.619283e+00
  1.016452e+01    2.639080e+00
  1.018040e+01    2.612862e+00
  1.019627e+01    2.609299e+00
  1.021215e+01    2.630425e+00
  1.022803e+01    2.601054e+00
  1.024390e+01    2.648027e+00
  1.025978e+01    2.613404e+00
  1.027565e+01    2.591888e+00
  1.029153e+01    2.562991e+00
  1.030740e+01    2.616945e+00
  1.032328e+01    2.606999e+00
  1.033915e+01    2.585673e+00
  1.035503e+01    2.590404e+00
  1.037091e+01    2.661280e+00
  1.038678e+01    2.646575e+00
  1.040266e+01    2.607155e+00
  1.041853e+01    2.591650e+00
  1.043441e+01    2.583974e+00
  1.045028e+01    2.618130e+00
  1.046616e+01    2.588636e+00
  1.048204e+01    2.534563e+00
  1.049791e+01    2.535867e+00
  1.051379e+01    2.577642e+00
  1.052966e+01    2.609088e+00
  1.054554e+01    2.578044e+00
  1.056141e+01    2.562601e+00
  1.057729e+01    2.526261e+00
  1.059316e+01    2.586144e+00
  1.060904e+01    2.633880e+00
  1.062492e+01    2.593268e+00
  1.064079e+01    2.568553e+00
  1.065667e+01    2.538275e+00
  1.067254e+01    2.591670e+00
  1.068842e+01    2.540931e+00
  1.070429e+01    2.531095e+00
  1.072017e+01    2.543284e+00
  1.073604e+01    2.507955e+00
  1.075192e+01    2.535821e+00
  1.076780e+01    2.531303e+00
  1.078367e+01    2.472637e+00
  1.079955e+01    2.539907e+00
  1.081542e+01    2.538202e+00
  1.083130e+01    2.506222e+00
  1.084717e+01    2.514654e+00
  1.086305e+01    2.526200e+00
  1.087892e+01    2.483899e+00
  1.089480e+01    2.513322e+00
  1.091068e+01    2.521760e+00
  1.092655e+01    2.497526e+00
  1.094243e+01    2.463130e+00
  1.095830e+01    2.451807e+00
  1.097418e+01    2.500428e+00
  1.099005e+01    2.459313e+00
  1.100593e+01    2.445168e+00
  1.102180e+01    2.480381e+00
  1.103768e+01    2.496060e+00
  1.105356e+01    2.501315e+00
  1.106943e+01    2.471054e+00
  1.108531e+01    2.458969e+00
  1.110118e+01    2.454773e+00
  1.111706e+01    2.397334e+00
  1.113293e+01    2.433510e+00
  1.114881e+01    2.467543e+00
  1.116468e+01    2.464859e+00
  1.118056e+01    2.451969e+00
  1.119644e+01    2.451974e+00
  1.121231e+01    2.434189e+00
  1.122819e+01    2.413841e+00
  1.124406e+01    2.423634e+00
  1.125994e+01    2.426111e+00
  1.127581e+01    2.454088e+00
  1.129169e+01    2.441447e+00
  1.130756e+01    2.413048e+00
  1.132344e+01    2.350381e+00
  1.133932e+01    2.407675e+00
  1.135519e+01    2.413981e+00
  1.137107e+01    2.408065e+00
  1.138694e+01    2.399552e+00
  1.140282e+01    2.434192e+00
  1.141869e+01    2.401540e+00
  1.143457e+01    2.417158e+00
  1.145045e+01    2.355479e+00
  1.146632e+01    2.356766e+00
  1.148220e+01    2.336206e+00
  1.149807e+01    2.351825e+00
  1.151395e+01    2.371032e+00
  1.152982e+01    2.427226e+00
  1.154570e+01    2.454034e+00
  1.156157e+01    2.454751e+00
  1.157745e+01    2.419679e+00
  1.159333e+01    2.345490e+00
  1.160920e+01    2.337609e+00
  1.162508e+01    2.352147e+00
  1.164095e+01    2.358937e+00
  1.165683e+01    2.341717e+00
  1.167270e+01    2.340362e+00
  1.168858e+01    2.323617e+00
  1.170445e+01    2.345577e+00
  1.172033e+01    2.328812e+00
  1.173621e+01    2.361329e+00
  1.175208e+01    2.358818e+00
  1.176796e+01    2.316285e+00
  1.178383e+01    2.330873e+00
  1.179971e+01    2.315889e+00
  1.181558e+01    2.304413e+00
  1.183146e+01    2.321232e+00
  1.184733e+01    2.333606e+00
  1.186321e+01    2.340030e+00
  1.187909e+01    2.318017e+00
  1.189496e+01    2.308535e+00
  1.191084e+01    2.335135e+00
  1.192671e+01    2.347251e+00
  1.194259e+01    2.372709e+00
  1.195846e+01    2.360743e+00
  1.197434e+01    2.281082e+00
  1.199021e+01    2.272840e+00
  1.200609e+01    2.284562e+00
  1.202197e+01    2.346469e+00
  1.203784e+01    2.333245e+00
  1.205372e+01    2.320138e+00
  1.206959e+01    2.332822e+00
  1.208547e+01    2.299483e+00
  1.210134e+01    2.275391e+00
  1.211722e+01    2.290224e+00
  1.213309e+01    2.331359e+00
  1.214897e+01    2.300210e+00
  1.216485e+01    2.264362e+00
  1.218072e+01    2.305301e+00
  1.219660e+01    2.291020e+00
  1.221247e+01    2.252148e+00
  1.222835e+01    2.263371e+00
  1.224422e+01    2.348791e+00
  1.226010e+01    2.344720e+00
  1.227597e+01    2.311106e+00
  1.229185e+01    2.324075e+00
  1.230773e+01    2.282922e+00
  1.232360e+01    2.273314e+00
  1.233948e+01    2.267921e+00
  1.235535e+01    2.286092e+00
  1.237123e+01    2.235163e+00
  1.238710e+01    2.309424e+00
  1.240298e+01    2.323541e+00
  1.241886e+01    2.328426e+00
  1.243473e+01    2.302891e+00
  1.245061e+01    2.367439e+00
  1.246648e+01    2.333276e+00
  1.248236e+01    2.350530e+00
  1.249823e+01    2.371965e+00
  1.251411e+01    2.362907e+00
  1.252998e+01    2.362181e+00
  1.254586e+01    2.328617e+00
  1.256174e+01    2.372492e+00
  1.257761e+01    2.373886e+00
  1.259349e+01    2.324376e+00
  1.260936e+01    2.358785e+00
  1.262524e+01    2.396621e+00
  1.264111e+01    2.378676e+00
  1.265699e+01    2.411675e+00
  1.267286e+01    2.439814e+00
  1.268874e+01    2.486373e+00
  1.270462e+01    2.474015e+00
  1.272049e+01    2.466012e+00
  1.273637e+01    2.545497e+00
  1.275224e+01    2.553230e+00
  1.276812e+01    2.599007e+00
  1.278399e+01    2.632191e+00
  1.279987e+01    2.642998e+00
  1.281574e+01    2.662841e+00
  1.283162e+01    2.746076e+00
  1.284750e+01    2.832831e+00
  1.286337e+01    2.874119e+00
  1.287925e+01    2.983654e+00
  1.289512e+01    3.095608e+00
  1.291100e+01    3.286570e+00
  1.292687e+01    3.470272e+00
  1.294275e+01    3.661664e+00
  1.295862e+01    3.996217e+00
  1.297450e+01    4.339161e+00
  1.299038e+01    4.782991e+00
  1.300625e+01    5.340759e+00
  1.302213e+01    6.023181e+00
  1.303800e+01    6.934516e+00
  1.305388e+01    8.049938e+00
  1.306975e+01    9.398683e+00
  1.308563e+01    1.080710e+01
  1.310150e+01    1.215637e+01
  1.311738e+01    1.360145e+01
  1.313326e+01    1.478465e+01
  1.314913e+01    1.613992e+01
  1.316501e+01    1.739301e+01
  1.318088e+01    1.814022e+01
  1.319676e+01    1.837513e+01
  1.321263e+01    1.753663e+01
  1.322851e+01    1.585657e+01
  1.324438e+01    1.365199e+01
  1.326026e+01    1.145249e+01
  1.327614e+01    9.556880e+00
  1.329201e+01    8.074428e+00
  1.330789e+01    6.948240e+00
  1.332376e+01    6.105436e+00
  1.333964e+01    5.332598e+00
  1.335551e+01    4.763869e+00
  1.337139e+01    4.321576e+00
  1.338727e+01    3.974573e+00
  1.340314e+01    3.612695e+00
  1.341902e+01    3.424325e+00
  1.343489e+01    3.212441e+00
  1.345077e+01    3.084651e+00
  1.346664e+01    2.933271e+00
  1.348252e+01    2.855295e+00
  1.349839e+01    2.757993e+00
  1.351427e+01    2.698418e+00
  1.353015e+01    2.650384e+00
  1.354602e+01    2.560873e+00
  1.356190e+01    2.524152e+00
  1.357777e+01    2.497130e+00
  1.359365e+01    2.453163e+00
  1.360952e+01    2.399297e+00
  1.362540e+01    2.396133e+00
  1.364127e+01    2.346464e+00
  1.365715e+01    2.301752e+00
  1.367303e+01    2.291978e+00
  1.368890e+01    2.289791e+00
  1.370478e+01    2.245162e+00
  1.372065e+01    2.235200e+00
  1.373653e+01    2.226401e+00
  1.375240e+01    2.207341e+00
  1.376828e+01    2.166371e+00
  1.378415e+01    2.137333e+00
  1.380003e+01    2.148988e+00
  1.381591e+01    2.167130e+00
  1.383178e+01    2.117086e+00
  1.384766e+01    2.104281e+00
  1.386353e+01    2.124388e+00
  1.387941e+01    2.110636e+00
  1.389528e+01    2.102226e+00
  1.391116e+01    2.103633e+00
  1.392703e+01    2.075656e+00
  1.394291e+01    2.081151e+00
  1.395879e+01    2.075302e+00
  1.397466e+01    2.096843e+00
  1.399054e+01    2.096063e+00
  1.400641e+01    2.048256e+00
  1.402229e+01    2.040860e+00
  1.403816e+01    2.010968e+00
  1.405404e+01    2.013158e+00
  1.406991e+01    2.063013e+00
  1.408579e+01    2.052730e+00
  1.410167e+01    2.000820e+00
  1.411754e+01    1.989983e+00
  1.413342e+01    1.995730e+00
  1.414929e+01    2.017067e+00
  1.416517e+01    2.010769e+00
  1.418104e+01    2.019567e+00
  1.419692e+01    2.001885e+00
  1.421279e+01    1.981324e+00
  1.422867e+01    1.986652e+00
  1.424455e+01    1.985793e+00
  1.426042e+01    1.941560e+00
  1.427630e+01    1.958947e+00
  1.429217e+01    1.948818e+00
  1.430805e+01    1.909954e+00
  1.432392e+01    1.919463e+00
  1.433980e+01    1.935385e+00
  1.435568e+01    1.935831e+00
  1.437155e+01    1.942451e+00
  1.438743e+01    1.957825e+00
  1.440330e+01    1.937156e+00
  1.441918e+01    1.925631e+00
  1.443505e+01    1.926865e+00
  1.445093e+01    1.912589e+00
  1.446680e+01    1.877090e+00
  1.448268e+01    1.897192e+00
  1.449856e+01    1.888723e+00
  1.451443e+01    1.887011e+00
  1.453031e+01    1.920019e+00
  1.454618e+01    1.910320e+00
  1.456206e+01    1.927004e+00
  1.457793e+01    1.938517e+00
  1.459381e+01    1.878143e+00
  1.460968e+01    1.908088e+00
  1.462556e+01    1.925212e+00
  1.464144e+01    1.894451e+00
  1.465731e+01    1.902867e+00
  1.467319e+01    1.846398e+00
  1.468906e+01    1.844496e+00
  1.470494e+01    1.905839e+00
  1.472081e+01    1.878422e+00
  1.473669e+01    1.878582e+00
  1.475256e+01    1.899412e+00
  1.476844e+01    1.902492e+00
  1.478432e+01    1.938162e+00
  1.480019e+01    1.903454e+00
  1.481607e+01    1.869764e+00
  1.483194e+01    1.881744e+00
  1.484782e+01    1.915667e+00
  1.486369e+01    1.944890e+00
  1.487957e+01    1.979392e+00
  1.489544e+01    1.935809e+00
  1.491132e+01    1.937975e+00
  1.492720e+01    1.956394e+00
  1.494307e+01    1.977780e+00
  1.495895e+01    2.028761e+00
  1.497482e+01    2.084432e+00
  1.499070e+01    2.099876e+00
  1.500657e+01    2.134224e+00
  1.502245e+01    2.199671e+00
  1.503832e+01    2.288340e+00
  1.505420e+01    2.399204e+00
  1.507008e+01    2.462948e+00
  1.508595e+01    2.583151e+00
  1.510183e+01    2.838853e+00
  1.511770e+01    3.133245e+00
  1.513358e+01    3.375550e+00
  1.514945e+01    3.682905e+00
  1.516533e+01    4.076462e+00
  1.518120e+01    4.506360e+00
  1.519708e+01    4.884171e+00
  1.521296e+01    5.326571e+00
  1.522883e+01    5.587214e+00
  1.524471e+01    5.818339e+00
  1.526058e+01    6.059786e+00
  1.527646e+01    6.155917e+00
  1.529233e+01    6.078683e+00
  1.530821e+01    5.899550e+00
  1.532409e+01    5.454989e+00
  1.533996e+01    4.801680e+00
  1.535584e+01    4.285437e+00
  1.537171e+01    3.821014e+00
  1.538759e+01    3.435105e+00
  1.540346e+01    3.037470e+00
  1.541934e+01    2.740913e+00
  1.543521e+01    2.604599e+00
  1.545109e+01    2.458264e+00
  1.546697e+01    2.348527e+00
  1.548284e+01    2.187907e+00
  1.549872e+01    2.087052e+00
  1.551459e+01    2.073474e+00
  1.553047e+01    2.012593e+00
  1.554634e+01    1.992720e+00
  1.556222e+01    1.926908e+00
  1.557809e+01    1.882083e+00
  1.559397e+01    1.847730e+00
  1.560985e+01    1.845177e+00
  1.562572e+01    1.848099e+00
  1.564160e+01    1.783274e+00
  1.565747e+01    1.747347e+00
  1.567335e+01    1.776574e+00
  1.568922e+01    1.787592e+00
  1.570510e+01    1.770215e+00
  1.572097e+01    1.756191e+00
  1.573685e+01    1.697466e+00
  1.575273e+01    1.656315e+00
  1.576860e+01    1.707193e+00
  1.578448e+01    1.727383e+00
  1.580035e+01    1.660318e+00
  1.581623e+01    1.703619e+00
  1.583210e+01    1.690704e+00
  1.584798e+01    1.671310e+00
  1.586385e+01    1.648457e+00
  1.587973e+01    1.642531e+00
  1.589561e+01    1.657057e+00
  1.591148e+01    1.624289e+00
  1.592736e+01    1.607926e+00
  1.594323e+01    1.631955e+00
  1.595911e+01    1.644510e+00
  1.597498e+01    1.617937e+00
  1.599086e+01    1.604831e+00
  1.600673e+01    1.614262e+00
  1.602261e+01    1.612257e+00
  1.603849e+01    1.588836e+00
  1.605436e+01    1.584368e+00
  1.607024e+01    1.587254e+00
  1.608611e+01    1.598680e+00
  1.610199e+01    1.550351e+00
  1.611786e+01    1.569524e+00
  1.613374e+01    1.586990e+00
  1.614961e+01    1.590804e+00
  1.616549e+01    1.579760e+00
  1.618137e+01    1.544434e+00
  1.619724e+01    1.556567e+00
  1.621312e+01    1.520105e+00
  1.622899e+01    1.510751e+00
  1.624487e+01    1.543217e+00
  1.626074e+01    1.604815e+00
  1.627662e+01    1.549200e+00
  1.629250e+01    1.527043e+00
  1.630837e+01    1.531268e+00
  1.632425e+01    1.551290e+00
  1.634012e+01    1.551699e+00
  1.635600e+01    1.541432e+00
  1.637187e+01    1.538903e+00
  1.638775e+01    1.539935e+00
  1.640362e+01    1.547331e+00
  1.641950e+01    1.516518e+00
  1.643538e+01    1.497197e+00
  1.645125e+01    1.505722e+00
  1.646713e+01    1.492702e+00
  1.648300e+01    1.493942e+00
  1.649888e+01    1.513811e+00
  1.651475e+01    1.492417e+00
  1.653063e+01    1.486766e+00
  1.654650e+01    1.473262e+00
  1.656238e+01    1.468895e+00
  1.657826e+01    1.480548e+00
  1.659413e+01    1.458754e+00
  1.661001e+01    1.458040e+00
  1.662588e+01    1.495827e+00
  1.664176e+01    1.470385e+00
  1.665763e+01    1.452857e+00
  1.667351e+01    1.462816e+00
  1.668938e+01    1.450277e+00
  1.670526e+01    1.488866e+00
  1.672114e+01    1.467053e+00
  1.673701e+01    1.475308e+00
  1.675289e+01    1.464235e+00
  1.676876e+01    1.455967e+00
  1.678464e+01    1.468831e+00
  1.680051e+01    1.490981e+00
  1.681639e+01    1.468848e+00
  1.683226e+01    1.446242e+00
  1.684814e+01    1.440108e+00
  1.686402e+01    1.460671e+00
  1.687989e+01    1.456254e+00
  1.689577e+01    1.452340e+00
  1.691164e+01    1.453599e+00
  1.692752e+01    1.436394e+00
  1.694339e+01    1.454715e+00
  1.695927e+01    1.440271e+00
  1.697514e+01    1.412772e+00
  1.699102e+01    1.412188e+00
  1.700690e+01    1.411454e+00
  1.702277e+01    1.403570e+00
  1.703865e+01    1.425604e+00
  1.705452e+01    1.412361e+00
  1.707040e+01    1.420874e+00
  1.708627e+01    1.439526e+00
  1.710215e+01    1.399669e+00
  1.711802e+01    1.396969e+00
  1.713390e+01    1.397230e+00
  1.714978e+01    1.406033e+00
  1.716565e+01    1.378575e+00
  1.718153e+01    1.410876e+00
  1.719740e+01    1.431583e+00
  1.721328e+01    1.399420e+00
  1.722915e+01    1.363202e+00
  1.724503e+01    1.388685e+00
  1.726091e+01    1.385961e+00
  1.727678e+01    1.373307e+00
  1.729266e+01    1.346494e+00
  1.730853e+01    1.388055e+00
  1.732441e+01    1.382877e+00
  1.734028e+01    1.411840e+00
  1.735616e+01    1.383472e+00
  1.737203e+01    1.359779e+00
  1.738791e+01    1.349053e+00
  1.740379e+01    1.369107e+00
  1.741966e+01    1.375725e+00
  1.743554e+01    1.379791e+00
  1.745141e+01    1.363409e+00
  1.746729e+01    1.370970e+00
  1.748316e+01    1.400364e+00
  1.749904e+01    1.393707e+00
  1.751491e+01    1.332960e+00
  1.753079e+01    1.338788e+00
  1.754667e+01    1.321656e+00
  1.756254e+01    1.332602e+00
  1.757842e+01    1.353899e+00
  1.759429e+01    1.338820e+00
  1.761017e+01    1.343208e+00
  1.762604e+01    1.357523e+00
  1.764192e+01    1.351114e+00
  1.765779e+01    1.312454e+00
  1.767367e+01    1.334492e+00
  1.768955e+01    1.333800e+00
  1.770542e+01    1.303710e+00
  1.772130e+01    1.320629e+00
  1.773717e+01    1.334633e+00
  1.775305e+01    1.350078e+00
  1.776892e+01    1.325583e+00
  1.778480e+01    1.326629e+00
  1.780067e+01    1.329008e+00
  1.781655e+01    1.330638e+00
  1.783243e+01    1.307815e+00
  1.784830e+01    1.330141e+00
  1.786418e+01    1.308126e+00
  1.788005e+01    1.304311e+00
  1.789593e+01    1.316996e+00
  1.791180e+01    1.346187e+00
  1.792768e+01    1.325094e+00
  1.794355e+01    1.289318e+00
  1.795943e+01    1.302794e+00
  1.797531e+01    1.305276e+00
  1.799118e+01    1.298658e+00
  1.800706e+01    1.297157e+00
  1.802293e+01    1.281550e+00
  1.803881e+01    1.290612e+00
  1.805468e+01    1.289231e+00
  1.807056e+01    1.311786e+00
  1.808643e+01    1.316158e+00
  1.810231e+01    1.299632e+00
  1.811819e+01    1.290835e+00
  1.813406e+01    1.284698e+00
  1.814994e+01    1.277453e+00
  1.816581e+01    1.287725e+00
  1.818169e+01    1.270470e+00
  1.819756e+01    1.263710e+00
  1.821344e+01    1.277146e+00
  1.822932e+01    1.269704e+00
  1.824519e+01    1.271529e+00
  1.826107e+01    1.300334e+00
  1.827694e+01    1.285097e+00
  1.829282e+01    1.250202e+00
  1.830869e+01    1.220019e+00
  1.832457e+01    1.246114e+00
  1.834044e+01    1.273961e+00
  1.835632e+01    1.254887e+00
  1.837220e+01    1.237558e+00
  1.838807e+01    1.246682e+00
  1.840395e+01    1.241961e+00
  1.841982e+01    1.271164e+00
  1.843570e+01    1.276868e+00
  1.845157e+01    1.272067e+00
  1.846745e+01    1.260501e+00
  1.848332e+01    1.230418e+00
  1.849920e+01    1.263874e+00
  1.851508e+01    1.271036e+00
  1.853095e+01    1.248696e+00
  1.854683e+01    1.244938e+00
  1.856270e+01    1.231398e+00
  1.857858e+01    1.246019e+00
  1.859445e+01    1.242180e+00
  1.861033e+01    1.233463e+00
  1.862620e+01    1.258693e+00
  1.864208e+01    1.240779e+00
  1.865796e+01    1.221231e+00
  1.867383e+01    1.224149e+00
  1.868971e+01    1.252415e+00
  1.870558e+01    1.224367e+00
  1.872146e+01    1.207123e+00
  1.873733e+01    1.227363e+00
  1.875321e+01    1.207053e+00
  1.876908e+01    1.218415e+00
  1.878496e+01    1.240246e+00
  1.880084e+01    1.224541e+00
  1.881671e+01    1.211848e+00
  1.883259e+01    1.182838e+00
  1.884846e+01    1.192815e+00
  1.886434e+01    1.206584e+00
  1.888021e+01    1.191954e+00
  1.889609e+01    1.204860e+00
  1.891196e+01    1.191393e+00
  1.892784e+01    1.179554e+00
  1.894372e+01    1.185901e+00
  1.895959e+01    1.193156e+00
  1.897547e+01    1.192013e+00
  1.899134e+01    1.205624e+00
  1.900722e+01    1.201513e+00
  1.902309e+01    1.176908e+00
  1.903897e+01    1.175287e+00
  1.905484e+01    1.169381e+00
  1.907072e+01    1.178660e+00
  1.908660e+01    1.197869e+00
  1.910247e+01    1.202961e+00
  1.911835e+01    1.203633e+00
  1.913422e+01    1.197870e+00
  1.915010e+01    1.168748e+00
  1.916597e+01    1.180076e+00
  1.918185e+01    1.193927e+00
  1.919773e+01    1.176820e+00
  1.921360e+01    1.185659e+00
  1.922948e+01    1.172948e+00
  1.924535e+01    1.188886e+00
  1.926123e+01    1.183777e+00
  1.927710e+01    1.167683e+00
  1.929298e+01    1.174423e+00
  1.930885e+01    1.186513e+00
  1.932473e+01    1.178147e+00
  1.934061e+01    1.168172e+00
  1.935648e+01    1.186611e+00
  1.937236e+01    1.183669e+00
  1.938823e+01    1.158854e+00
  1.940411e+01    1.136094e+00
  1.941998e+01    1.145492e+00
  1.943586e+01    1.154803e+00
  1.945173e+01    1.157043e+00
  1.946761e+01    1.155903e+00
  1.948349e+01    1.162415e+00
  1.949936e+01    1.161328e+00
  1.951524e+01    1.143485e+00
  1.953111e+01    1.144455e+00
  1.954699e+01    1.161152e+00
  1.956286e+01    1.168373e+00
  1.957874e+01    1.134462e+00
  1.959461e+01    1.138823e+00
  1.961049e+01    1.137716e+00
  1.962637e+01    1.135912e+00
  1.964224e+01    1.120852e+00
  1.965812e+01    1.137317e+00
  1.967399e+01    1.153640e+00
  1.968987e+01    1.141152e+00
  1.970574e+01    1.142335e+00
  1.972162e+01    1.122000e+00
  1.973749e+01    1.136264e+00
  1.975337e+01    1.163432e+00
  1.976925e+01    1.161320e+00
  1.978512e+01    1.122851e+00
  1.980100e+01    1.140164e+00
  1.981687e+01    1.148225e+00
  1.983275e+01    1.126113e+00
  1.984862e+01    1.126056e+00
  1.986450e+01    1.131975e+00
  1.988037e+01    1.100975e+00
  1.989625e+01    1.096552e+00
  1.991213e+01    1.098484e+00
  1.992800e+01    1.120545e+00
  1.994388e+01    1.131056e+00
  1.995975e+01    1.120889e+00
  1.997563e+01    1.118246e+00
  1.999150e+01    1.101081e+00
  2.000738e+01    1.090568e+00
  2.002325e+01    1.091991e+00
  2.003913e+01    1.119215e+00
  2.005501e+01    1.121276e+00
  2.007088e+01    1.136533e+00
  2.008676e+01    1.097248e+00
  2.010263e+01    1.111395e+00
  2.011851e+01    1.113776e+00
  2.013438e+01    1.142469e+00
  2.015026e+01    1.123738e+00
  2.016614e+01    1.107405e+00
  2.018201e+01    1.084921e+00
  2.019789e+01    1.087656e+00
  2.021376e+01    1.084080e+00
  2.022964e+01    1.114785e+00
  2.024551e+01    1.135072e+00
  2.026139e+01    1.096878e+00
  2.027726e+01    1.099914e+00
  2.029314e+01    1.098099e+00
  2.030902e+01    1.088360e+00
  2.032489e+01    1.107244e+00
  2.034077e+01    1.121058e+00
  2.035664e+01    1.091417e+00
  2.037252e+01    1.096409e+00
  2.038839e+01    1.097876e+00
  2.040427e+01    1.088912e+00
  2.042014e+01    1.098161e+00
  2.043602e+01    1.085284e+00
  2.045190e+01    1.111839e+00
  2.046777e+01    1.115346e+00
  2.048365e+01    1.104838e+00
  2.049952e+01    1.090939e+00
  2.051540e+01    1.077196e+00
  2.053127e+01    1.074004e+00
  2.054715e+01    1.078577e+00
  2.056302e+01    1.079989e+00
  2.057890e+01    1.067598e+00
  2.059478e+01    1.092310e+00
  2.061065e+01    1.071344e+00
  2.062653e+01    1.068505e+00
  2.064240e+01    1.079615e+00
  2.065828e+01    1.089894e+00
  2.067415e+01    1.078799e+00
  2.069003e+01    1.066825e+00
  2.070590e+01    1.074397e+00
  2.072178e+01    1.068650e+00
  2.073766e+01    1.082376e+00
  2.075353e+01    1.070026e+00
  2.076941e+01    1.051136e+00
  2.078528e+01    1.050098e+00
  2.080116e+01    1.059527e+00
  2.081703e+01    1.035648e+00
  2.083291e+01    1.059314e+00
  2.084878e+01    1.076947e+00
  2.086466e+01    1.102713e+00
  2.088054e+01    1.076522e+00
  2.089641e+01    1.089755e+00
  2.091229e+01    1.087248e+00
  2.092816e+01    1.096767e+00
  2.094404e+01    1.089211e+00
  2.095991e+01    1.081383e+00
  2.097579e+01    1.086614e+00
  2.099166e+01    1.069626e+00
  2.100754e+01    1.079745e+00
  2.102342e+01    1.089501e+00
  2.103929e+01    1.073745e+00
  2.105517e+01    1.071009e+00
  2.107104e+01    1.081621e+00
  2.108692e+01    1.071413e+00
  2.110279e+01    1.086345e+00
  2.111867e+01    1.087831e+00
  2.113455e+01    1.098010e+00
  2.115042e+01    1.107035e+00
  2.116630e+01    1.086793e+00
  2.118217e+01    1.075319e+00
  2.119805e+01    1.097762e+00
  2.121392e+01    1.111888e+00
  2.122980e+01    1.096488e+00
  2.124567e+01    1.077182e+00
  2.126155e+01    1.108687e+00
  2.127743e+01    1.107138e+00
  2.129330e+01    1.108824e+00
  2.130918e+01    1.127307e+00
  2.132505e+01    1.114892e+00
  2.134093e+01    1.127943e+00
  2.135680e+01    1.143292e+00
  2.137268e+01    1.170093e+00
  2.138855e+01    1.183010e+00
  2.140443e+01    1.186375e+00
  2.142031e+01    1.197226e+00
  2.143618e+01    1.195154e+00
  2.145206e+01    1.218317e+00
  2.146793e+01    1.219177e+00
  2.148381e+01    1.239904e+00
  2.149968e+01    1.278723e+00
  2.151556e+01    1.299563e+00
  2.153143e+01    1.334387e+00
  2.154731e+01    1.354779e+00
  2.156319e+01    1.386132e+00
  2.157906e+01    1.425269e+00
  2.159494e+01    1.492749e+00
  2.161081e+01    1.561714e+00
  2.162669e+01    1.662455e+00
  2.164256e+01    1.783276e+00
  2.165844e+01    1.886716e+00
  2.167431e+01    2.022567e+00
  2.169019e+01    2.230872e+00
  2.170607e+01    2.439854e+00
  2.172194e+01    2.723626e+00
  2.173782e+01    3.038540e+00
  2.175369e+01    3.486815e+00
  2.176957e+01    3.977093e+00
  2.178544e+01    4.568341e+00
  2.180132e+01    5.271864e+00
  2.181719e+01    5.939313e+00
  2.183307e+01    6.778911e+00
  2.184895e+01    7.557429e+00
  2.186482e+01    8.330426e+00
  2.188070e+01    9.088972e+00
  2.189657e+01    9.727664e+00
  2.191245e+01    1.010051e+01
  2.192832e+01    1.000975e+01
  2.194420e+01    9.538733e+00
  2.196007e+01    8.623011e+00
  2.197595e+01    7.616356e+00
  2.199183e+01    6.517260e+00
  2.200770e+01    5.486062e+00
  2.202358e+01    4.632463e+00
  2.203945e+01    3.972799e+00
  2.205533e+01    3.425351e+00
  2.207120e+01    2.991033e+00
  2.208708e+01    2.640875e+00
  2.210296e+01    2.420465e+00
  2.211883e+01    2.232547e+00
  2.213471e+01    2.042207e+00
  2.215058e+01    1.859657e+00
  2.216646e+01    1.706279e+00
  2.218233e+01    1.644144e+00
  2.219821e+01    1.534065e+00
  2.221408e+01    1.470496e+00
  2.222996e+01    1.425207e+00
  2.224584e+01    1.380502e+00
  2.226171e+01    1.327641e+00
  2.227759e+01    1.280970e+00
  2.229346e+01    1.247454e+00
  2.230934e+01    1.237717e+00
  2.232521e+01    1.192396e+00
  2.234109e+01    1.173586e+00
  2.235696e+01    1.150967e+00
  2.237284e+01    1.156351e+00
  2.238872e+01    1.125957e+00
  2.240459e+01    1.104476e+00
  2.242047e+01    1.082262e+00
  2.243634e+01    1.098157e+00
  2.245222e+01    1.067356e+00
  2.246809e+01    1.044862e+00
  2.248397e+01    1.063022e+00
  2.249984e+01    1.049301e+00
  2.251572e+01    1.048908e+00
  2.253160e+01    1.026546e+00
  2.254747e+01    1.002593e+00
  2.256335e+01    1.008748e+00
  2.257922e+01    1.000558e+00
  2.259510e+01    9.880224e-01
  2.261097e+01    9.822582e-01
  2.262685e+01    9.826224e-01
  2.264272e+01    9.774719e-01
  2.265860e+01    9.553341e-01
  2.267448e+01    9.686918e-01
  2.269035e+01    9.709564e-01
  2.270623e+01    9.599201e-01
  2.272210e+01    9.529737e-01
  2.273798e+01    9.517815e-01
  2.275385e+01    9.465457e-01
  2.276973e+01    9.520639e-01
  2.278560e+01    9.385053e-01
  2.280148e+01    9.308817e-01
  2.281736e+01    9.361675e-01
  2.283323e+01    9.328969e-01
  2.284911e+01    9.373816e-01
  2.286498e+01    9.207347e-01
  2.288086e+01    9.313536e-01
  2.289673e+01    9.370729e-01
  2.291261e+01    9.181712e-01
  2.292848e+01    8.977631e-01
  2.294436e+01    8.924488e-01
  2.296024e+01    9.030890e-01
  2.297611e+01    8.833473e-01
  2.299199e+01    8.870655e-01
  2.300786e+01    9.115853e-01
  2.302374e+01    9.165947e-01
  2.303961e+01    9.053288e-01
  2.305549e+01    8.983150e-01
  2.307137e+01    9.034414e-01
  2.308724e+01    8.836200e-01
  2.310312e+01    8.754378e-01
  2.311899e+01    8.708612e-01
  2.313487e+01    8.713502e-01
  2.315074e+01    8.717442e-01
  2.316662e+01    8.923188e-01
  2.318249e+01    8.763653e-01
  2.319837e+01    8.665063e-01
  2.321425e+01    8.811375e-01
  2.323012e+01    8.788463e-01
  2.324600e+01    8.819323e-01
  2.326187e+01    8.552666e-01
  2.327775e+01    8.428171e-01
  2.329362e+01    8.638411e-01
  2.330950e+01    8.580831e-01
  2.332537e+01    8.573362e-01
  2.334125e+01    8.676153e-01
  2.335713e+01    8.669525e-01
  2.337300e+01    8.610893e-01
  2.338888e+01    8.466294e-01
  2.340475e+01    8.502004e-01
  2.342063e+01    8.614701e-01
  2.343650e+01    8.560455e-01
  2.345238e+01    8.497518e-01
  2.346825e+01    8.475218e-01
  2.348413e+01    8.474264e-01
  2.350001e+01    8.567044e-01
  2.351588e+01    8.518898e-01
  2.353176e+01    8.508250e-01
  2.354763e+01    8.569336e-01
  2.356351e+01    8.320169e-01
  2.357938e+01    8.496833e-01
  2.359526e+01    8.657187e-01
  2.361113e+01    8.430629e-01
  2.362701e+01    8.403326e-01
  2.364289e+01    8.491271e-01
  2.365876e+01    8.594432e-01
  2.367464e+01    8.240854e-01
  2.369051e+01    8.198834e-01
  2.370639e+01    8.226899e-01
  2.372226e+01    8.371489e-01
  2.373814e+01    8.181688e-01
  2.375401e+01    8.006865e-01
  2.376989e+01    8.115475e-01
  2.378577e+01    8.203639e-01
  2.380164e+01    8.096340e-01
  2.381752e+01    7.950402e-01
  2.383339e+01    8.026537e-01
  2.384927e+01    8.059837e-01
  2.386514e+01    8.189791e-01
  2.388102e+01    8.362016e-01
  2.389689e+01    7.911060e-01
  2.391277e+01    7.903783e-01
  2.392865e+01    7.821852e-01
  2.394452e+01    7.799352e-01
  2.396040e+01    7.883840e-01
  2.397627e+01    7.921777e-01
  2.399215e+01    7.819207e-01
  2.400802e+01    7.974336e-01
  2.402390e+01    7.950871e-01
  2.403978e+01    7.842571e-01
  2.405565e+01    7.831475e-01
  2.407153e+01    7.836617e-01
  2.408740e+01    7.801703e-01
  2.410328e+01    8.029310e-01
  2.411915e+01    7.872058e-01
  2.413503e+01    7.864545e-01
  2.415090e+01    7.825019e-01
  2.416678e+01    7.652556e-01
  2.418266e+01    7.874314e-01
  2.419853e+01    7.801204e-01
  2.421441e+01    7.628721e-01
  2.423028e+01    7.782029e-01
  2.424616e+01    7.984629e-01
  2.426203e+01    7.680363e-01
  2.427791e+01    7.754698e-01
  2.429378e+01    7.840744e-01
  2.430966e+01    7.808683e-01
  2.432554e+01    7.748303e-01
  2.434141e+01    7.687315e-01
  2.435729e+01    7.980415e-01
  2.437316e+01    7.873924e-01
  2.438904e+01    7.960146e-01
  2.440491e+01    7.830894e-01
  2.442079e+01    7.910234e-01
  2.443666e+01    7.942893e-01
  2.445254e+01    8.001677e-01
  2.446842e+01    8.008810e-01
  2.448429e+01    8.022143e-01
  2.450017e+01    7.915819e-01
  2.451604e+01    7.921892e-01
  2.453192e+01    8.074676e-01
  2.454779e+01    7.951492e-01
  2.456367e+01    7.969642e-01
  2.457954e+01    7.881638e-01
  2.459542e+01    7.819327e-01
  2.461130e+01    7.609876e-01
  2.462717e+01    7.798830e-01
  2.464305e+01    8.143454e-01
  2.465892e+01    7.988719e-01
  2.467480e+01    7.808153e-01
  2.469067e+01    7.829348e-01
  2.470655e+01    7.738740e-01
  2.472242e+01    8.010975e-01
  2.473830e+01    8.077703e-01
  2.475418e+01    8.031878e-01
  2.477005e+01    7.971790e-01
  2.478593e+01    7.809103e-01
  2.480180e+01    7.922888e-01
  2.481768e+01    8.053383e-01
  2.483355e+01    7.908087e-01
  2.484943e+01    7.899026e-01
  2.486530e+01    7.887039e-01
  2.488118e+01    7.935067e-01
  2.489706e+01    7.898704e-01
  2.491293e+01    7.871811e-01
  2.492881e+01    7.933268e-01
  2.494468e+01    8.022500e-01
  2.496056e+01    7.875455e-01
  2.497643e+01    7.838950e-01
  2.499231e+01    8.105084e-01
  2.500819e+01    8.203035e-01
  2.502406e+01    7.955276e-01
  2.503994e+01    8.255364e-01
  2.505581e+01    8.101899e-01
  2.507169e+01    7.912041e-01
  2.508756e+01    8.120911e-01
  2.510344e+01    8.013507e-01
  2.511931e+01    7.984104e-01
  2.513519e+01    8.004383e-01
  2.515107e+01    8.128828e-01
  2.516694e+01    8.224638e-01
  2.518282e+01    8.332068e-01
  2.519869e+01    8.194706e-01
  2.521457e+01    8.245224e-01
  2.523044e+01    8.356922e-01
  2.524632e+01    8.428315e-01
  2.526219e+01    8.750849e-01
  2.527807e+01    8.620501e-01
  2.529395e+01    8.562897e-01
  2.530982e+01    8.597214e-01
  2.532570e+01    8.530931e-01
  2.534157e+01    8.574117e-01
  2.535745e+01    8.675509e-01
  2.537332e+01    8.694373e-01
  2.538920e+01    8.855416e-01
  2.540507e+01    8.916855e-01
  2.542095e+01    9.080105e-01
  2.543683e+01    9.042569e-01
  2.545270e+01    9.422272e-01
  2.546858e+01    9.300685e-01
  2.548445e+01    9.539145e-01
  2.550033e+01    9.798245e-01
  2.551620e+01    9.944599e-01
  2.553208e+01    9.996917e-01
  2.554795e+01    1.002223e+00
  2.556383e+01    1.036599e+00
  2.557971e+01    1.032716e+00
  2.559558e+01    1.059078e+00
  2.561146e+01    1.121952e+00
  2.562733e+01    1.164023e+00
  2.564321e+01    1.202906e+00
  2.565908e+01    1.262629e+00
  2.567496e+01    1.309235e+00
  2.569083e+01    1.371603e+00
  2.570671e+01    1.446017e+00
  2.572259e+01    1.544736e+00
  2.573846e+01    1.668738e+00
  2.575434e+01    1.797646e+00
  2.577021e+01    1.991126e+00
  2.578609e+01    2.178623e+00
  2.580196e+01    2.434950e+00
  2.581784e+01    2.698855e+00
  2.583371e+01    3.104778e+00
  2.584959e+01    3.533936e+00
  2.586547e+01    4.076507e+00
  2.588134e+01    4.695208e+00
  2.589722e+01    5.349499e+00
  2.591309e+01    6.044271e+00
  2.592897e+01    6.762869e+00
  2.594484e+01    7.440759e+00
  2.596072e+01    8.010138e+00
  2.597660e+01    8.347340e+00
  2.599247e+01    8.324230e+00
  2.600835e+01    8.036735e+00
  2.602422e+01    7.454404e+00
  2.604010e+01    6.623353e+00
  2.605597e+01    5.728231e+00
  2.607185e+01    4.958173e+00
  2.608772e+01    4.259979e+00
  2.610360e+01    3.655299e+00
  2.611948e+01    3.117272e+00
  2.613535e+01    2.697320e+00
  2.615123e+01    2.437516e+00
  2.616710e+01    2.181680e+00
  2.618298e+01    1.956329e+00
  2.619885e+01    1.823004e+00
  2.621473e+01    1.687095e+00
  2.623060e+01    1.565634e+00
  2.624648e+01    1.452326e+00
  2.626236e+01    1.374228e+00
  2.627823e+01    1.324986e+00
  2.629411e+01    1.286300e+00
  2.630998e+01    1.196340e+00
  2.632586e+01    1.155937e+00
  2.634173e+01    1.103613e+00
  2.635761e+01    1.087567e+00
  2.637348e+01    1.069928e+00
  2.638936e+01    1.042853e+00
  2.640524e+01    1.006548e+00
  2.642111e+01    1.002657e+00
  2.643699e+01    1.000887e+00
  2.645286e+01    1.011382e+00
  2.646874e+01    9.857391e-01
  2.648461e+01    9.649287e-01
  2.650049e+01    9.331640e-01
  2.651636e+01    9.562442e-01
  2.653224e+01    9.515164e-01
  2.654812e+01    9.244093e-01
  2.656399e+01    9.344727e-01
  2.657987e+01    9.194857e-01
  2.659574e+01    8.996764e-01
  2.661162e+01    8.963247e-01
  2.662749e+01    9.044957e-01
  2.664337e+01    8.821118e-01
  2.665924e+01    9.076869e-01
  2.667512e+01    9.135811e-01
  2.669100e+01    9.020690e-01
  2.670687e+01    9.195956e-01
  2.672275e+01    9.204847e-01
  2.673862e+01    9.062254e-01
  2.675450e+01    9.097941e-01
  2.677037e+01    8.789810e-01
  2.678625e+01    8.999537e-01
  2.680212e+01    9.079945e-01
  2.681800e+01    9.184367e-01
  2.683388e+01    9.018003e-01
  2.684975e+01    9.000130e-01
  2.686563e+01    8.926323e-01
  2.688150e+01    9.168335e-01
  2.689738e+01    9.151076e-01
  2.691325e+01    9.137024e-01
  2.692913e+01    9.120558e-01
  2.694501e+01    9.240118e-01
  2.696088e+01    9.613924e-01
  2.697676e+01    9.588880e-01
  2.699263e+01    9.804026e-01
  2.700851e+01    1.022599e+00
  2.702438e+01    1.046130e+00
  2.704026e+01    1.083307e+00
  2.705613e+01    1.140004e+00
  2.707201e+01    1.176647e+00
  2.708789e+01    1.258936e+00
  2.710376e+01    1.329368e+00
  2.711964e+01    1.418990e+00
  2.713551e+01    1.537880e+00
  2.715139e+01    1.701251e+00
  2.716726e+01    1.870149e+00
  2.718314e+01    1.984592e+00
  2.719901e+01    2.158610e+00
  2.721489e+01    2.300487e+00
  2.723077e+01    2.374211e+00
  2.724664e+01    2.382494e+00
  2.726252e+01    2.364604e+00
  2.727839e+01    2.283326e+00
  2.729427e+01    2.136631e+00
  2.731014e+01    1.959747e+00
  2.732602e+01    1.774326e+00
  2.734189e+01    1.612576e+00
  2.735777e+01    1.483811e+00
  2.737365e+01    1.374191e+00
  2.738952e+01    1.256643e+00
  2.740540e+01    1.193552e+00
  2.742127e+01    1.140972e+00
  2.743715e+01    1.096558e+00
  2.745302e+01    1.032503e+00
  2.746890e+01    1.005068e+00
  2.748477e+01    9.508285e-01
  2.750065e+01    9.460916e-01
  2.751653e+01    9.251238e-01
  2.753240e+01    8.961711e-01
  2.754828e+01    9.033855e-01
  2.756415e+01    8.946407e-01
  2.758003e+01    8.815748e-01
  2.759590e+01    8.679070e-01
  2.761178e+01    8.587062e-01
  2.762765e+01    8.656872e-01
  2.764353e+01    8.544156e-01
  2.765941e+01    8.533131e-01
  2.767528e+01    8.350115e-01
  2.769116e+01    8.555591e-01
  2.770703e+01    8.554409e-01
  2.772291e+01    8.323669e-01
  2.773878e+01    8.348616e-01
  2.775466e+01    8.300015e-01
  2.777054e+01    8.176660e-01
  2.778641e+01    8.328598e-01
  2.780229e+01    8.311026e-01
  2.781816e+01    8.090229e-01
  2.783404e+01    7.865784e-01
  2.784991e+01    8.076163e-01
  2.786579e+01    8.147402e-01
  2.788166e+01    8.021263e-01
  2.789754e+01    8.063981e-01
  2.791342e+01    8.025591e-01
  2.792929e+01    7.741042e-01
  2.794517e+01    7.725381e-01
  2.796104e+01    7.946421e-01
  2.797692e+01    8.028938e-01
  2.799279e+01    8.101700e-01
  2.800867e+01    7.956362e-01
  2.802454e+01    7.902883e-01
  2.804042e+01    7.703469e-01
  2.805630e+01    7.721549e-01
  2.807217e+01    7.794182e-01
  2.808805e+01    7.811024e-01
  2.810392e+01    7.789069e-01
  2.811980e+01    7.881012e-01
  2.813567e+01    7.906069e-01
  2.815155e+01    7.883653e-01
  2.816742e+01    7.842541e-01
  2.818330e+01    7.816415e-01
  2.819918e+01    7.783267e-01
  2.821505e+01    7.566713e-01
  2.823093e+01    7.764062e-01
  2.824680e+01    7.811686e-01
  2.826268e+01    7.677464e-01
  2.827855e+01    7.811818e-01
  2.829443e+01    7.828943e-01
  2.831030e+01    7.762531e-01
  2.832618e+01    7.582282e-01
  2.834206e+01    7.970133e-01
  2.835793e+01    7.884536e-01
  2.837381e+01    7.462600e-01
  2.838968e+01    7.632787e-01
  2.840556e+01    7.965435e-01
  2.842143e+01    7.728197e-01
  2.843731e+01    7.647566e-01
  2.845318e+01    7.745060e-01
  2.846906e+01    7.623147e-01
  2.848494e+01    7.626905e-01
  2.850081e+01    7.478184e-01
  2.851669e+01    7.601831e-01
  2.853256e+01    7.428029e-01
  2.854844e+01    7.654887e-01
  2.856431e+01    7.589995e-01
  2.858019e+01    7.662354e-01
  2.859606e+01    7.685062e-01
  2.861194e+01    7.478143e-01
  2.862782e+01    7.378270e-01
  2.864369e+01    7.425109e-01
  2.865957e+01    7.433473e-01
  2.867544e+01    7.487218e-01
  2.869132e+01    7.338732e-01
  2.870719e+01    7.374941e-01
  2.872307e+01    7.583823e-01
  2.873895e+01    7.775599e-01
  2.875482e+01    7.544109e-01
  2.877070e+01    7.573604e-01
  2.878657e+01    7.601163e-01
  2.880245e+01    7.555637e-01
  2.881832e+01    7.576017e-01
  2.883420e+01    7.253457e-01
  2.885007e+01    7.127460e-01
  2.886595e+01    7.415528e-01
  2.888183e+01    7.462666e-01
  2.889770e+01    7.426917e-01
  2.891358e+01    7.557899e-01
  2.892945e+01    7.505901e-01
  2.894533e+01    7.175338e-01
  2.896120e+01    7.431706e-01
  2.897708e+01    7.399916e-01
  2.899295e+01    7.491341e-01
  2.900883e+01    7.306995e-01
  2.902471e+01    7.107120e-01
  2.904058e+01    7.361538e-01
  2.905646e+01    7.276445e-01
  2.907233e+01    7.086605e-01
  2.908821e+01    7.367668e-01
  2.910408e+01    7.440583e-01
  2.911996e+01    7.498603e-01
  2.913583e+01    7.370602e-01
  2.915171e+01    7.376866e-01
  2.916759e+01    7.493314e-01
  2.918346e+01    7.678332e-01
  2.919934e+01    7.514047e-01
  2.921521e+01    7.275179e-01
  2.923109e+01    7.354130e-01
  2.924696e+01    7.183213e-01
  2.926284e+01    7.109624e-01
  2.927871e+01    7.247568e-01
  2.929459e+01    7.204354e-01
  2.931047e+01    7.311340e-01
  2.932634e+01    7.308217e-01
  2.934222e+01    7.159950e-01
  2.935809e+01    7.300607e-01
  2.937397e+01    7.340499e-01
  2.938984e+01    7.410856e-01
  2.940572e+01    7.390770e-01
  2.942159e+01    7.125728e-01
  2.943747e+01    7.270111e-01
  2.945335e+01    7.156923e-01
  2.946922e+01    7.168616e-01
  2.948510e+01    7.262993e-01
  2.950097e+01    7.364925e-01
  2.951685e+01    7.301348e-01
  2.953272e+01    7.158199e-01
  2.954860e+01    7.364377e-01
  2.956447e+01    7.345620e-01
  2.958035e+01    7.273251e-01
  2.959623e+01    7.274297e-01
  2.961210e+01    7.335259e-01
  2.962798e+01    7.029284e-01
  2.964385e+01    6.951659e-01
  2.965973e+01    7.101167e-01
  2.967560e+01    7.305902e-01
  2.969148e+01    7.145163e-01
  2.970736e+01    7.234135e-01
  2.972323e+01    7.166107e-01
  2.973911e+01    7.173148e-01
  2.975498e+01    7.119749e-01
  2.977086e+01    7.013559e-01
  2.978673e+01    7.176880e-01
  2.980261e+01    7.023737e-01
  2.981848e+01    7.278476e-01
  2.983436e+01    7.179506e-01
  2.985024e+01    7.173740e-01
  2.986611e+01    7.459431e-01
  2.988199e+01    7.410108e-01
  2.989786e+01    7.121190e-01
  2.991374e+01    7.119039e-01
  2.992961e+01    7.209207e-01
  2.994549e+01    7.291843e-01
  2.996136e+01    7.217706e-01
  2.997724e+01    7.271907e-01
  2.999312e+01    7.407534e-01
  3.000899e+01    7.361844e-01
  3.002487e+01    7.397324e-01
  3.004074e+01    7.302574e-01
  3.005662e+01    7.349743e-01
  3.007249e+01    7.402562e-01
  3.008837e+01    7.307398e-01
  3.010424e+01    7.305468e-01
  3.012012e+01    7.221379e-01
  3.013600e+01    7.209643e-01
  3.015187e+01    7.115391e-01
  3.016775e+01    7.326342e-01
  3.018362e+01    7.060117e-01
  3.019950e+01    7.169484e-01
  3.021537e+01    7.335340e-01
  3.023125e+01    7.117525e-01
  3.024712e+01    7.122100e-01
  3.026300e+01    7.108375e-01
  3.027888e+01    7.120755e-01
  3.029475e+01    7.142875e-01
  3.031063e+01    7.152199e-01
  3.032650e+01    7.021127e-01
  3.034238e+01    7.319236e-01
  3.035825e+01    6.965787e-01
  3.037413e+01    7.140303e-01
  3.039000e+01    7.171860e-01
  3.040588e+01    6.944748e-01
  3.042176e+01    7.051598e-01
  3.043763e+01    7.122790e-01
  3.045351e+01    7.222683e-01
  3.046938e+01    7.173871e-01
  3.048526e+01    7.170281e-01
  3.050113e+01    7.129951e-01
  3.051701e+01    7.326176e-01
  3.053288e+01    7.347705e-01
  3.054876e+01    7.163607e-01
  3.056464e+01    6.797138e-01
  3.058051e+01    7.176093e-01
  3.059639e+01    7.288992e-01
  3.061226e+01    7.071928e-01
  3.062814e+01    7.024370e-01
  3.064401e+01    7.297831e-01
  3.065989e+01    7.019783e-01
  3.067577e+01    7.033658e-01
  3.069164e+01    7.177902e-01
  3.070752e+01    7.229850e-01
  3.072339e+01    6.994414e-01
  3.073927e+01    7.120169e-01
  3.075514e+01    7.059951e-01
  3.077102e+01    7.120812e-01
  3.078689e+01    7.044818e-01
  3.080277e+01    7.308111e-01
  3.081865e+01    7.170974e-01
  3.083452e+01    7.028969e-01
  3.085040e+01    7.192962e-01
  3.086627e+01    7.313415e-01
  3.088215e+01    7.026458e-01
  3.089802e+01    6.985044e-01
  3.091390e+01    7.085627e-01
  3.092977e+01    7.288895e-01
  3.094565e+01    7.256760e-01
  3.096153e+01    7.169454e-01
  3.097740e+01    7.204352e-01
  3.099328e+01    7.143906e-01
  3.100915e+01    7.194574e-01
  3.102503e+01    7.170346e-01
  3.104090e+01    6.995344e-01
  3.105678e+01    7.052147e-01
  3.107265e+01    7.294746e-01
  3.108853e+01    7.438546e-01
  3.110441e+01    7.239881e-01
  3.112028e+01    7.425162e-01
  3.113616e+01    7.157333e-01
  3.115203e+01    7.230722e-01
  3.116791e+01    7.221080e-01
  3.118378e+01    7.079238e-01
  3.119966e+01    7.164304e-01
  3.121553e+01    7.156917e-01
  3.123141e+01    7.071152e-01
  3.124729e+01    7.283974e-01
  3.126316e+01    7.268027e-01
  3.127904e+01    7.325352e-01
  3.129491e+01    7.190773e-01
  3.131079e+01    7.291713e-01
  3.132666e+01    7.519067e-01
  3.134254e+01    7.451105e-01
  3.135841e+01    7.303548e-01
  3.137429e+01    7.401885e-01
  3.139017e+01    7.533599e-01
  3.140604e+01    7.442656e-01
  3.142192e+01    7.457374e-01
  3.143779e+01    7.686129e-01
  3.145367e+01    7.581710e-01
  3.146954e+01    7.629454e-01
  3.148542e+01    7.845211e-01
  3.150129e+01    7.672689e-01
  3.151717e+01    7.985809e-01
  3.153305e+01    7.787548e-01
  3.154892e+01    8.011211e-01
  3.156480e+01    8.041455e-01
  3.158067e+01    8.134068e-01
  3.159655e+01    8.173650e-01
  3.161242e+01    8.286167e-01
  3.162830e+01    8.466028e-01
  3.164418e+01    8.692021e-01
  3.166005e+01    8.613563e-01
  3.167593e+01    8.757199e-01
  3.169180e+01    9.145948e-01
  3.170768e+01    9.396021e-01
  3.172355e+01    9.717961e-01
  3.173943e+01    1.002762e+00
  3.175530e+01    1.069214e+00
  3.177118e+01    1.113648e+00
  3.178706e+01    1.209904e+00
  3.180293e+01    1.286478e+00
  3.181881e+01    1.413277e+00
  3.183468e+01    1.527950e+00
  3.185056e+01    1.655936e+00
  3.186643e+01    1.843727e+00
  3.188231e+01    2.040303e+00
  3.189818e+01    2.215289e+00
  3.191406e+01    2.318502e+00
  3.192994e+01    2.400198e+00
  3.194581e+01    2.416640e+00
  3.196169e+01    2.368603e+00
  3.197756e+01    2.231493e+00
  3.199344e+01    2.054007e+00
  3.200931e+01    1.860777e+00
  3.202519e+01    1.679518e+00
  3.204106e+01    1.550815e+00
  3.205694e+01    1.398610e+00
  3.207282e+01    1.244910e+00
  3.208869e+01    1.165833e+00
  3.210457e+01    1.086440e+00
  3.212044e+01    1.025948e+00
  3.213632e+01    9.958484e-01
  3.215219e+01    9.836154e-01
  3.216807e+01    9.321455e-01
  3.218394e+01    8.952391e-01
  3.219982e+01    8.598870e-01
  3.221570e+01    8.460576e-01
  3.223157e+01    8.275992e-01
  3.224745e+01    8.090678e-01
  3.226332e+01    7.935274e-01
  3.227920e+01    8.122867e-01
  3.229507e+01    8.102716e-01
  3.231095e+01    7.871749e-01
  3.232682e+01    7.753835e-01
  3.234270e+01    7.583457e-01
  3.235858e+01    7.608918e-01
  3.237445e+01    7.504504e-01
  3.239033e+01    7.349561e-01
  3.240620e+01    7.528917e-01
  3.242208e+01    7.416371e-01
  3.243795e+01    7.501248e-01
  3.245383e+01    7.406561e-01
  3.246970e+01    7.252744e-01
  3.248558e+01    7.313696e-01
  3.250146e+01    7.358864e-01
  3.251733e+01    7.154524e-01
  3.253321e+01    7.125497e-01
  3.254908e+01    7.345510e-01
