# == pyFAI calibration ==
# Distance Sample to Detector: 0.3999999939076516 m
# PONI: 9.750e-02, 1.135e-01 m
# Rotations: -0.000175 0.000000 -0.000000 rad
# 
# == Fit2d calibration ==
# Distance Sample-beamCenter: 400.000 mm
# Center: x=1514.000, y=1300.000 pix
# Tilt: 0.010 deg  TiltPlanRot: 0.010 deg
# 
# Detector Detector	 Spline= None	 PixelSize= 7.500e-05, 7.500e-05 m
#    Detector has a mask: False 
#    Detector has a dark current: False 
#    detector has a flat field: False 
# 
# Wavelength: 6.888e-11 m
# Mask applied: user provided
# Dark current applied: False
# Flat field applied: False
# Polarization factor: 0.99
# Normalization factor: 1.0
# --> /home/myspot/data/2024_07_Rosario/Ru-CGO-ex/2024-07-27_002_Ru-CGO-ex_Activtation_ramp_000002_data_000100.dat
#       q_nm^-1             I 
  2.003187e-02    7.711350e-02
  3.590745e-02    1.700931e-01
  5.178302e-02    2.140391e-01
  6.765859e-02    1.385456e-01
  8.353417e-02    2.737082e-02
  9.940974e-02    1.569103e-02
  1.152853e-01    3.506564e-02
  1.311609e-01    5.590411e-03
  1.470365e-01    7.195316e-02
  1.629120e-01    4.925435e-02
  1.787876e-01    3.829809e-02
  1.946632e-01    2.985381e-02
  2.105388e-01    7.135524e-02
  2.264143e-01    6.754526e-02
  2.422899e-01    5.259097e-02
  2.581655e-01    4.766188e-02
  2.740411e-01    2.824092e-02
  2.899166e-01    3.711293e-02
  3.057922e-01    5.870844e-02
  3.216678e-01    8.437383e-02
  3.375433e-01    6.103101e-02
  3.534189e-01    4.895961e-02
  3.692945e-01    3.860776e-02
  3.851701e-01    3.851529e-02
  4.010456e-01    7.183078e-02
  4.169212e-01    7.513934e-02
  4.327968e-01    3.772973e-02
  4.486724e-01    4.211409e-02
  4.645479e-01    4.847341e-02
  4.804235e-01    6.027686e-02
  4.962991e-01    5.335521e-02
  5.121747e-01    4.286497e-02
  5.280502e-01    2.517129e-02
  5.439258e-01    2.666471e-02
  5.598014e-01    2.878056e-02
  5.756770e-01    2.178422e-02
  5.915525e-01    3.604723e-02
  6.074281e-01    5.497947e-02
  6.233037e-01    5.331804e-02
  6.391793e-01    5.159811e-02
  6.550548e-01    3.416028e-02
  6.709304e-01    4.353201e-02
  6.868060e-01    6.006486e-02
  7.026815e-01    6.113331e-02
  7.185571e-01    4.139500e-02
  7.344327e-01    4.232655e-02
  7.503083e-01    5.293249e-02
  7.661838e-01    6.103335e-02
  7.820594e-01    1.199771e-01
  7.979350e-01    1.417667e-01
  8.138106e-01    2.409829e-01
  8.296861e-01    3.155365e-01
  8.455617e-01    3.203036e-01
  8.614373e-01    3.230437e-01
  8.773129e-01    3.940044e-01
  8.931884e-01    5.388747e-01
  9.090640e-01    6.238786e-01
  9.249396e-01    6.526326e-01
  9.408152e-01    7.229872e-01
  9.566907e-01    7.361887e-01
  9.725663e-01    8.254639e-01
  9.884419e-01    8.407421e-01
  1.004317e+00    9.466382e-01
  1.020193e+00    1.049310e+00
  1.036069e+00    1.189350e+00
  1.051944e+00    1.239098e+00
  1.067820e+00    1.354718e+00
  1.083695e+00    1.332786e+00
  1.099571e+00    1.246156e+00
  1.115446e+00    1.269069e+00
  1.131322e+00    1.454507e+00
  1.147198e+00    1.546043e+00
  1.163073e+00    1.498816e+00
  1.178949e+00    1.616803e+00
  1.194824e+00    1.615001e+00
  1.210700e+00    1.779898e+00
  1.226575e+00    2.027336e+00
  1.242451e+00    2.258445e+00
  1.258327e+00    2.343240e+00
  1.274202e+00    2.388345e+00
  1.290078e+00    2.397390e+00
  1.305953e+00    2.498383e+00
  1.321829e+00    2.598880e+00
  1.337705e+00    2.523237e+00
  1.353580e+00    2.531843e+00
  1.369456e+00    2.536940e+00
  1.385331e+00    2.593990e+00
  1.401207e+00    2.593495e+00
  1.417082e+00    2.504179e+00
  1.432958e+00    2.628230e+00
  1.448834e+00    2.661235e+00
  1.464709e+00    2.743677e+00
  1.480585e+00    2.828211e+00
  1.496460e+00    2.917353e+00
  1.512336e+00    2.850341e+00
  1.528211e+00    2.954159e+00
  1.544087e+00    2.987283e+00
  1.559963e+00    2.893137e+00
  1.575838e+00    2.902918e+00
  1.591714e+00    2.867990e+00
  1.607589e+00    2.840835e+00
  1.623465e+00    2.729021e+00
  1.639340e+00    2.825463e+00
  1.655216e+00    2.890856e+00
  1.671092e+00    2.878058e+00
  1.686967e+00    2.916392e+00
  1.702843e+00    2.858672e+00
  1.718718e+00    2.721483e+00
  1.734594e+00    2.756508e+00
  1.750469e+00    2.822310e+00
  1.766345e+00    2.760085e+00
  1.782221e+00    2.733703e+00
  1.798096e+00    2.840916e+00
  1.813972e+00    2.880386e+00
  1.829847e+00    2.735642e+00
  1.845723e+00    2.691401e+00
  1.861598e+00    2.599096e+00
  1.877474e+00    2.694955e+00
  1.893350e+00    2.802520e+00
  1.909225e+00    2.887417e+00
  1.925101e+00    2.911813e+00
  1.940976e+00    2.740792e+00
  1.956852e+00    2.642199e+00
  1.972727e+00    2.691690e+00
  1.988603e+00    2.650926e+00
  2.004479e+00    2.739544e+00
  2.020354e+00    2.780120e+00
  2.036230e+00    2.766162e+00
  2.052105e+00    2.753123e+00
  2.067981e+00    2.729693e+00
  2.083856e+00    2.861246e+00
  2.099732e+00    2.803644e+00
  2.115608e+00    2.799389e+00
  2.131483e+00    2.661458e+00
  2.147359e+00    2.709904e+00
  2.163234e+00    2.662020e+00
  2.179110e+00    2.705297e+00
  2.194985e+00    2.737875e+00
  2.210861e+00    2.647427e+00
  2.226737e+00    2.633354e+00
  2.242612e+00    2.632288e+00
  2.258488e+00    2.591915e+00
  2.274363e+00    2.642580e+00
  2.290239e+00    2.727396e+00
  2.306115e+00    2.740701e+00
  2.321990e+00    2.714064e+00
  2.337866e+00    2.676037e+00
  2.353741e+00    2.707419e+00
  2.369617e+00    2.615641e+00
  2.385492e+00    2.670962e+00
  2.401368e+00    2.616978e+00
  2.417244e+00    2.688452e+00
  2.433119e+00    2.862879e+00
  2.448995e+00    2.740705e+00
  2.464870e+00    2.678068e+00
  2.480746e+00    2.685189e+00
  2.496621e+00    2.847355e+00
  2.512497e+00    2.819664e+00
  2.528373e+00    2.787934e+00
  2.544248e+00    2.805395e+00
  2.560124e+00    2.803238e+00
  2.575999e+00    2.756123e+00
  2.591875e+00    2.769440e+00
  2.607750e+00    2.761058e+00
  2.623626e+00    2.767808e+00
  2.639502e+00    2.893463e+00
  2.655377e+00    2.960947e+00
  2.671253e+00    2.800545e+00
  2.687128e+00    2.679610e+00
  2.703004e+00    2.787402e+00
  2.718879e+00    2.787375e+00
  2.734755e+00    2.714903e+00
  2.750631e+00    2.811980e+00
  2.766506e+00    2.792489e+00
  2.782382e+00    2.763355e+00
  2.798257e+00    2.695101e+00
  2.814133e+00    2.762070e+00
  2.830008e+00    2.890172e+00
  2.845884e+00    2.852317e+00
  2.861760e+00    2.768454e+00
  2.877635e+00    2.853075e+00
  2.893511e+00    2.905192e+00
  2.909386e+00    2.801601e+00
  2.925262e+00    2.733242e+00
  2.941137e+00    2.836267e+00
  2.957013e+00    2.903615e+00
  2.972889e+00    2.873257e+00
  2.988764e+00    2.940559e+00
  3.004640e+00    2.896688e+00
  3.020515e+00    2.894799e+00
  3.036391e+00    2.937076e+00
  3.052266e+00    2.887601e+00
  3.068142e+00    2.827444e+00
  3.084018e+00    2.784496e+00
  3.099893e+00    2.836367e+00
  3.115769e+00    2.896771e+00
  3.131644e+00    2.858202e+00
  3.147520e+00    2.897048e+00
  3.163395e+00    2.763275e+00
  3.179271e+00    2.802303e+00
  3.195147e+00    2.924281e+00
  3.211022e+00    2.845911e+00
  3.226898e+00    2.881370e+00
  3.242773e+00    2.969410e+00
  3.258649e+00    2.979476e+00
  3.274525e+00    2.814634e+00
  3.290400e+00    2.821983e+00
  3.306276e+00    2.858410e+00
  3.322151e+00    2.866014e+00
  3.338027e+00    2.892935e+00
  3.353902e+00    2.871514e+00
  3.369778e+00    2.883378e+00
  3.385654e+00    2.889636e+00
  3.401529e+00    2.925874e+00
  3.417405e+00    2.860672e+00
  3.433280e+00    2.899426e+00
  3.449156e+00    2.913384e+00
  3.465031e+00    2.877074e+00
  3.480907e+00    2.918661e+00
  3.496783e+00    2.889774e+00
  3.512658e+00    2.927855e+00
  3.528534e+00    2.928391e+00
  3.544409e+00    2.913884e+00
  3.560285e+00    2.903066e+00
  3.576160e+00    2.918820e+00
  3.592036e+00    2.937707e+00
  3.607912e+00    3.007217e+00
  3.623787e+00    2.962983e+00
  3.639663e+00    2.924144e+00
  3.655538e+00    2.892909e+00
  3.671414e+00    2.907491e+00
  3.687289e+00    2.922434e+00
  3.703165e+00    2.925210e+00
  3.719041e+00    3.017025e+00
  3.734916e+00    3.006649e+00
  3.750792e+00    2.947677e+00
  3.766667e+00    2.949557e+00
  3.782543e+00    2.987054e+00
  3.798418e+00    2.961453e+00
  3.814294e+00    3.042568e+00
  3.830170e+00    3.048024e+00
  3.846045e+00    2.968969e+00
  3.861921e+00    2.963732e+00
  3.877796e+00    2.999376e+00
  3.893672e+00    2.972292e+00
  3.909547e+00    3.004442e+00
  3.925423e+00    2.943418e+00
  3.941299e+00    2.966152e+00
  3.957174e+00    2.930819e+00
  3.973050e+00    2.930687e+00
  3.988925e+00    2.930471e+00
  4.004801e+00    2.903760e+00
  4.020676e+00    3.017357e+00
  4.036552e+00    2.997138e+00
  4.052428e+00    2.947479e+00
  4.068303e+00    2.975550e+00
  4.084179e+00    3.014497e+00
  4.100054e+00    2.966041e+00
  4.115930e+00    2.968106e+00
  4.131806e+00    2.977200e+00
  4.147681e+00    3.069647e+00
  4.163557e+00    3.088973e+00
  4.179432e+00    3.058053e+00
  4.195308e+00    3.027652e+00
  4.211183e+00    3.031477e+00
  4.227059e+00    3.015697e+00
  4.242935e+00    3.058435e+00
  4.258810e+00    3.067802e+00
  4.274686e+00    3.052068e+00
  4.290561e+00    3.041781e+00
  4.306437e+00    2.971578e+00
  4.322312e+00    2.994149e+00
  4.338188e+00    3.057030e+00
  4.354064e+00    3.008581e+00
  4.369939e+00    3.018524e+00
  4.385815e+00    3.029463e+00
  4.401690e+00    3.079942e+00
  4.417566e+00    3.037417e+00
  4.433441e+00    3.053901e+00
  4.449317e+00    3.013990e+00
  4.465193e+00    3.072909e+00
  4.481068e+00    3.049119e+00
  4.496944e+00    3.043461e+00
  4.512819e+00    3.104297e+00
  4.528695e+00    3.105691e+00
  4.544570e+00    3.090641e+00
  4.560446e+00    3.071583e+00
  4.576322e+00    3.011215e+00
  4.592197e+00    3.066020e+00
  4.608073e+00    3.135249e+00
  4.623948e+00    2.991613e+00
  4.639824e+00    2.974000e+00
  4.655699e+00    3.044664e+00
  4.671575e+00    3.071500e+00
  4.687451e+00    3.124773e+00
  4.703326e+00    3.006952e+00
  4.719202e+00    3.010226e+00
  4.735077e+00    2.988935e+00
  4.750953e+00    3.039341e+00
  4.766828e+00    3.088016e+00
  4.782704e+00    3.005659e+00
  4.798580e+00    3.022763e+00
  4.814455e+00    2.966838e+00
  4.830331e+00    3.012625e+00
  4.846206e+00    3.050161e+00
  4.862082e+00    3.068912e+00
  4.877957e+00    3.111605e+00
  4.893833e+00    3.061794e+00
  4.909709e+00    3.036563e+00
  4.925584e+00    3.068424e+00
  4.941460e+00    3.073278e+00
  4.957335e+00    3.112635e+00
  4.973211e+00    3.106210e+00
  4.989086e+00    3.093781e+00
  5.004962e+00    3.190164e+00
  5.020838e+00    3.193240e+00
  5.036713e+00    3.163812e+00
  5.052589e+00    3.079368e+00
  5.068464e+00    3.033551e+00
  5.084340e+00    3.102916e+00
  5.100216e+00    3.061071e+00
  5.116091e+00    3.079132e+00
  5.131967e+00    3.106150e+00
  5.147842e+00    3.086311e+00
  5.163718e+00    3.041876e+00
  5.179593e+00    3.071198e+00
  5.195469e+00    3.077705e+00
  5.211345e+00    3.100946e+00
  5.227220e+00    3.093909e+00
  5.243096e+00    3.091228e+00
  5.258971e+00    3.087651e+00
  5.274847e+00    3.085987e+00
  5.290722e+00    3.099351e+00
  5.306598e+00    3.021544e+00
  5.322474e+00    3.069891e+00
  5.338349e+00    3.092635e+00
  5.354225e+00    3.111487e+00
  5.370100e+00    3.113961e+00
  5.385976e+00    3.082583e+00
  5.401851e+00    3.069303e+00
  5.417727e+00    3.080121e+00
  5.433603e+00    3.066053e+00
  5.449478e+00    2.980077e+00
  5.465354e+00    2.945578e+00
  5.481229e+00    3.033643e+00
  5.497105e+00    2.997681e+00
  5.512980e+00    3.055720e+00
  5.528856e+00    3.025495e+00
  5.544732e+00    2.973153e+00
  5.560607e+00    3.001318e+00
  5.576483e+00    3.029130e+00
  5.592358e+00    2.990873e+00
  5.608234e+00    3.051157e+00
  5.624109e+00    3.031736e+00
  5.639985e+00    3.043772e+00
  5.655861e+00    3.037142e+00
  5.671736e+00    3.093086e+00
  5.687612e+00    3.099262e+00
  5.703487e+00    3.059402e+00
  5.719363e+00    3.028436e+00
  5.735238e+00    3.024629e+00
  5.751114e+00    2.962461e+00
  5.766990e+00    2.909796e+00
  5.782865e+00    3.031041e+00
  5.798741e+00    3.029013e+00
  5.814616e+00    2.930798e+00
  5.830492e+00    2.925520e+00
  5.846367e+00    2.901069e+00
  5.862243e+00    2.909500e+00
  5.878119e+00    2.991777e+00
  5.893994e+00    2.948486e+00
  5.909870e+00    2.892938e+00
  5.925745e+00    2.965561e+00
  5.941621e+00    3.055917e+00
  5.957497e+00    3.044010e+00
  5.973372e+00    2.949435e+00
  5.989248e+00    2.951674e+00
  6.005123e+00    3.019961e+00
  6.020999e+00    2.993014e+00
  6.036874e+00    3.021707e+00
  6.052750e+00    3.000401e+00
  6.068626e+00    2.966328e+00
  6.084501e+00    3.032263e+00
  6.100377e+00    3.125600e+00
  6.116252e+00    3.032582e+00
  6.132128e+00    3.008561e+00
  6.148003e+00    3.043251e+00
  6.163879e+00    3.000124e+00
  6.179755e+00    2.955724e+00
  6.195630e+00    2.991941e+00
  6.211506e+00    3.069462e+00
  6.227381e+00    2.981691e+00
  6.243257e+00    2.973145e+00
  6.259132e+00    3.035954e+00
  6.275008e+00    3.077037e+00
  6.290884e+00    3.093998e+00
  6.306759e+00    3.066007e+00
  6.322635e+00    2.956711e+00
  6.338510e+00    2.953110e+00
  6.354386e+00    3.027104e+00
  6.370261e+00    2.985827e+00
  6.386137e+00    3.004175e+00
  6.402013e+00    2.983382e+00
  6.417888e+00    2.971113e+00
  6.433764e+00    2.987336e+00
  6.449639e+00    2.931460e+00
  6.465515e+00    2.970814e+00
  6.481390e+00    2.980053e+00
  6.497266e+00    3.037444e+00
  6.513142e+00    3.054040e+00
  6.529017e+00    3.010517e+00
  6.544893e+00    2.996866e+00
  6.560768e+00    2.973652e+00
  6.576644e+00    2.961055e+00
  6.592519e+00    2.981620e+00
  6.608395e+00    3.066914e+00
  6.624271e+00    3.054380e+00
  6.640146e+00    2.952260e+00
  6.656022e+00    2.958839e+00
  6.671897e+00    2.997445e+00
  6.687773e+00    3.030932e+00
  6.703648e+00    2.998865e+00
  6.719524e+00    3.056281e+00
  6.735400e+00    2.997685e+00
  6.751275e+00    3.007957e+00
  6.767151e+00    3.026472e+00
  6.783026e+00    2.933143e+00
  6.798902e+00    2.978167e+00
  6.814777e+00    3.061646e+00
  6.830653e+00    3.067045e+00
  6.846529e+00    3.020729e+00
  6.862404e+00    2.944497e+00
  6.878280e+00    2.954211e+00
  6.894155e+00    2.943186e+00
  6.910031e+00    2.990342e+00
  6.925907e+00    2.986619e+00
  6.941782e+00    2.947839e+00
  6.957658e+00    2.960096e+00
  6.973533e+00    2.958528e+00
  6.989409e+00    2.992669e+00
  7.005284e+00    3.037556e+00
  7.021160e+00    2.925591e+00
  7.037036e+00    2.887815e+00
  7.052911e+00    2.924208e+00
  7.068787e+00    3.005918e+00
  7.084662e+00    2.984745e+00
  7.100538e+00    2.978296e+00
  7.116413e+00    2.960840e+00
  7.132289e+00    2.931185e+00
  7.148165e+00    3.015285e+00
  7.164040e+00    3.002671e+00
  7.179916e+00    3.017788e+00
  7.195791e+00    3.000612e+00
  7.211667e+00    2.906265e+00
  7.227542e+00    2.909352e+00
  7.243418e+00    2.906762e+00
  7.259294e+00    2.943315e+00
  7.275169e+00    3.010704e+00
  7.291045e+00    3.003344e+00
  7.306920e+00    3.046542e+00
  7.322796e+00    2.980980e+00
  7.338671e+00    2.914925e+00
  7.354547e+00    2.901555e+00
  7.370423e+00    2.887227e+00
  7.386298e+00    2.920795e+00
  7.402174e+00    2.973028e+00
  7.418049e+00    2.971689e+00
  7.433925e+00    2.947102e+00
  7.449800e+00    2.935267e+00
  7.465676e+00    2.959471e+00
  7.481552e+00    2.974830e+00
  7.497427e+00    2.900416e+00
  7.513303e+00    2.918145e+00
  7.529178e+00    2.991983e+00
  7.545054e+00    2.975610e+00
  7.560929e+00    2.918405e+00
  7.576805e+00    2.955422e+00
  7.592681e+00    2.916615e+00
  7.608556e+00    2.926478e+00
  7.624432e+00    2.930841e+00
  7.640307e+00    2.963283e+00
  7.656183e+00    2.967307e+00
  7.672058e+00    2.941318e+00
  7.687934e+00    2.972514e+00
  7.703810e+00    2.906377e+00
  7.719685e+00    2.879047e+00
  7.735561e+00    2.927935e+00
  7.751436e+00    2.947456e+00
  7.767312e+00    2.933437e+00
  7.783187e+00    2.921546e+00
  7.799063e+00    2.938121e+00
  7.814939e+00    2.911728e+00
  7.830814e+00    2.899890e+00
  7.846690e+00    2.916131e+00
  7.862565e+00    2.889941e+00
  7.878441e+00    2.857525e+00
  7.894317e+00    2.870686e+00
  7.910192e+00    2.884740e+00
  7.926068e+00    2.854526e+00
  7.941943e+00    2.856371e+00
  7.957819e+00    2.860278e+00
  7.973694e+00    2.831525e+00
  7.989570e+00    2.873164e+00
  8.005446e+00    2.880543e+00
  8.021321e+00    2.861706e+00
  8.037197e+00    2.883136e+00
  8.053072e+00    2.905745e+00
  8.068948e+00    2.893752e+00
  8.084823e+00    2.909127e+00
  8.100699e+00    2.916973e+00
  8.116575e+00    2.883011e+00
  8.132450e+00    2.936667e+00
  8.148326e+00    2.934280e+00
  8.164201e+00    2.961350e+00
  8.180077e+00    2.905109e+00
  8.195952e+00    2.869326e+00
  8.211828e+00    2.943644e+00
  8.227704e+00    2.968542e+00
  8.243579e+00    2.958796e+00
  8.259455e+00    2.855795e+00
  8.275330e+00    2.921605e+00
  8.291206e+00    2.971051e+00
  8.307081e+00    2.887792e+00
  8.322957e+00    2.878942e+00
  8.338833e+00    2.821805e+00
  8.354708e+00    2.802150e+00
  8.370584e+00    2.900216e+00
  8.386459e+00    2.959643e+00
  8.402335e+00    2.892879e+00
  8.418210e+00    2.826141e+00
  8.434086e+00    2.858093e+00
  8.449962e+00    2.811192e+00
  8.465837e+00    2.764474e+00
  8.481713e+00    2.818375e+00
  8.497588e+00    2.905659e+00
  8.513464e+00    2.799835e+00
  8.529339e+00    2.763545e+00
  8.545215e+00    2.821904e+00
  8.561091e+00    2.841277e+00
  8.576966e+00    2.868542e+00
  8.592842e+00    2.864516e+00
  8.608717e+00    2.787810e+00
  8.624593e+00    2.848543e+00
  8.640468e+00    2.802282e+00
  8.656344e+00    2.772084e+00
  8.672220e+00    2.807503e+00
  8.688095e+00    2.787231e+00
  8.703971e+00    2.781592e+00
  8.719846e+00    2.788640e+00
  8.735722e+00    2.802255e+00
  8.751598e+00    2.823458e+00
  8.767473e+00    2.792017e+00
  8.783349e+00    2.787584e+00
  8.799224e+00    2.856615e+00
  8.815100e+00    2.778201e+00
  8.830975e+00    2.758986e+00
  8.846851e+00    2.827238e+00
  8.862727e+00    2.864605e+00
  8.878602e+00    2.848808e+00
  8.894478e+00    2.819557e+00
  8.910353e+00    2.804646e+00
  8.926229e+00    2.824400e+00
  8.942104e+00    2.805280e+00
  8.957980e+00    2.827873e+00
  8.973856e+00    2.831733e+00
  8.989731e+00    2.814999e+00
  9.005607e+00    2.814278e+00
  9.021482e+00    2.785032e+00
  9.037358e+00    2.764142e+00
  9.053233e+00    2.751859e+00
  9.069109e+00    2.827218e+00
  9.084985e+00    2.794089e+00
  9.100860e+00    2.764237e+00
  9.116736e+00    2.786548e+00
  9.132611e+00    2.769981e+00
  9.148487e+00    2.748665e+00
  9.164362e+00    2.765122e+00
  9.180238e+00    2.741157e+00
  9.196114e+00    2.789642e+00
  9.211989e+00    2.773116e+00
  9.227865e+00    2.722876e+00
  9.243740e+00    2.732580e+00
  9.259616e+00    2.788432e+00
  9.275491e+00    2.790036e+00
  9.291367e+00    2.796706e+00
  9.307243e+00    2.720910e+00
  9.323118e+00    2.735597e+00
  9.338994e+00    2.747651e+00
  9.354869e+00    2.734723e+00
  9.370745e+00    2.748340e+00
  9.386620e+00    2.741939e+00
  9.402496e+00    2.742270e+00
  9.418372e+00    2.685323e+00
  9.434247e+00    2.711857e+00
  9.450123e+00    2.681242e+00
  9.465998e+00    2.703843e+00
  9.481874e+00    2.697794e+00
  9.497749e+00    2.719983e+00
  9.513625e+00    2.718769e+00
  9.529501e+00    2.678602e+00
  9.545376e+00    2.708326e+00
  9.561252e+00    2.766511e+00
  9.577127e+00    2.750675e+00
  9.593003e+00    2.797391e+00
  9.608878e+00    2.760545e+00
  9.624754e+00    2.715826e+00
  9.640630e+00    2.707845e+00
  9.656505e+00    2.700915e+00
  9.672381e+00    2.689348e+00
  9.688256e+00    2.688300e+00
  9.704132e+00    2.707458e+00
  9.720008e+00    2.708769e+00
  9.735883e+00    2.715810e+00
  9.751759e+00    2.699392e+00
  9.767634e+00    2.709708e+00
  9.783510e+00    2.719459e+00
  9.799385e+00    2.693031e+00
  9.815261e+00    2.632677e+00
  9.831137e+00    2.668001e+00
  9.847012e+00    2.652207e+00
  9.862888e+00    2.624096e+00
  9.878763e+00    2.647325e+00
  9.894639e+00    2.667218e+00
  9.910514e+00    2.701913e+00
  9.926390e+00    2.718486e+00
  9.942266e+00    2.645013e+00
  9.958141e+00    2.633480e+00
  9.974017e+00    2.663118e+00
  9.989892e+00    2.625295e+00
  1.000577e+01    2.631626e+00
  1.002164e+01    2.621916e+00
  1.003752e+01    2.695909e+00
  1.005339e+01    2.660397e+00
  1.006927e+01    2.626826e+00
  1.008515e+01    2.613637e+00
  1.010102e+01    2.630574e+00
  1.011690e+01    2.590902e+00
  1.013277e+01    2.638407e+00
  1.014865e+01    2.644818e+00
  1.016452e+01    2.632982e+00
  1.018040e+01    2.640057e+00
  1.019627e+01    2.646690e+00
  1.021215e+01    2.626232e+00
  1.022803e+01    2.627614e+00
  1.024390e+01    2.577723e+00
  1.025978e+01    2.589290e+00
  1.027565e+01    2.605894e+00
  1.029153e+01    2.639466e+00
  1.030740e+01    2.569508e+00
  1.032328e+01    2.597376e+00
  1.033915e+01    2.561143e+00
  1.035503e+01    2.510762e+00
  1.037091e+01    2.595538e+00
  1.038678e+01    2.582426e+00
  1.040266e+01    2.556322e+00
  1.041853e+01    2.558597e+00
  1.043441e+01    2.556054e+00
  1.045028e+01    2.587318e+00
  1.046616e+01    2.593503e+00
  1.048204e+01    2.586912e+00
  1.049791e+01    2.539390e+00
  1.051379e+01    2.545424e+00
  1.052966e+01    2.588076e+00
  1.054554e+01    2.556697e+00
  1.056141e+01    2.545294e+00
  1.057729e+01    2.526045e+00
  1.059316e+01    2.531620e+00
  1.060904e+01    2.551914e+00
  1.062492e+01    2.532574e+00
  1.064079e+01    2.490050e+00
  1.065667e+01    2.508722e+00
  1.067254e+01    2.530115e+00
  1.068842e+01    2.483671e+00
  1.070429e+01    2.518965e+00
  1.072017e+01    2.543821e+00
  1.073604e+01    2.473749e+00
  1.075192e+01    2.515647e+00
  1.076780e+01    2.546918e+00
  1.078367e+01    2.542168e+00
  1.079955e+01    2.477814e+00
  1.081542e+01    2.486516e+00
  1.083130e+01    2.515288e+00
  1.084717e+01    2.479224e+00
  1.086305e+01    2.493463e+00
  1.087892e+01    2.521899e+00
  1.089480e+01    2.479356e+00
  1.091068e+01    2.488093e+00
  1.092655e+01    2.446035e+00
  1.094243e+01    2.467116e+00
  1.095830e+01    2.445985e+00
  1.097418e+01    2.464084e+00
  1.099005e+01    2.457476e+00
  1.100593e+01    2.482294e+00
  1.102180e+01    2.446513e+00
  1.103768e+01    2.421655e+00
  1.105356e+01    2.440481e+00
  1.106943e+01    2.419813e+00
  1.108531e+01    2.414295e+00
  1.110118e+01    2.405387e+00
  1.111706e+01    2.445098e+00
  1.113293e+01    2.477636e+00
  1.114881e+01    2.483528e+00
  1.116468e+01    2.432940e+00
  1.118056e+01    2.417780e+00
  1.119644e+01    2.410887e+00
  1.121231e+01    2.411861e+00
  1.122819e+01    2.373228e+00
  1.124406e+01    2.395491e+00
  1.125994e+01    2.414091e+00
  1.127581e+01    2.398408e+00
  1.129169e+01    2.379069e+00
  1.130756e+01    2.410753e+00
  1.132344e+01    2.414338e+00
  1.133932e+01    2.391657e+00
  1.135519e+01    2.423682e+00
  1.137107e+01    2.437671e+00
  1.138694e+01    2.399970e+00
  1.140282e+01    2.397554e+00
  1.141869e+01    2.417390e+00
  1.143457e+01    2.369916e+00
  1.145045e+01    2.406830e+00
  1.146632e+01    2.437738e+00
  1.148220e+01    2.412539e+00
  1.149807e+01    2.393983e+00
  1.151395e+01    2.379311e+00
  1.152982e+01    2.382961e+00
  1.154570e+01    2.378810e+00
  1.156157e+01    2.347228e+00
  1.157745e+01    2.338971e+00
  1.159333e+01    2.363431e+00
  1.160920e+01    2.388006e+00
  1.162508e+01    2.369518e+00
  1.164095e+01    2.307852e+00
  1.165683e+01    2.353089e+00
  1.167270e+01    2.381949e+00
  1.168858e+01    2.377649e+00
  1.170445e+01    2.346823e+00
  1.172033e+01    2.326040e+00
  1.173621e+01    2.337682e+00
  1.175208e+01    2.346920e+00
  1.176796e+01    2.357364e+00
  1.178383e+01    2.312596e+00
  1.179971e+01    2.305305e+00
  1.181558e+01    2.317699e+00
  1.183146e+01    2.293164e+00
  1.184733e+01    2.309265e+00
  1.186321e+01    2.317209e+00
  1.187909e+01    2.335046e+00
  1.189496e+01    2.322963e+00
  1.191084e+01    2.316711e+00
  1.192671e+01    2.332044e+00
  1.194259e+01    2.310327e+00
  1.195846e+01    2.289136e+00
  1.197434e+01    2.328042e+00
  1.199021e+01    2.296563e+00
  1.200609e+01    2.305181e+00
  1.202197e+01    2.298440e+00
  1.203784e+01    2.322529e+00
  1.205372e+01    2.302913e+00
  1.206959e+01    2.311020e+00
  1.208547e+01    2.306031e+00
  1.210134e+01    2.312266e+00
  1.211722e+01    2.277280e+00
  1.213309e+01    2.308171e+00
  1.214897e+01    2.302675e+00
  1.216485e+01    2.230464e+00
  1.218072e+01    2.290869e+00
  1.219660e+01    2.289541e+00
  1.221247e+01    2.282532e+00
  1.222835e+01    2.289534e+00
  1.224422e+01    2.278294e+00
  1.226010e+01    2.263426e+00
  1.227597e+01    2.267976e+00
  1.229185e+01    2.303998e+00
  1.230773e+01    2.309077e+00
  1.232360e+01    2.304167e+00
  1.233948e+01    2.328702e+00
  1.235535e+01    2.294786e+00
  1.237123e+01    2.291020e+00
  1.238710e+01    2.280137e+00
  1.240298e+01    2.278137e+00
  1.241886e+01    2.296116e+00
  1.243473e+01    2.287901e+00
  1.245061e+01    2.321319e+00
  1.246648e+01    2.328025e+00
  1.248236e+01    2.343905e+00
  1.249823e+01    2.335035e+00
  1.251411e+01    2.321119e+00
  1.252998e+01    2.318211e+00
  1.254586e+01    2.346388e+00
  1.256174e+01    2.367914e+00
  1.257761e+01    2.362645e+00
  1.259349e+01    2.356551e+00
  1.260936e+01    2.357147e+00
  1.262524e+01    2.372451e+00
  1.264111e+01    2.405558e+00
  1.265699e+01    2.427164e+00
  1.267286e+01    2.438269e+00
  1.268874e+01    2.442682e+00
  1.270462e+01    2.463546e+00
  1.272049e+01    2.444113e+00
  1.273637e+01    2.467370e+00
  1.275224e+01    2.495733e+00
  1.276812e+01    2.571512e+00
  1.278399e+01    2.603547e+00
  1.279987e+01    2.625067e+00
  1.281574e+01    2.655981e+00
  1.283162e+01    2.746139e+00
  1.284750e+01    2.843153e+00
  1.286337e+01    2.945534e+00
  1.287925e+01    3.029303e+00
  1.289512e+01    3.107461e+00
  1.291100e+01    3.251885e+00
  1.292687e+01    3.439839e+00
  1.294275e+01    3.645837e+00
  1.295862e+01    3.918963e+00
  1.297450e+01    4.303199e+00
  1.299038e+01    4.754616e+00
  1.300625e+01    5.288685e+00
  1.302213e+01    5.952254e+00
  1.303800e+01    6.841140e+00
  1.305388e+01    8.047099e+00
  1.306975e+01    9.403372e+00
  1.308563e+01    1.081217e+01
  1.310150e+01    1.205763e+01
  1.311738e+01    1.337897e+01
  1.313326e+01    1.474502e+01
  1.314913e+01    1.592239e+01
  1.316501e+01    1.717561e+01
  1.318088e+01    1.771476e+01
  1.319676e+01    1.767166e+01
  1.321263e+01    1.687602e+01
  1.322851e+01    1.524648e+01
  1.324438e+01    1.301338e+01
  1.326026e+01    1.097337e+01
  1.327614e+01    9.219902e+00
  1.329201e+01    7.865661e+00
  1.330789e+01    6.762960e+00
  1.332376e+01    5.892079e+00
  1.333964e+01    5.180293e+00
  1.335551e+01    4.656222e+00
  1.337139e+01    4.188275e+00
  1.338727e+01    3.835000e+00
  1.340314e+01    3.523353e+00
  1.341902e+01    3.334903e+00
  1.343489e+01    3.163035e+00
  1.345077e+01    3.032439e+00
  1.346664e+01    2.864226e+00
  1.348252e+01    2.815807e+00
  1.349839e+01    2.750745e+00
  1.351427e+01    2.741125e+00
  1.353015e+01    2.615608e+00
  1.354602e+01    2.567026e+00
  1.356190e+01    2.511130e+00
  1.357777e+01    2.459582e+00
  1.359365e+01    2.397506e+00
  1.360952e+01    2.355800e+00
  1.362540e+01    2.338197e+00
  1.364127e+01    2.321320e+00
  1.365715e+01    2.302501e+00
  1.367303e+01    2.273418e+00
  1.368890e+01    2.240900e+00
  1.370478e+01    2.242252e+00
  1.372065e+01    2.196322e+00
  1.373653e+01    2.226200e+00
  1.375240e+01    2.177102e+00
  1.376828e+01    2.184691e+00
  1.378415e+01    2.188560e+00
  1.380003e+01    2.146104e+00
  1.381591e+01    2.100747e+00
  1.383178e+01    2.099183e+00
  1.384766e+01    2.127368e+00
  1.386353e+01    2.104036e+00
  1.387941e+01    2.061337e+00
  1.389528e+01    2.087630e+00
  1.391116e+01    2.073934e+00
  1.392703e+01    2.068372e+00
  1.394291e+01    2.063296e+00
  1.395879e+01    2.040190e+00
  1.397466e+01    2.046307e+00
  1.399054e+01    2.038211e+00
  1.400641e+01    2.045798e+00
  1.402229e+01    2.058299e+00
  1.403816e+01    2.050138e+00
  1.405404e+01    2.021221e+00
  1.406991e+01    2.024801e+00
  1.408579e+01    1.999908e+00
  1.410167e+01    1.998903e+00
  1.411754e+01    2.005280e+00
  1.413342e+01    1.988672e+00
  1.414929e+01    1.964727e+00
  1.416517e+01    1.971289e+00
  1.418104e+01    1.939042e+00
  1.419692e+01    1.905383e+00
  1.421279e+01    1.934096e+00
  1.422867e+01    1.968092e+00
  1.424455e+01    1.968924e+00
  1.426042e+01    1.953970e+00
  1.427630e+01    1.958477e+00
  1.429217e+01    1.931800e+00
  1.430805e+01    1.935778e+00
  1.432392e+01    1.952343e+00
  1.433980e+01    1.943839e+00
  1.435568e+01    1.926728e+00
  1.437155e+01    1.959168e+00
  1.438743e+01    1.968967e+00
  1.440330e+01    1.926686e+00
  1.441918e+01    1.912518e+00
  1.443505e+01    1.917915e+00
  1.445093e+01    1.861293e+00
  1.446680e+01    1.940292e+00
  1.448268e+01    1.937869e+00
  1.449856e+01    1.920994e+00
  1.451443e+01    1.883313e+00
  1.453031e+01    1.903979e+00
  1.454618e+01    1.890300e+00
  1.456206e+01    1.886002e+00
  1.457793e+01    1.898175e+00
  1.459381e+01    1.920592e+00
  1.460968e+01    1.910304e+00
  1.462556e+01    1.868447e+00
  1.464144e+01    1.850633e+00
  1.465731e+01    1.873710e+00
  1.467319e+01    1.930044e+00
  1.468906e+01    1.919074e+00
  1.470494e+01    1.913816e+00
  1.472081e+01    1.906670e+00
  1.473669e+01    1.866299e+00
  1.475256e+01    1.880667e+00
  1.476844e+01    1.890707e+00
  1.478432e+01    1.888172e+00
  1.480019e+01    1.867730e+00
  1.481607e+01    1.874123e+00
  1.483194e+01    1.907149e+00
  1.484782e+01    1.931784e+00
  1.486369e+01    1.906183e+00
  1.487957e+01    1.917452e+00
  1.489544e+01    1.972859e+00
  1.491132e+01    1.988793e+00
  1.492720e+01    1.934633e+00
  1.494307e+01    1.957851e+00
  1.495895e+01    1.996553e+00
  1.497482e+01    2.021416e+00
  1.499070e+01    2.055203e+00
  1.500657e+01    2.155585e+00
  1.502245e+01    2.240483e+00
  1.503832e+01    2.290855e+00
  1.505420e+01    2.328723e+00
  1.507008e+01    2.446889e+00
  1.508595e+01    2.616078e+00
  1.510183e+01    2.790851e+00
  1.511770e+01    3.038145e+00
  1.513358e+01    3.380946e+00
  1.514945e+01    3.745504e+00
  1.516533e+01    4.120481e+00
  1.518120e+01    4.496176e+00
  1.519708e+01    4.879907e+00
  1.521296e+01    5.166530e+00
  1.522883e+01    5.504576e+00
  1.524471e+01    5.792547e+00
  1.526058e+01    5.946536e+00
  1.527646e+01    6.055495e+00
  1.529233e+01    5.980106e+00
  1.530821e+01    5.689874e+00
  1.532409e+01    5.236985e+00
  1.533996e+01    4.667947e+00
  1.535584e+01    4.087695e+00
  1.537171e+01    3.674391e+00
  1.538759e+01    3.227511e+00
  1.540346e+01    2.939743e+00
  1.541934e+01    2.723973e+00
  1.543521e+01    2.525507e+00
  1.545109e+01    2.372667e+00
  1.546697e+01    2.305032e+00
  1.548284e+01    2.184165e+00
  1.549872e+01    2.095072e+00
  1.551459e+01    2.019329e+00
  1.553047e+01    1.952431e+00
  1.554634e+01    1.920980e+00
  1.556222e+01    1.881417e+00
  1.557809e+01    1.850949e+00
  1.559397e+01    1.829966e+00
  1.560985e+01    1.792977e+00
  1.562572e+01    1.826988e+00
  1.564160e+01    1.784248e+00
  1.565747e+01    1.746389e+00
  1.567335e+01    1.761431e+00
  1.568922e+01    1.756835e+00
  1.570510e+01    1.738425e+00
  1.572097e+01    1.707087e+00
  1.573685e+01    1.717518e+00
  1.575273e+01    1.702528e+00
  1.576860e+01    1.704351e+00
  1.578448e+01    1.700344e+00
  1.580035e+01    1.675070e+00
  1.581623e+01    1.654794e+00
  1.583210e+01    1.649422e+00
  1.584798e+01    1.650095e+00
  1.586385e+01    1.648267e+00
  1.587973e+01    1.639368e+00
  1.589561e+01    1.635935e+00
  1.591148e+01    1.626763e+00
  1.592736e+01    1.646879e+00
  1.594323e+01    1.616831e+00
  1.595911e+01    1.607643e+00
  1.597498e+01    1.612159e+00
  1.599086e+01    1.620593e+00
  1.600673e+01    1.604105e+00
  1.602261e+01    1.572927e+00
  1.603849e+01    1.606576e+00
  1.605436e+01    1.611548e+00
  1.607024e+01    1.587587e+00
  1.608611e+01    1.600665e+00
  1.610199e+01    1.580802e+00
  1.611786e+01    1.592123e+00
  1.613374e+01    1.588941e+00
  1.614961e+01    1.563044e+00
  1.616549e+01    1.535797e+00
  1.618137e+01    1.546569e+00
  1.619724e+01    1.554282e+00
  1.621312e+01    1.569310e+00
  1.622899e+01    1.558613e+00
  1.624487e+01    1.560389e+00
  1.626074e+01    1.558516e+00
  1.627662e+01    1.523546e+00
  1.629250e+01    1.568850e+00
  1.630837e+01    1.548637e+00
  1.632425e+01    1.503520e+00
  1.634012e+01    1.522598e+00
  1.635600e+01    1.486162e+00
  1.637187e+01    1.493415e+00
  1.638775e+01    1.518850e+00
  1.640362e+01    1.501402e+00
  1.641950e+01    1.505720e+00
  1.643538e+01    1.526156e+00
  1.645125e+01    1.499776e+00
  1.646713e+01    1.512295e+00
  1.648300e+01    1.490723e+00
  1.649888e+01    1.519377e+00
  1.651475e+01    1.508471e+00
  1.653063e+01    1.521586e+00
  1.654650e+01    1.475792e+00
  1.656238e+01    1.454732e+00
  1.657826e+01    1.488255e+00
  1.659413e+01    1.494552e+00
  1.661001e+01    1.489722e+00
  1.662588e+01    1.475021e+00
  1.664176e+01    1.478428e+00
  1.665763e+01    1.460906e+00
  1.667351e+01    1.437374e+00
  1.668938e+01    1.483840e+00
  1.670526e+01    1.481295e+00
  1.672114e+01    1.482540e+00
  1.673701e+01    1.447860e+00
  1.675289e+01    1.462852e+00
  1.676876e+01    1.458756e+00
  1.678464e+01    1.460158e+00
  1.680051e+01    1.449844e+00
  1.681639e+01    1.460351e+00
  1.683226e+01    1.443629e+00
  1.684814e+01    1.452059e+00
  1.686402e+01    1.453237e+00
  1.687989e+01    1.446501e+00
  1.689577e+01    1.468452e+00
  1.691164e+01    1.454641e+00
  1.692752e+01    1.443261e+00
  1.694339e+01    1.456889e+00
  1.695927e+01    1.449872e+00
  1.697514e+01    1.418750e+00
  1.699102e+01    1.428712e+00
  1.700690e+01    1.434940e+00
  1.702277e+01    1.436637e+00
  1.703865e+01    1.429427e+00
  1.705452e+01    1.414801e+00
  1.707040e+01    1.380903e+00
  1.708627e+01    1.401679e+00
  1.710215e+01    1.455419e+00
  1.711802e+01    1.442394e+00
  1.713390e+01    1.433680e+00
  1.714978e+01    1.420246e+00
  1.716565e+01    1.377912e+00
  1.718153e+01    1.376507e+00
  1.719740e+01    1.393777e+00
  1.721328e+01    1.430153e+00
  1.722915e+01    1.420152e+00
  1.724503e+01    1.412089e+00
  1.726091e+01    1.390972e+00
  1.727678e+01    1.378581e+00
  1.729266e+01    1.382703e+00
  1.730853e+01    1.374218e+00
  1.732441e+01    1.370638e+00
  1.734028e+01    1.363594e+00
  1.735616e+01    1.403494e+00
  1.737203e+01    1.347412e+00
  1.738791e+01    1.337628e+00
  1.740379e+01    1.358713e+00
  1.741966e+01    1.365186e+00
  1.743554e+01    1.351085e+00
  1.745141e+01    1.363060e+00
  1.746729e+01    1.371505e+00
  1.748316e+01    1.361913e+00
  1.749904e+01    1.369706e+00
  1.751491e+01    1.353309e+00
  1.753079e+01    1.375576e+00
  1.754667e+01    1.342334e+00
  1.756254e+01    1.323115e+00
  1.757842e+01    1.326630e+00
  1.759429e+01    1.323601e+00
  1.761017e+01    1.338291e+00
  1.762604e+01    1.356653e+00
  1.764192e+01    1.344164e+00
  1.765779e+01    1.336650e+00
  1.767367e+01    1.347100e+00
  1.768955e+01    1.321356e+00
  1.770542e+01    1.307131e+00
  1.772130e+01    1.296366e+00
  1.773717e+01    1.305146e+00
  1.775305e+01    1.310640e+00
  1.776892e+01    1.331865e+00
  1.778480e+01    1.350657e+00
  1.780067e+01    1.320883e+00
  1.781655e+01    1.321166e+00
  1.783243e+01    1.319369e+00
  1.784830e+01    1.283426e+00
  1.786418e+01    1.317979e+00
  1.788005e+01    1.307546e+00
  1.789593e+01    1.293909e+00
  1.791180e+01    1.290875e+00
  1.792768e+01    1.300675e+00
  1.794355e+01    1.296177e+00
  1.795943e+01    1.319139e+00
  1.797531e+01    1.311061e+00
  1.799118e+01    1.313627e+00
  1.800706e+01    1.265242e+00
  1.802293e+01    1.292533e+00
  1.803881e+01    1.278030e+00
  1.805468e+01    1.288592e+00
  1.807056e+01    1.271000e+00
  1.808643e+01    1.261643e+00
  1.810231e+01    1.293437e+00
  1.811819e+01    1.283929e+00
  1.813406e+01    1.264022e+00
  1.814994e+01    1.268924e+00
  1.816581e+01    1.283082e+00
  1.818169e+01    1.268625e+00
  1.819756e+01    1.249689e+00
  1.821344e+01    1.273928e+00
  1.822932e+01    1.275826e+00
  1.824519e+01    1.241331e+00
  1.826107e+01    1.247865e+00
  1.827694e+01    1.241447e+00
  1.829282e+01    1.247356e+00
  1.830869e+01    1.254570e+00
  1.832457e+01    1.241672e+00
  1.834044e+01    1.250940e+00
  1.835632e+01    1.240853e+00
  1.837220e+01    1.261070e+00
  1.838807e+01    1.256117e+00
  1.840395e+01    1.243212e+00
  1.841982e+01    1.245312e+00
  1.843570e+01    1.232310e+00
  1.845157e+01    1.272985e+00
  1.846745e+01    1.242347e+00
  1.848332e+01    1.248024e+00
  1.849920e+01    1.229499e+00
  1.851508e+01    1.215770e+00
  1.853095e+01    1.225190e+00
  1.854683e+01    1.240019e+00
  1.856270e+01    1.209780e+00
  1.857858e+01    1.200162e+00
  1.859445e+01    1.223154e+00
  1.861033e+01    1.225217e+00
  1.862620e+01    1.261247e+00
  1.864208e+01    1.246075e+00
  1.865796e+01    1.217527e+00
  1.867383e+01    1.234232e+00
  1.868971e+01    1.254369e+00
  1.870558e+01    1.210408e+00
  1.872146e+01    1.212148e+00
  1.873733e+01    1.223647e+00
  1.875321e+01    1.210543e+00
  1.876908e+01    1.213837e+00
  1.878496e+01    1.197323e+00
  1.880084e+01    1.208356e+00
  1.881671e+01    1.209871e+00
  1.883259e+01    1.198052e+00
  1.884846e+01    1.193933e+00
  1.886434e+01    1.220847e+00
  1.888021e+01    1.191064e+00
  1.889609e+01    1.193655e+00
  1.891196e+01    1.174306e+00
  1.892784e+01    1.199081e+00
  1.894372e+01    1.217603e+00
  1.895959e+01    1.207614e+00
  1.897547e+01    1.187660e+00
  1.899134e+01    1.177761e+00
  1.900722e+01    1.170041e+00
  1.902309e+01    1.169446e+00
  1.903897e+01    1.180196e+00
  1.905484e+01    1.180258e+00
  1.907072e+01    1.176145e+00
  1.908660e+01    1.197622e+00
  1.910247e+01    1.201598e+00
  1.911835e+01    1.163633e+00
  1.913422e+01    1.185410e+00
  1.915010e+01    1.190395e+00
  1.916597e+01    1.179274e+00
  1.918185e+01    1.159309e+00
  1.919773e+01    1.176675e+00
  1.921360e+01    1.163767e+00
  1.922948e+01    1.167351e+00
  1.924535e+01    1.167567e+00
  1.926123e+01    1.179842e+00
  1.927710e+01    1.153831e+00
  1.929298e+01    1.148305e+00
  1.930885e+01    1.158705e+00
  1.932473e+01    1.159570e+00
  1.934061e+01    1.163999e+00
  1.935648e+01    1.181187e+00
  1.937236e+01    1.163961e+00
  1.938823e+01    1.175224e+00
  1.940411e+01    1.169984e+00
  1.941998e+01    1.162418e+00
  1.943586e+01    1.169829e+00
  1.945173e+01    1.150411e+00
  1.946761e+01    1.176835e+00
  1.948349e+01    1.179432e+00
  1.949936e+01    1.189108e+00
  1.951524e+01    1.126696e+00
  1.953111e+01    1.113339e+00
  1.954699e+01    1.142328e+00
  1.956286e+01    1.156155e+00
  1.957874e+01    1.138508e+00
  1.959461e+01    1.121236e+00
  1.961049e+01    1.133864e+00
  1.962637e+01    1.153408e+00
  1.964224e+01    1.134100e+00
  1.965812e+01    1.122792e+00
  1.967399e+01    1.117406e+00
  1.968987e+01    1.113464e+00
  1.970574e+01    1.154852e+00
  1.972162e+01    1.140147e+00
  1.973749e+01    1.145150e+00
  1.975337e+01    1.144582e+00
  1.976925e+01    1.125307e+00
  1.978512e+01    1.131009e+00
  1.980100e+01    1.125711e+00
  1.981687e+01    1.122604e+00
  1.983275e+01    1.145858e+00
  1.984862e+01    1.128137e+00
  1.986450e+01    1.103194e+00
  1.988037e+01    1.104623e+00
  1.989625e+01    1.097557e+00
  1.991213e+01    1.121023e+00
  1.992800e+01    1.115338e+00
  1.994388e+01    1.101376e+00
  1.995975e+01    1.101125e+00
  1.997563e+01    1.096821e+00
  1.999150e+01    1.104968e+00
  2.000738e+01    1.091043e+00
  2.002325e+01    1.113365e+00
  2.003913e+01    1.111777e+00
  2.005501e+01    1.095312e+00
  2.007088e+01    1.121323e+00
  2.008676e+01    1.108582e+00
  2.010263e+01    1.098440e+00
  2.011851e+01    1.104514e+00
  2.013438e+01    1.110287e+00
  2.015026e+01    1.111932e+00
  2.016614e+01    1.099086e+00
  2.018201e+01    1.099081e+00
  2.019789e+01    1.105758e+00
  2.021376e+01    1.106477e+00
  2.022964e+01    1.110183e+00
  2.024551e+01    1.099423e+00
  2.026139e+01    1.109823e+00
  2.027726e+01    1.080576e+00
  2.029314e+01    1.072546e+00
  2.030902e+01    1.084647e+00
  2.032489e+01    1.082586e+00
  2.034077e+01    1.070240e+00
  2.035664e+01    1.075360e+00
  2.037252e+01    1.069076e+00
  2.038839e+01    1.091936e+00
  2.040427e+01    1.076426e+00
  2.042014e+01    1.081331e+00
  2.043602e+01    1.056907e+00
  2.045190e+01    1.065426e+00
  2.046777e+01    1.082340e+00
  2.048365e+01    1.073998e+00
  2.049952e+01    1.084224e+00
  2.051540e+01    1.080121e+00
  2.053127e+01    1.087589e+00
  2.054715e+01    1.070744e+00
  2.056302e+01    1.081243e+00
  2.057890e+01    1.081929e+00
  2.059478e+01    1.078324e+00
  2.061065e+01    1.078361e+00
  2.062653e+01    1.101300e+00
  2.064240e+01    1.082493e+00
  2.065828e+01    1.075265e+00
  2.067415e+01    1.086616e+00
  2.069003e+01    1.085712e+00
  2.070590e+01    1.070582e+00
  2.072178e+01    1.086279e+00
  2.073766e+01    1.081669e+00
  2.075353e+01    1.077243e+00
  2.076941e+01    1.077273e+00
  2.078528e+01    1.049820e+00
  2.080116e+01    1.086883e+00
  2.081703e+01    1.067213e+00
  2.083291e+01    1.091979e+00
  2.084878e+01    1.070510e+00
  2.086466e+01    1.065339e+00
  2.088054e+01    1.074711e+00
  2.089641e+01    1.081604e+00
  2.091229e+01    1.081634e+00
  2.092816e+01    1.081053e+00
  2.094404e+01    1.070065e+00
  2.095991e+01    1.069045e+00
  2.097579e+01    1.060907e+00
  2.099166e+01    1.060499e+00
  2.100754e+01    1.059512e+00
  2.102342e+01    1.082249e+00
  2.103929e+01    1.071795e+00
  2.105517e+01    1.060289e+00
  2.107104e+01    1.050520e+00
  2.108692e+01    1.074920e+00
  2.110279e+01    1.086043e+00
  2.111867e+01    1.076728e+00
  2.113455e+01    1.071317e+00
  2.115042e+01    1.088546e+00
  2.116630e+01    1.085725e+00
  2.118217e+01    1.085412e+00
  2.119805e+01    1.086421e+00
  2.121392e+01    1.065506e+00
  2.122980e+01    1.067389e+00
  2.124567e+01    1.095985e+00
  2.126155e+01    1.125918e+00
  2.127743e+01    1.112164e+00
  2.129330e+01    1.115988e+00
  2.130918e+01    1.121444e+00
  2.132505e+01    1.131268e+00
  2.134093e+01    1.137959e+00
  2.135680e+01    1.127273e+00
  2.137268e+01    1.128578e+00
  2.138855e+01    1.130726e+00
  2.140443e+01    1.163029e+00
  2.142031e+01    1.189992e+00
  2.143618e+01    1.181029e+00
  2.145206e+01    1.200505e+00
  2.146793e+01    1.218971e+00
  2.148381e+01    1.254950e+00
  2.149968e+01    1.289317e+00
  2.151556e+01    1.294182e+00
  2.153143e+01    1.320524e+00
  2.154731e+01    1.357954e+00
  2.156319e+01    1.381327e+00
  2.157906e+01    1.431495e+00
  2.159494e+01    1.524564e+00
  2.161081e+01    1.602874e+00
  2.162669e+01    1.685199e+00
  2.164256e+01    1.761118e+00
  2.165844e+01    1.871196e+00
  2.167431e+01    2.024229e+00
  2.169019e+01    2.238206e+00
  2.170607e+01    2.464381e+00
  2.172194e+01    2.742023e+00
  2.173782e+01    3.096282e+00
  2.175369e+01    3.478579e+00
  2.176957e+01    3.978043e+00
  2.178544e+01    4.605950e+00
  2.180132e+01    5.298050e+00
  2.181719e+01    6.033828e+00
  2.183307e+01    6.769415e+00
  2.184895e+01    7.494915e+00
  2.186482e+01    8.240721e+00
  2.188070e+01    9.006075e+00
  2.189657e+01    9.522057e+00
  2.191245e+01    9.855760e+00
  2.192832e+01    9.803998e+00
  2.194420e+01    9.173508e+00
  2.196007e+01    8.345117e+00
  2.197595e+01    7.272103e+00
  2.199183e+01    6.186122e+00
  2.200770e+01    5.239951e+00
  2.202358e+01    4.420978e+00
  2.203945e+01    3.783593e+00
  2.205533e+01    3.241247e+00
  2.207120e+01    2.909150e+00
  2.208708e+01    2.589524e+00
  2.210296e+01    2.302977e+00
  2.211883e+01    2.090086e+00
  2.213471e+01    1.935132e+00
  2.215058e+01    1.779757e+00
  2.216646e+01    1.663567e+00
  2.218233e+01    1.592515e+00
  2.219821e+01    1.493117e+00
  2.221408e+01    1.434699e+00
  2.222996e+01    1.378881e+00
  2.224584e+01    1.350668e+00
  2.226171e+01    1.288145e+00
  2.227759e+01    1.291758e+00
  2.229346e+01    1.237438e+00
  2.230934e+01    1.215130e+00
  2.232521e+01    1.165531e+00
  2.234109e+01    1.132612e+00
  2.235696e+01    1.132364e+00
  2.237284e+01    1.129494e+00
  2.238872e+01    1.103767e+00
  2.240459e+01    1.088295e+00
  2.242047e+01    1.069940e+00
  2.243634e+01    1.067851e+00
  2.245222e+01    1.056785e+00
  2.246809e+01    1.044541e+00
  2.248397e+01    1.013822e+00
  2.249984e+01    1.031626e+00
  2.251572e+01    1.030089e+00
  2.253160e+01    1.035117e+00
  2.254747e+01    1.019618e+00
  2.256335e+01    9.888149e-01
  2.257922e+01    9.619763e-01
  2.259510e+01    9.820898e-01
  2.261097e+01    9.719711e-01
  2.262685e+01    9.632893e-01
  2.264272e+01    9.618849e-01
  2.265860e+01    9.539986e-01
  2.267448e+01    9.565766e-01
  2.269035e+01    9.626360e-01
  2.270623e+01    9.472597e-01
  2.272210e+01    9.171581e-01
  2.273798e+01    9.369514e-01
  2.275385e+01    9.245144e-01
  2.276973e+01    9.326738e-01
  2.278560e+01    9.319894e-01
  2.280148e+01    9.257267e-01
  2.281736e+01    9.173047e-01
  2.283323e+01    9.190716e-01
  2.284911e+01    9.489014e-01
  2.286498e+01    9.146207e-01
  2.288086e+01    9.168951e-01
  2.289673e+01    9.180682e-01
  2.291261e+01    8.973482e-01
  2.292848e+01    8.918657e-01
  2.294436e+01    9.349951e-01
  2.296024e+01    9.094723e-01
  2.297611e+01    8.970635e-01
  2.299199e+01    8.914238e-01
  2.300786e+01    8.973466e-01
  2.302374e+01    8.989869e-01
  2.303961e+01    8.780950e-01
  2.305549e+01    9.034345e-01
  2.307137e+01    9.095349e-01
  2.308724e+01    8.848518e-01
  2.310312e+01    8.679472e-01
  2.311899e+01    8.682327e-01
  2.313487e+01    8.840482e-01
  2.315074e+01    8.651865e-01
  2.316662e+01    8.495981e-01
  2.318249e+01    8.629564e-01
  2.319837e+01    8.712900e-01
  2.321425e+01    8.772287e-01
  2.323012e+01    8.665818e-01
  2.324600e+01    8.714848e-01
  2.326187e+01    8.836595e-01
  2.327775e+01    8.938812e-01
  2.329362e+01    8.632591e-01
  2.330950e+01    8.636350e-01
  2.332537e+01    8.647082e-01
  2.334125e+01    8.656906e-01
  2.335713e+01    8.450825e-01
  2.337300e+01    8.409646e-01
  2.338888e+01    8.766159e-01
  2.340475e+01    8.658015e-01
  2.342063e+01    8.491988e-01
  2.343650e+01    8.459081e-01
  2.345238e+01    8.208546e-01
  2.346825e+01    8.475456e-01
  2.348413e+01    8.302406e-01
  2.350001e+01    8.197707e-01
  2.351588e+01    8.594580e-01
  2.353176e+01    8.532245e-01
  2.354763e+01    8.361923e-01
  2.356351e+01    8.494511e-01
  2.357938e+01    8.357828e-01
  2.359526e+01    8.484837e-01
  2.361113e+01    8.582215e-01
  2.362701e+01    8.535739e-01
  2.364289e+01    8.221425e-01
  2.365876e+01    8.267198e-01
  2.367464e+01    8.368505e-01
  2.369051e+01    8.135203e-01
  2.370639e+01    8.346011e-01
  2.372226e+01    8.341580e-01
  2.373814e+01    8.193467e-01
  2.375401e+01    8.365278e-01
  2.376989e+01    8.260801e-01
  2.378577e+01    8.319820e-01
  2.380164e+01    8.166852e-01
  2.381752e+01    7.913204e-01
  2.383339e+01    8.013043e-01
  2.384927e+01    8.090509e-01
  2.386514e+01    7.938617e-01
  2.388102e+01    8.059524e-01
  2.389689e+01    8.008745e-01
  2.391277e+01    8.184634e-01
  2.392865e+01    8.114972e-01
  2.394452e+01    7.881802e-01
  2.396040e+01    7.836642e-01
  2.397627e+01    7.853417e-01
  2.399215e+01    7.701572e-01
  2.400802e+01    7.718521e-01
  2.402390e+01    7.886660e-01
  2.403978e+01    7.937665e-01
  2.405565e+01    7.702469e-01
  2.407153e+01    7.696232e-01
  2.408740e+01    7.748822e-01
  2.410328e+01    7.705980e-01
  2.411915e+01    7.546517e-01
  2.413503e+01    7.834173e-01
  2.415090e+01    7.809222e-01
  2.416678e+01    7.693198e-01
  2.418266e+01    7.751809e-01
  2.419853e+01    7.869340e-01
  2.421441e+01    7.641593e-01
  2.423028e+01    7.779098e-01
  2.424616e+01    7.808276e-01
  2.426203e+01    7.931959e-01
  2.427791e+01    7.848194e-01
  2.429378e+01    7.960981e-01
  2.430966e+01    7.981645e-01
  2.432554e+01    7.836601e-01
  2.434141e+01    7.873847e-01
  2.435729e+01    7.861590e-01
  2.437316e+01    7.859553e-01
  2.438904e+01    7.820851e-01
  2.440491e+01    7.856643e-01
  2.442079e+01    7.771199e-01
  2.443666e+01    7.774082e-01
  2.445254e+01    7.677321e-01
  2.446842e+01    7.522761e-01
  2.448429e+01    7.917542e-01
  2.450017e+01    7.955316e-01
  2.451604e+01    7.973472e-01
  2.453192e+01    7.733138e-01
  2.454779e+01    7.754177e-01
  2.456367e+01    8.037791e-01
  2.457954e+01    8.128509e-01
  2.459542e+01    8.051102e-01
  2.461130e+01    8.026175e-01
  2.462717e+01    8.064166e-01
  2.464305e+01    8.141183e-01
  2.465892e+01    7.872244e-01
  2.467480e+01    7.913415e-01
  2.469067e+01    8.112574e-01
  2.470655e+01    8.009117e-01
  2.472242e+01    7.944351e-01
  2.473830e+01    7.937967e-01
  2.475418e+01    7.845659e-01
  2.477005e+01    7.780709e-01
  2.478593e+01    8.053648e-01
  2.480180e+01    7.919380e-01
  2.481768e+01    7.601783e-01
  2.483355e+01    7.786519e-01
  2.484943e+01    7.837862e-01
  2.486530e+01    7.896927e-01
  2.488118e+01    7.781671e-01
  2.489706e+01    7.774843e-01
  2.491293e+01    7.701962e-01
  2.492881e+01    7.687651e-01
  2.494468e+01    8.009503e-01
  2.496056e+01    8.076337e-01
  2.497643e+01    7.990820e-01
  2.499231e+01    8.120611e-01
  2.500819e+01    8.107891e-01
  2.502406e+01    7.902397e-01
  2.503994e+01    7.794639e-01
  2.505581e+01    7.991013e-01
  2.507169e+01    8.196473e-01
  2.508756e+01    8.066329e-01
  2.510344e+01    8.151917e-01
  2.511931e+01    7.982975e-01
  2.513519e+01    8.032902e-01
  2.515107e+01    7.943165e-01
  2.516694e+01    8.091369e-01
  2.518282e+01    8.171837e-01
  2.519869e+01    8.340521e-01
  2.521457e+01    8.280454e-01
  2.523044e+01    8.383980e-01
  2.524632e+01    8.437898e-01
  2.526219e+01    8.338498e-01
  2.527807e+01    8.553392e-01
  2.529395e+01    8.796200e-01
  2.530982e+01    8.790941e-01
  2.532570e+01    8.753997e-01
  2.534157e+01    8.754146e-01
  2.535745e+01    8.684552e-01
  2.537332e+01    8.659590e-01
  2.538920e+01    8.593519e-01
  2.540507e+01    8.755124e-01
  2.542095e+01    9.078710e-01
  2.543683e+01    9.430357e-01
  2.545270e+01    9.395242e-01
  2.546858e+01    9.321077e-01
  2.548445e+01    9.502710e-01
  2.550033e+01    9.719784e-01
  2.551620e+01    9.836574e-01
  2.553208e+01    9.740754e-01
  2.554795e+01    1.013718e+00
  2.556383e+01    1.045071e+00
  2.557971e+01    1.054564e+00
  2.559558e+01    1.102266e+00
  2.561146e+01    1.118920e+00
  2.562733e+01    1.168944e+00
  2.564321e+01    1.204858e+00
  2.565908e+01    1.241606e+00
  2.567496e+01    1.296930e+00
  2.569083e+01    1.343887e+00
  2.570671e+01    1.418945e+00
  2.572259e+01    1.530027e+00
  2.573846e+01    1.663506e+00
  2.575434e+01    1.802588e+00
  2.577021e+01    1.963019e+00
  2.578609e+01    2.182586e+00
  2.580196e+01    2.459208e+00
  2.581784e+01    2.796056e+00
  2.583371e+01    3.115109e+00
  2.584959e+01    3.598044e+00
  2.586547e+01    4.122313e+00
  2.588134e+01    4.676960e+00
  2.589722e+01    5.359896e+00
  2.591309e+01    6.055744e+00
  2.592897e+01    6.755802e+00
  2.594484e+01    7.375523e+00
  2.596072e+01    7.776098e+00
  2.597660e+01    8.045236e+00
  2.599247e+01    8.025587e+00
  2.600835e+01    7.768799e+00
  2.602422e+01    7.079126e+00
  2.604010e+01    6.254782e+00
  2.605597e+01    5.435734e+00
  2.607185e+01    4.695637e+00
  2.608772e+01    3.975133e+00
  2.610360e+01    3.352406e+00
  2.611948e+01    2.912913e+00
  2.613535e+01    2.583796e+00
  2.615123e+01    2.310362e+00
  2.616710e+01    2.058572e+00
  2.618298e+01    1.877426e+00
  2.619885e+01    1.752393e+00
  2.621473e+01    1.618493e+00
  2.623060e+01    1.501756e+00
  2.624648e+01    1.437501e+00
  2.626236e+01    1.350612e+00
  2.627823e+01    1.285691e+00
  2.629411e+01    1.199558e+00
  2.630998e+01    1.191818e+00
  2.632586e+01    1.179098e+00
  2.634173e+01    1.128616e+00
  2.635761e+01    1.083428e+00
  2.637348e+01    1.049184e+00
  2.638936e+01    1.031215e+00
  2.640524e+01    1.012358e+00
  2.642111e+01    9.821948e-01
  2.643699e+01    9.937320e-01
  2.645286e+01    9.939627e-01
  2.646874e+01    9.693979e-01
  2.648461e+01    9.602193e-01
  2.650049e+01    9.519451e-01
  2.651636e+01    9.703568e-01
  2.653224e+01    9.629239e-01
  2.654812e+01    9.416945e-01
  2.656399e+01    9.253693e-01
  2.657987e+01    9.114327e-01
  2.659574e+01    9.296382e-01
  2.661162e+01    9.121347e-01
  2.662749e+01    8.963752e-01
  2.664337e+01    9.019834e-01
  2.665924e+01    8.924283e-01
  2.667512e+01    8.918536e-01
  2.669100e+01    9.014946e-01
  2.670687e+01    9.105442e-01
  2.672275e+01    8.833337e-01
  2.673862e+01    8.795969e-01
  2.675450e+01    8.961598e-01
  2.677037e+01    9.080971e-01
  2.678625e+01    8.908857e-01
  2.680212e+01    8.890558e-01
  2.681800e+01    8.964270e-01
  2.683388e+01    8.922996e-01
  2.684975e+01    8.898269e-01
  2.686563e+01    8.891918e-01
  2.688150e+01    8.867939e-01
  2.689738e+01    8.823144e-01
  2.691325e+01    9.408076e-01
  2.692913e+01    9.215347e-01
  2.694501e+01    9.297532e-01
  2.696088e+01    9.431568e-01
  2.697676e+01    9.820005e-01
  2.699263e+01    9.911318e-01
  2.700851e+01    1.026010e+00
  2.702438e+01    1.049044e+00
  2.704026e+01    1.071742e+00
  2.705613e+01    1.115831e+00
  2.707201e+01    1.190024e+00
  2.708789e+01    1.240540e+00
  2.710376e+01    1.342227e+00
  2.711964e+01    1.454621e+00
  2.713551e+01    1.561958e+00
  2.715139e+01    1.669690e+00
  2.716726e+01    1.824951e+00
  2.718314e+01    1.993794e+00
  2.719901e+01    2.138399e+00
  2.721489e+01    2.244014e+00
  2.723077e+01    2.363409e+00
  2.724664e+01    2.376476e+00
  2.726252e+01    2.333836e+00
  2.727839e+01    2.211769e+00
  2.729427e+01    2.046551e+00
  2.731014e+01    1.868897e+00
  2.732602e+01    1.683176e+00
  2.734189e+01    1.520563e+00
  2.735777e+01    1.401835e+00
  2.737365e+01    1.301417e+00
  2.738952e+01    1.200054e+00
  2.740540e+01    1.150453e+00
  2.742127e+01    1.094724e+00
  2.743715e+01    1.044734e+00
  2.745302e+01    1.029053e+00
  2.746890e+01    9.790308e-01
  2.748477e+01    9.626195e-01
  2.750065e+01    9.165974e-01
  2.751653e+01    8.935348e-01
  2.753240e+01    8.954861e-01
  2.754828e+01    8.823375e-01
  2.756415e+01    8.815205e-01
  2.758003e+01    8.819464e-01
  2.759590e+01    8.730063e-01
  2.761178e+01    8.576565e-01
  2.762765e+01    8.486182e-01
  2.764353e+01    8.476556e-01
  2.765941e+01    8.361059e-01
  2.767528e+01    8.569544e-01
  2.769116e+01    8.253149e-01
  2.770703e+01    8.209469e-01
  2.772291e+01    8.073709e-01
  2.773878e+01    7.932018e-01
  2.775466e+01    8.092999e-01
  2.777054e+01    8.275760e-01
  2.778641e+01    8.374002e-01
  2.780229e+01    8.279210e-01
  2.781816e+01    8.212534e-01
  2.783404e+01    8.015619e-01
  2.784991e+01    8.073525e-01
  2.786579e+01    8.086137e-01
  2.788166e+01    8.029068e-01
  2.789754e+01    7.886697e-01
  2.791342e+01    7.935400e-01
  2.792929e+01    7.974089e-01
  2.794517e+01    7.920398e-01
  2.796104e+01    7.905399e-01
  2.797692e+01    7.849316e-01
  2.799279e+01    8.092178e-01
  2.800867e+01    8.180608e-01
  2.802454e+01    7.990444e-01
  2.804042e+01    7.740077e-01
  2.805630e+01    7.611556e-01
  2.807217e+01    7.602091e-01
  2.808805e+01    7.619856e-01
  2.810392e+01    7.742041e-01
  2.811980e+01    7.766268e-01
  2.813567e+01    7.747842e-01
  2.815155e+01    7.861463e-01
  2.816742e+01    7.730404e-01
  2.818330e+01    7.945148e-01
  2.819918e+01    7.903176e-01
  2.821505e+01    7.793022e-01
  2.823093e+01    7.704578e-01
  2.824680e+01    7.565113e-01
  2.826268e+01    7.548484e-01
  2.827855e+01    7.634638e-01
  2.829443e+01    7.881361e-01
  2.831030e+01    7.656465e-01
  2.832618e+01    7.682297e-01
  2.834206e+01    7.768091e-01
  2.835793e+01    7.674592e-01
  2.837381e+01    7.549009e-01
  2.838968e+01    7.526702e-01
  2.840556e+01    7.743070e-01
  2.842143e+01    7.823833e-01
  2.843731e+01    7.760632e-01
  2.845318e+01    7.597497e-01
  2.846906e+01    7.658447e-01
  2.848494e+01    7.596433e-01
  2.850081e+01    7.532964e-01
  2.851669e+01    7.784519e-01
  2.853256e+01    7.577875e-01
  2.854844e+01    7.491066e-01
  2.856431e+01    7.405089e-01
  2.858019e+01    7.504741e-01
  2.859606e+01    7.644043e-01
  2.861194e+01    7.673026e-01
  2.862782e+01    7.216209e-01
  2.864369e+01    7.282819e-01
  2.865957e+01    7.290440e-01
  2.867544e+01    7.419569e-01
  2.869132e+01    7.342887e-01
  2.870719e+01    7.446274e-01
  2.872307e+01    7.417600e-01
  2.873895e+01    7.317910e-01
  2.875482e+01    7.343058e-01
  2.877070e+01    7.503586e-01
  2.878657e+01    7.708346e-01
  2.880245e+01    7.408370e-01
  2.881832e+01    7.444111e-01
  2.883420e+01    7.584859e-01
  2.885007e+01    7.418730e-01
  2.886595e+01    7.404885e-01
  2.888183e+01    7.265007e-01
  2.889770e+01    7.221070e-01
  2.891358e+01    7.399054e-01
  2.892945e+01    7.333535e-01
  2.894533e+01    7.315223e-01
  2.896120e+01    7.334140e-01
  2.897708e+01    7.280334e-01
  2.899295e+01    7.261901e-01
  2.900883e+01    7.281836e-01
  2.902471e+01    7.147875e-01
  2.904058e+01    7.251103e-01
  2.905646e+01    7.388448e-01
  2.907233e+01    7.186081e-01
  2.908821e+01    7.208202e-01
  2.910408e+01    7.127694e-01
  2.911996e+01    7.221276e-01
  2.913583e+01    7.338480e-01
  2.915171e+01    7.179682e-01
  2.916759e+01    7.165098e-01
  2.918346e+01    7.356218e-01
  2.919934e+01    7.312790e-01
  2.921521e+01    7.270211e-01
  2.923109e+01    7.435251e-01
  2.924696e+01    7.403051e-01
  2.926284e+01    7.137925e-01
  2.927871e+01    7.292885e-01
  2.929459e+01    7.403070e-01
  2.931047e+01    7.283077e-01
  2.932634e+01    7.277675e-01
  2.934222e+01    7.229510e-01
  2.935809e+01    7.250320e-01
  2.937397e+01    7.305623e-01
  2.938984e+01    7.232716e-01
  2.940572e+01    7.385975e-01
  2.942159e+01    7.209864e-01
  2.943747e+01    7.078529e-01
  2.945335e+01    7.189387e-01
  2.946922e+01    7.199565e-01
  2.948510e+01    7.146731e-01
  2.950097e+01    7.314496e-01
  2.951685e+01    7.338613e-01
  2.953272e+01    7.317674e-01
  2.954860e+01    7.211702e-01
  2.956447e+01    7.336990e-01
  2.958035e+01    7.353483e-01
  2.959623e+01    7.131956e-01
  2.961210e+01    7.231783e-01
  2.962798e+01    7.091609e-01
  2.964385e+01    7.081010e-01
  2.965973e+01    7.280743e-01
  2.967560e+01    7.215207e-01
  2.969148e+01    7.272543e-01
  2.970736e+01    7.174420e-01
  2.972323e+01    7.244805e-01
  2.973911e+01    7.113187e-01
  2.975498e+01    7.161283e-01
  2.977086e+01    7.313251e-01
  2.978673e+01    7.182389e-01
  2.980261e+01    7.251394e-01
  2.981848e+01    7.185878e-01
  2.983436e+01    7.200434e-01
  2.985024e+01    7.173551e-01
  2.986611e+01    7.040069e-01
  2.988199e+01    7.008736e-01
  2.989786e+01    7.151200e-01
  2.991374e+01    7.068910e-01
  2.992961e+01    7.072830e-01
  2.994549e+01    7.159544e-01
  2.996136e+01    7.066430e-01
  2.997724e+01    7.218673e-01
  2.999312e+01    7.526109e-01
  3.000899e+01    7.418004e-01
  3.002487e+01    7.351184e-01
  3.004074e+01    7.256500e-01
  3.005662e+01    7.283303e-01
  3.007249e+01    7.305508e-01
  3.008837e+01    7.195817e-01
  3.010424e+01    7.101986e-01
  3.012012e+01    7.115532e-01
  3.013600e+01    6.927816e-01
  3.015187e+01    6.871285e-01
  3.016775e+01    7.007445e-01
  3.018362e+01    7.122739e-01
  3.019950e+01    6.878950e-01
  3.021537e+01    7.051502e-01
  3.023125e+01    7.198994e-01
  3.024712e+01    7.033333e-01
  3.026300e+01    6.933070e-01
  3.027888e+01    7.121709e-01
  3.029475e+01    7.050631e-01
  3.031063e+01    7.120025e-01
  3.032650e+01    7.015125e-01
  3.034238e+01    7.049619e-01
  3.035825e+01    6.896347e-01
  3.037413e+01    6.866587e-01
  3.039000e+01    6.936272e-01
  3.040588e+01    7.133690e-01
  3.042176e+01    7.105585e-01
  3.043763e+01    7.103427e-01
  3.045351e+01    7.128285e-01
  3.046938e+01    7.006061e-01
  3.048526e+01    7.156653e-01
  3.050113e+01    7.203513e-01
  3.051701e+01    7.111804e-01
  3.053288e+01    6.904213e-01
  3.054876e+01    6.929058e-01
  3.056464e+01    6.949001e-01
  3.058051e+01    6.894380e-01
  3.059639e+01    7.154926e-01
  3.061226e+01    7.091200e-01
  3.062814e+01    7.224600e-01
  3.064401e+01    6.875986e-01
  3.065989e+01    7.054197e-01
  3.067577e+01    7.150600e-01
  3.069164e+01    7.388403e-01
  3.070752e+01    7.192061e-01
  3.072339e+01    7.076184e-01
  3.073927e+01    6.900689e-01
  3.075514e+01    7.245256e-01
  3.077102e+01    7.355110e-01
  3.078689e+01    6.950855e-01
  3.080277e+01    7.091902e-01
  3.081865e+01    7.134725e-01
  3.083452e+01    6.977630e-01
  3.085040e+01    7.086345e-01
  3.086627e+01    6.930245e-01
  3.088215e+01    7.092783e-01
  3.089802e+01    7.247199e-01
  3.091390e+01    7.224995e-01
  3.092977e+01    7.210487e-01
  3.094565e+01    7.288014e-01
  3.096153e+01    7.095628e-01
  3.097740e+01    7.104851e-01
  3.099328e+01    7.262223e-01
  3.100915e+01    7.455528e-01
  3.102503e+01    7.236628e-01
  3.104090e+01    7.207742e-01
  3.105678e+01    7.247256e-01
  3.107265e+01    7.258436e-01
  3.108853e+01    7.197782e-01
  3.110441e+01    7.233887e-01
  3.112028e+01    7.203525e-01
  3.113616e+01    7.102381e-01
  3.115203e+01    7.114462e-01
  3.116791e+01    7.060242e-01
  3.118378e+01    7.185891e-01
  3.119966e+01    7.366137e-01
  3.121553e+01    7.281228e-01
  3.123141e+01    7.137812e-01
  3.124729e+01    7.250184e-01
  3.126316e+01    7.335538e-01
  3.127904e+01    7.291263e-01
  3.129491e+01    7.451074e-01
  3.131079e+01    7.408876e-01
  3.132666e+01    7.287731e-01
  3.134254e+01    7.474616e-01
  3.135841e+01    7.513630e-01
  3.137429e+01    7.518785e-01
  3.139017e+01    7.514521e-01
  3.140604e+01    7.254135e-01
  3.142192e+01    7.472381e-01
  3.143779e+01    7.316997e-01
  3.145367e+01    7.338893e-01
  3.146954e+01    7.622359e-01
  3.148542e+01    7.579899e-01
  3.150129e+01    7.613760e-01
  3.151717e+01    7.596245e-01
  3.153305e+01    7.500991e-01
  3.154892e+01    7.459823e-01
  3.156480e+01    7.852892e-01
  3.158067e+01    7.964180e-01
  3.159655e+01    8.030681e-01
  3.161242e+01    8.347391e-01
  3.162830e+01    8.384809e-01
  3.164418e+01    8.148493e-01
  3.166005e+01    8.447261e-01
  3.167593e+01    8.664880e-01
  3.169180e+01    9.058655e-01
  3.170768e+01    9.496400e-01
  3.172355e+01    9.570365e-01
  3.173943e+01    1.029464e+00
  3.175530e+01    1.076536e+00
  3.177118e+01    1.151525e+00
  3.178706e+01    1.214448e+00
  3.180293e+01    1.296856e+00
  3.181881e+01    1.414137e+00
  3.183468e+01    1.574132e+00
  3.185056e+01    1.729990e+00
  3.186643e+01    1.879953e+00
  3.188231e+01    2.049891e+00
  3.189818e+01    2.220391e+00
  3.191406e+01    2.283222e+00
  3.192994e+01    2.310178e+00
  3.194581e+01    2.329353e+00
  3.196169e+01    2.233626e+00
  3.197756e+01    2.120844e+00
  3.199344e+01    2.014054e+00
  3.200931e+01    1.800782e+00
  3.202519e+01    1.600320e+00
  3.204106e+01    1.442102e+00
  3.205694e+01    1.339561e+00
  3.207282e+01    1.214821e+00
  3.208869e+01    1.125427e+00
  3.210457e+01    1.035230e+00
  3.212044e+01    9.935977e-01
  3.213632e+01    9.714826e-01
  3.215219e+01    9.155484e-01
  3.216807e+01    8.830994e-01
  3.218394e+01    8.548051e-01
  3.219982e+01    8.486739e-01
  3.221570e+01    8.466508e-01
  3.223157e+01    8.112953e-01
  3.224745e+01    8.006388e-01
  3.226332e+01    7.953851e-01
  3.227920e+01    7.773973e-01
  3.229507e+01    7.523462e-01
  3.231095e+01    7.680655e-01
  3.232682e+01    7.540241e-01
  3.234270e+01    7.438191e-01
  3.235858e+01    7.574532e-01
  3.237445e+01    7.623349e-01
  3.239033e+01    7.579273e-01
  3.240620e+01    7.377704e-01
  3.242208e+01    7.434483e-01
  3.243795e+01    7.316808e-01
  3.245383e+01    7.597390e-01
  3.246970e+01    7.416276e-01
  3.248558e+01    7.202550e-01
  3.250146e+01    7.024401e-01
  3.251733e+01    7.114438e-01
  3.253321e+01    7.041292e-01
  3.254908e+01    7.324141e-01
