# == pyFAI calibration ==
# Distance Sample to Detector: 0.3999999939076516 m
# PONI: 9.750e-02, 1.135e-01 m
# Rotations: -0.000175 0.000000 -0.000000 rad
# 
# == Fit2d calibration ==
# Distance Sample-beamCenter: 400.000 mm
# Center: x=1514.000, y=1300.000 pix
# Tilt: 0.010 deg  TiltPlanRot: 0.010 deg
# 
# Detector Detector	 Spline= None	 PixelSize= 7.500e-05, 7.500e-05 m
#    Detector has a mask: False 
#    Detector has a dark current: False 
#    detector has a flat field: False 
# 
# Wavelength: 6.888e-11 m
# Mask applied: user provided
# Dark current applied: False
# Flat field applied: False
# Polarization factor: 0.99
# Normalization factor: 1.0
# --> /home/myspot/data/2024_07_Rosario/Ru-CGO-ex/2024-07-27_002_Ru-CGO-ex_Activtation_ramp_000002_data_000085.dat
#       q_nm^-1             I 
  2.003187e-02    0.000000e+00
  3.590745e-02    7.159866e-02
  5.178302e-02    7.652282e-02
  6.765859e-02    1.083260e-01
  8.353417e-02    8.947652e-02
  9.940974e-02    1.617768e-03
  1.152853e-01    0.000000e+00
  1.311609e-01    5.239660e-02
  1.470365e-01    6.883736e-02
  1.629120e-01    1.389385e-02
  1.787876e-01    2.565632e-02
  1.946632e-01    5.748492e-02
  2.105388e-01    8.492098e-02
  2.264143e-01    2.961127e-02
  2.422899e-01    3.148777e-02
  2.581655e-01    2.640839e-02
  2.740411e-01    0.000000e+00
  2.899166e-01    1.687165e-02
  3.057922e-01    6.489373e-02
  3.216678e-01    3.901101e-02
  3.375433e-01    1.398510e-02
  3.534189e-01    1.466360e-02
  3.692945e-01    2.922495e-02
  3.851701e-01    2.158295e-02
  4.010456e-01    4.351600e-02
  4.169212e-01    5.863251e-02
  4.327968e-01    6.450772e-02
  4.486724e-01    3.431027e-02
  4.645479e-01    2.077351e-02
  4.804235e-01    2.593298e-02
  4.962991e-01    2.820132e-02
  5.121747e-01    4.444990e-02
  5.280502e-01    3.877718e-02
  5.439258e-01    2.225312e-02
  5.598014e-01    2.754031e-02
  5.756770e-01    4.123082e-02
  5.915525e-01    4.189571e-02
  6.074281e-01    1.434441e-02
  6.233037e-01    2.259903e-02
  6.391793e-01    5.475009e-02
  6.550548e-01    5.464246e-02
  6.709304e-01    4.491648e-02
  6.868060e-01    1.358610e-02
  7.026815e-01    6.522458e-03
  7.185571e-01    1.068255e-02
  7.344327e-01    2.917637e-02
  7.503083e-01    4.415730e-02
  7.661838e-01    6.648011e-02
  7.820594e-01    1.086049e-01
  7.979350e-01    1.592405e-01
  8.138106e-01    2.138971e-01
  8.296861e-01    2.468239e-01
  8.455617e-01    2.850403e-01
  8.614373e-01    3.453082e-01
  8.773129e-01    4.104460e-01
  8.931884e-01    5.180556e-01
  9.090640e-01    5.431354e-01
  9.249396e-01    5.996481e-01
  9.408152e-01    7.403171e-01
  9.566907e-01    8.359687e-01
  9.725663e-01    8.539064e-01
  9.884419e-01    8.504626e-01
  1.004317e+00    9.956299e-01
  1.020193e+00    1.087356e+00
  1.036069e+00    1.128001e+00
  1.051944e+00    1.243835e+00
  1.067820e+00    1.213595e+00
  1.083695e+00    1.260739e+00
  1.099571e+00    1.241236e+00
  1.115446e+00    1.339749e+00
  1.131322e+00    1.419878e+00
  1.147198e+00    1.448377e+00
  1.163073e+00    1.484176e+00
  1.178949e+00    1.476650e+00
  1.194824e+00    1.556088e+00
  1.210700e+00    1.721690e+00
  1.226575e+00    1.979658e+00
  1.242451e+00    2.072808e+00
  1.258327e+00    2.363853e+00
  1.274202e+00    2.464412e+00
  1.290078e+00    2.449607e+00
  1.305953e+00    2.499414e+00
  1.321829e+00    2.602244e+00
  1.337705e+00    2.619676e+00
  1.353580e+00    2.704031e+00
  1.369456e+00    2.584458e+00
  1.385331e+00    2.534567e+00
  1.401207e+00    2.599017e+00
  1.417082e+00    2.671723e+00
  1.432958e+00    2.755332e+00
  1.448834e+00    2.770709e+00
  1.464709e+00    2.672806e+00
  1.480585e+00    2.775086e+00
  1.496460e+00    2.848472e+00
  1.512336e+00    2.817246e+00
  1.528211e+00    2.854529e+00
  1.544087e+00    2.883355e+00
  1.559963e+00    2.881008e+00
  1.575838e+00    2.859612e+00
  1.591714e+00    2.857191e+00
  1.607589e+00    2.922747e+00
  1.623465e+00    2.874736e+00
  1.639340e+00    2.983361e+00
  1.655216e+00    2.970286e+00
  1.671092e+00    2.732621e+00
  1.686967e+00    2.830518e+00
  1.702843e+00    2.814467e+00
  1.718718e+00    2.928565e+00
  1.734594e+00    2.900640e+00
  1.750469e+00    2.789401e+00
  1.766345e+00    2.779366e+00
  1.782221e+00    2.795414e+00
  1.798096e+00    2.756993e+00
  1.813972e+00    2.693645e+00
  1.829847e+00    2.675561e+00
  1.845723e+00    2.736550e+00
  1.861598e+00    2.708277e+00
  1.877474e+00    2.763486e+00
  1.893350e+00    2.691630e+00
  1.909225e+00    2.647593e+00
  1.925101e+00    2.720201e+00
  1.940976e+00    2.708107e+00
  1.956852e+00    2.859073e+00
  1.972727e+00    2.817742e+00
  1.988603e+00    2.754860e+00
  2.004479e+00    2.818551e+00
  2.020354e+00    2.695835e+00
  2.036230e+00    2.631453e+00
  2.052105e+00    2.674192e+00
  2.067981e+00    2.765851e+00
  2.083856e+00    2.726197e+00
  2.099732e+00    2.796801e+00
  2.115608e+00    2.738246e+00
  2.131483e+00    2.749360e+00
  2.147359e+00    2.721789e+00
  2.163234e+00    2.661424e+00
  2.179110e+00    2.602927e+00
  2.194985e+00    2.754912e+00
  2.210861e+00    2.752227e+00
  2.226737e+00    2.641951e+00
  2.242612e+00    2.602707e+00
  2.258488e+00    2.681807e+00
  2.274363e+00    2.714239e+00
  2.290239e+00    2.664455e+00
  2.306115e+00    2.637726e+00
  2.321990e+00    2.599237e+00
  2.337866e+00    2.619678e+00
  2.353741e+00    2.690767e+00
  2.369617e+00    2.793963e+00
  2.385492e+00    2.797725e+00
  2.401368e+00    2.844428e+00
  2.417244e+00    2.748784e+00
  2.433119e+00    2.739208e+00
  2.448995e+00    2.766863e+00
  2.464870e+00    2.771706e+00
  2.480746e+00    2.807817e+00
  2.496621e+00    2.780477e+00
  2.512497e+00    2.765052e+00
  2.528373e+00    2.766443e+00
  2.544248e+00    2.773990e+00
  2.560124e+00    2.726802e+00
  2.575999e+00    2.747325e+00
  2.591875e+00    2.732057e+00
  2.607750e+00    2.722584e+00
  2.623626e+00    2.736701e+00
  2.639502e+00    2.795589e+00
  2.655377e+00    2.912016e+00
  2.671253e+00    2.880584e+00
  2.687128e+00    2.839782e+00
  2.703004e+00    2.829867e+00
  2.718879e+00    2.863080e+00
  2.734755e+00    2.820266e+00
  2.750631e+00    2.811450e+00
  2.766506e+00    2.767277e+00
  2.782382e+00    2.825880e+00
  2.798257e+00    2.863739e+00
  2.814133e+00    2.789804e+00
  2.830008e+00    2.823229e+00
  2.845884e+00    2.782683e+00
  2.861760e+00    2.802650e+00
  2.877635e+00    2.833099e+00
  2.893511e+00    2.764333e+00
  2.909386e+00    2.822795e+00
  2.925262e+00    2.805646e+00
  2.941137e+00    2.856922e+00
  2.957013e+00    2.934633e+00
  2.972889e+00    2.830076e+00
  2.988764e+00    2.892890e+00
  3.004640e+00    2.961006e+00
  3.020515e+00    2.984049e+00
  3.036391e+00    2.862546e+00
  3.052266e+00    2.872902e+00
  3.068142e+00    2.888575e+00
  3.084018e+00    2.769248e+00
  3.099893e+00    2.772369e+00
  3.115769e+00    2.878436e+00
  3.131644e+00    2.888592e+00
  3.147520e+00    2.773492e+00
  3.163395e+00    2.797201e+00
  3.179271e+00    2.825735e+00
  3.195147e+00    2.930857e+00
  3.211022e+00    2.874812e+00
  3.226898e+00    2.812775e+00
  3.242773e+00    2.838069e+00
  3.258649e+00    2.876864e+00
  3.274525e+00    2.931907e+00
  3.290400e+00    2.948796e+00
  3.306276e+00    2.889376e+00
  3.322151e+00    2.788166e+00
  3.338027e+00    2.847862e+00
  3.353902e+00    2.867155e+00
  3.369778e+00    2.858781e+00
  3.385654e+00    2.903181e+00
  3.401529e+00    2.854626e+00
  3.417405e+00    2.876348e+00
  3.433280e+00    2.919193e+00
  3.449156e+00    2.921974e+00
  3.465031e+00    2.840577e+00
  3.480907e+00    2.912172e+00
  3.496783e+00    2.935431e+00
  3.512658e+00    2.880067e+00
  3.528534e+00    2.913387e+00
  3.544409e+00    2.953668e+00
  3.560285e+00    2.940075e+00
  3.576160e+00    2.912535e+00
  3.592036e+00    2.909485e+00
  3.607912e+00    2.918693e+00
  3.623787e+00    2.975555e+00
  3.639663e+00    2.954544e+00
  3.655538e+00    2.908202e+00
  3.671414e+00    2.890765e+00
  3.687289e+00    2.907352e+00
  3.703165e+00    3.015079e+00
  3.719041e+00    3.098372e+00
  3.734916e+00    3.036793e+00
  3.750792e+00    2.957306e+00
  3.766667e+00    2.911070e+00
  3.782543e+00    2.979370e+00
  3.798418e+00    3.013811e+00
  3.814294e+00    2.944425e+00
  3.830170e+00    2.916874e+00
  3.846045e+00    2.882868e+00
  3.861921e+00    2.945317e+00
  3.877796e+00    2.969144e+00
  3.893672e+00    2.987137e+00
  3.909547e+00    2.918097e+00
  3.925423e+00    2.960686e+00
  3.941299e+00    2.936430e+00
  3.957174e+00    2.965640e+00
  3.973050e+00    3.003033e+00
  3.988925e+00    3.019556e+00
  4.004801e+00    2.976701e+00
  4.020676e+00    2.992632e+00
  4.036552e+00    3.033329e+00
  4.052428e+00    2.966413e+00
  4.068303e+00    2.911808e+00
  4.084179e+00    2.997839e+00
  4.100054e+00    2.913399e+00
  4.115930e+00    2.868163e+00
  4.131806e+00    2.839515e+00
  4.147681e+00    2.935841e+00
  4.163557e+00    3.041241e+00
  4.179432e+00    3.062034e+00
  4.195308e+00    3.055851e+00
  4.211183e+00    3.059651e+00
  4.227059e+00    3.058085e+00
  4.242935e+00    3.018883e+00
  4.258810e+00    3.116302e+00
  4.274686e+00    2.997630e+00
  4.290561e+00    3.011845e+00
  4.306437e+00    3.033225e+00
  4.322312e+00    3.018721e+00
  4.338188e+00    2.956264e+00
  4.354064e+00    2.922276e+00
  4.369939e+00    3.024172e+00
  4.385815e+00    3.035110e+00
  4.401690e+00    3.036232e+00
  4.417566e+00    3.039155e+00
  4.433441e+00    3.001427e+00
  4.449317e+00    3.026931e+00
  4.465193e+00    3.020561e+00
  4.481068e+00    3.053973e+00
  4.496944e+00    3.107122e+00
  4.512819e+00    3.067329e+00
  4.528695e+00    3.092042e+00
  4.544570e+00    3.143376e+00
  4.560446e+00    3.129964e+00
  4.576322e+00    3.129657e+00
  4.592197e+00    3.142126e+00
  4.608073e+00    2.996768e+00
  4.623948e+00    3.008711e+00
  4.639824e+00    3.142411e+00
  4.655699e+00    3.050351e+00
  4.671575e+00    3.104616e+00
  4.687451e+00    3.069651e+00
  4.703326e+00    3.011384e+00
  4.719202e+00    3.047648e+00
  4.735077e+00    3.085250e+00
  4.750953e+00    3.033997e+00
  4.766828e+00    3.109229e+00
  4.782704e+00    3.095855e+00
  4.798580e+00    3.049264e+00
  4.814455e+00    3.161220e+00
  4.830331e+00    3.121703e+00
  4.846206e+00    3.075528e+00
  4.862082e+00    3.090797e+00
  4.877957e+00    3.146735e+00
  4.893833e+00    3.147668e+00
  4.909709e+00    3.132140e+00
  4.925584e+00    3.066869e+00
  4.941460e+00    3.058034e+00
  4.957335e+00    3.083952e+00
  4.973211e+00    3.086825e+00
  4.989086e+00    3.062200e+00
  5.004962e+00    3.149085e+00
  5.020838e+00    3.062963e+00
  5.036713e+00    3.083169e+00
  5.052589e+00    3.071235e+00
  5.068464e+00    3.084384e+00
  5.084340e+00    3.109430e+00
  5.100216e+00    3.123480e+00
  5.116091e+00    3.157815e+00
  5.131967e+00    3.116277e+00
  5.147842e+00    3.093363e+00
  5.163718e+00    3.053951e+00
  5.179593e+00    3.118124e+00
  5.195469e+00    3.138075e+00
  5.211345e+00    3.049197e+00
  5.227220e+00    3.102364e+00
  5.243096e+00    3.072742e+00
  5.258971e+00    3.069136e+00
  5.274847e+00    3.026394e+00
  5.290722e+00    3.021946e+00
  5.306598e+00    3.105489e+00
  5.322474e+00    3.155220e+00
  5.338349e+00    3.186544e+00
  5.354225e+00    3.084795e+00
  5.370100e+00    3.048621e+00
  5.385976e+00    3.096311e+00
  5.401851e+00    3.089513e+00
  5.417727e+00    3.081960e+00
  5.433603e+00    3.078541e+00
  5.449478e+00    2.982529e+00
  5.465354e+00    3.014432e+00
  5.481229e+00    3.083849e+00
  5.497105e+00    3.055556e+00
  5.512980e+00    3.044450e+00
  5.528856e+00    3.038357e+00
  5.544732e+00    3.091293e+00
  5.560607e+00    3.118258e+00
  5.576483e+00    3.064635e+00
  5.592358e+00    3.106242e+00
  5.608234e+00    2.991405e+00
  5.624109e+00    3.004644e+00
  5.639985e+00    3.110311e+00
  5.655861e+00    3.036678e+00
  5.671736e+00    2.953682e+00
  5.687612e+00    3.006809e+00
  5.703487e+00    3.015484e+00
  5.719363e+00    3.024174e+00
  5.735238e+00    3.028313e+00
  5.751114e+00    3.048761e+00
  5.766990e+00    2.992509e+00
  5.782865e+00    3.032269e+00
  5.798741e+00    3.014869e+00
  5.814616e+00    2.988104e+00
  5.830492e+00    3.056790e+00
  5.846367e+00    3.054624e+00
  5.862243e+00    3.014909e+00
  5.878119e+00    2.955508e+00
  5.893994e+00    3.044514e+00
  5.909870e+00    3.010933e+00
  5.925745e+00    2.908155e+00
  5.941621e+00    2.971938e+00
  5.957497e+00    3.025293e+00
  5.973372e+00    2.996427e+00
  5.989248e+00    3.004316e+00
  6.005123e+00    3.023256e+00
  6.020999e+00    3.026787e+00
  6.036874e+00    2.985012e+00
  6.052750e+00    3.006504e+00
  6.068626e+00    3.031829e+00
  6.084501e+00    2.996511e+00
  6.100377e+00    2.934350e+00
  6.116252e+00    2.998304e+00
  6.132128e+00    3.044508e+00
  6.148003e+00    3.035045e+00
  6.163879e+00    3.035767e+00
  6.179755e+00    2.956306e+00
  6.195630e+00    2.954907e+00
  6.211506e+00    3.000938e+00
  6.227381e+00    3.057979e+00
  6.243257e+00    3.049629e+00
  6.259132e+00    2.962201e+00
  6.275008e+00    3.043508e+00
  6.290884e+00    2.989025e+00
  6.306759e+00    3.028729e+00
  6.322635e+00    3.042756e+00
  6.338510e+00    2.973015e+00
  6.354386e+00    3.016948e+00
  6.370261e+00    3.034829e+00
  6.386137e+00    3.011382e+00
  6.402013e+00    3.023016e+00
  6.417888e+00    2.961098e+00
  6.433764e+00    2.926398e+00
  6.449639e+00    2.986201e+00
  6.465515e+00    2.973526e+00
  6.481390e+00    3.010117e+00
  6.497266e+00    2.974885e+00
  6.513142e+00    2.970892e+00
  6.529017e+00    2.996886e+00
  6.544893e+00    2.960112e+00
  6.560768e+00    3.011638e+00
  6.576644e+00    3.040675e+00
  6.592519e+00    3.026723e+00
  6.608395e+00    3.035056e+00
  6.624271e+00    3.059770e+00
  6.640146e+00    3.062335e+00
  6.656022e+00    3.042249e+00
  6.671897e+00    2.982007e+00
  6.687773e+00    2.975413e+00
  6.703648e+00    2.959598e+00
  6.719524e+00    2.962609e+00
  6.735400e+00    2.957894e+00
  6.751275e+00    3.003417e+00
  6.767151e+00    2.965612e+00
  6.783026e+00    3.007303e+00
  6.798902e+00    3.030268e+00
  6.814777e+00    3.030049e+00
  6.830653e+00    3.006285e+00
  6.846529e+00    2.961768e+00
  6.862404e+00    2.964351e+00
  6.878280e+00    2.997735e+00
  6.894155e+00    3.034585e+00
  6.910031e+00    2.930186e+00
  6.925907e+00    2.904703e+00
  6.941782e+00    3.004673e+00
  6.957658e+00    2.922216e+00
  6.973533e+00    2.974047e+00
  6.989409e+00    2.983628e+00
  7.005284e+00    2.935932e+00
  7.021160e+00    2.989716e+00
  7.037036e+00    3.012937e+00
  7.052911e+00    2.993697e+00
  7.068787e+00    2.989291e+00
  7.084662e+00    2.996242e+00
  7.100538e+00    2.991041e+00
  7.116413e+00    3.028887e+00
  7.132289e+00    2.960643e+00
  7.148165e+00    2.975063e+00
  7.164040e+00    2.925821e+00
  7.179916e+00    2.902952e+00
  7.195791e+00    2.977571e+00
  7.211667e+00    2.966534e+00
  7.227542e+00    2.979749e+00
  7.243418e+00    2.913582e+00
  7.259294e+00    2.916994e+00
  7.275169e+00    2.922379e+00
  7.291045e+00    2.964470e+00
  7.306920e+00    2.984833e+00
  7.322796e+00    2.998956e+00
  7.338671e+00    2.940968e+00
  7.354547e+00    2.953561e+00
  7.370423e+00    2.993918e+00
  7.386298e+00    3.010874e+00
  7.402174e+00    2.986336e+00
  7.418049e+00    2.904117e+00
  7.433925e+00    2.895323e+00
  7.449800e+00    2.898250e+00
  7.465676e+00    2.931035e+00
  7.481552e+00    2.923669e+00
  7.497427e+00    2.900851e+00
  7.513303e+00    2.902925e+00
  7.529178e+00    2.973081e+00
  7.545054e+00    2.942447e+00
  7.560929e+00    2.933862e+00
  7.576805e+00    2.938168e+00
  7.592681e+00    2.907760e+00
  7.608556e+00    2.960252e+00
  7.624432e+00    2.910737e+00
  7.640307e+00    2.892718e+00
  7.656183e+00    2.866345e+00
  7.672058e+00    2.832651e+00
  7.687934e+00    2.830238e+00
  7.703810e+00    2.866755e+00
  7.719685e+00    2.909771e+00
  7.735561e+00    2.907798e+00
  7.751436e+00    2.890466e+00
  7.767312e+00    2.905329e+00
  7.783187e+00    2.943978e+00
  7.799063e+00    2.891798e+00
  7.814939e+00    2.867644e+00
  7.830814e+00    2.892135e+00
  7.846690e+00    2.957117e+00
  7.862565e+00    2.938175e+00
  7.878441e+00    2.938210e+00
  7.894317e+00    2.858364e+00
  7.910192e+00    2.875290e+00
  7.926068e+00    2.872124e+00
  7.941943e+00    2.847022e+00
  7.957819e+00    2.807580e+00
  7.973694e+00    2.894450e+00
  7.989570e+00    2.904702e+00
  8.005446e+00    2.907324e+00
  8.021321e+00    2.895425e+00
  8.037197e+00    2.887465e+00
  8.053072e+00    2.913473e+00
  8.068948e+00    2.878370e+00
  8.084823e+00    2.908574e+00
  8.100699e+00    2.967789e+00
  8.116575e+00    2.953979e+00
  8.132450e+00    2.935162e+00
  8.148326e+00    2.918727e+00
  8.164201e+00    2.934718e+00
  8.180077e+00    2.873191e+00
  8.195952e+00    2.890661e+00
  8.211828e+00    2.970932e+00
  8.227704e+00    2.965212e+00
  8.243579e+00    2.913316e+00
  8.259455e+00    2.949536e+00
  8.275330e+00    2.876337e+00
  8.291206e+00    2.908163e+00
  8.307081e+00    2.883568e+00
  8.322957e+00    2.946904e+00
  8.338833e+00    2.942137e+00
  8.354708e+00    2.890840e+00
  8.370584e+00    2.884629e+00
  8.386459e+00    2.860985e+00
  8.402335e+00    2.856999e+00
  8.418210e+00    2.873402e+00
  8.434086e+00    2.831197e+00
  8.449962e+00    2.847715e+00
  8.465837e+00    2.825730e+00
  8.481713e+00    2.830743e+00
  8.497588e+00    2.890671e+00
  8.513464e+00    2.859148e+00
  8.529339e+00    2.769707e+00
  8.545215e+00    2.838734e+00
  8.561091e+00    2.899848e+00
  8.576966e+00    2.944050e+00
  8.592842e+00    2.888932e+00
  8.608717e+00    2.860344e+00
  8.624593e+00    2.790454e+00
  8.640468e+00    2.840739e+00
  8.656344e+00    2.940429e+00
  8.672220e+00    2.870723e+00
  8.688095e+00    2.808502e+00
  8.703971e+00    2.754450e+00
  8.719846e+00    2.793365e+00
  8.735722e+00    2.799598e+00
  8.751598e+00    2.838839e+00
  8.767473e+00    2.841469e+00
  8.783349e+00    2.858181e+00
  8.799224e+00    2.801309e+00
  8.815100e+00    2.739682e+00
  8.830975e+00    2.797759e+00
  8.846851e+00    2.861735e+00
  8.862727e+00    2.846303e+00
  8.878602e+00    2.857178e+00
  8.894478e+00    2.785632e+00
  8.910353e+00    2.800422e+00
  8.926229e+00    2.859052e+00
  8.942104e+00    2.771050e+00
  8.957980e+00    2.830287e+00
  8.973856e+00    2.837393e+00
  8.989731e+00    2.735889e+00
  9.005607e+00    2.753953e+00
  9.021482e+00    2.758624e+00
  9.037358e+00    2.788280e+00
  9.053233e+00    2.844094e+00
  9.069109e+00    2.794188e+00
  9.084985e+00    2.810367e+00
  9.100860e+00    2.829260e+00
  9.116736e+00    2.804534e+00
  9.132611e+00    2.837110e+00
  9.148487e+00    2.802778e+00
  9.164362e+00    2.799969e+00
  9.180238e+00    2.833335e+00
  9.196114e+00    2.800232e+00
  9.211989e+00    2.746377e+00
  9.227865e+00    2.748816e+00
  9.243740e+00    2.757139e+00
  9.259616e+00    2.781260e+00
  9.275491e+00    2.753921e+00
  9.291367e+00    2.701148e+00
  9.307243e+00    2.685159e+00
  9.323118e+00    2.745571e+00
  9.338994e+00    2.795845e+00
  9.354869e+00    2.732547e+00
  9.370745e+00    2.736269e+00
  9.386620e+00    2.746512e+00
  9.402496e+00    2.747198e+00
  9.418372e+00    2.726993e+00
  9.434247e+00    2.696077e+00
  9.450123e+00    2.721303e+00
  9.465998e+00    2.775981e+00
  9.481874e+00    2.784134e+00
  9.497749e+00    2.788792e+00
  9.513625e+00    2.767207e+00
  9.529501e+00    2.733969e+00
  9.545376e+00    2.690113e+00
  9.561252e+00    2.666339e+00
  9.577127e+00    2.668924e+00
  9.593003e+00    2.680202e+00
  9.608878e+00    2.727522e+00
  9.624754e+00    2.716124e+00
  9.640630e+00    2.711612e+00
  9.656505e+00    2.711958e+00
  9.672381e+00    2.707213e+00
  9.688256e+00    2.639268e+00
  9.704132e+00    2.663118e+00
  9.720008e+00    2.689387e+00
  9.735883e+00    2.678882e+00
  9.751759e+00    2.711385e+00
  9.767634e+00    2.735208e+00
  9.783510e+00    2.715598e+00
  9.799385e+00    2.622483e+00
  9.815261e+00    2.593859e+00
  9.831137e+00    2.725994e+00
  9.847012e+00    2.668264e+00
  9.862888e+00    2.666322e+00
  9.878763e+00    2.637782e+00
  9.894639e+00    2.598296e+00
  9.910514e+00    2.653326e+00
  9.926390e+00    2.633252e+00
  9.942266e+00    2.651426e+00
  9.958141e+00    2.635166e+00
  9.974017e+00    2.640926e+00
  9.989892e+00    2.664657e+00
  1.000577e+01    2.671764e+00
  1.002164e+01    2.678098e+00
  1.003752e+01    2.638773e+00
  1.005339e+01    2.639644e+00
  1.006927e+01    2.620023e+00
  1.008515e+01    2.632066e+00
  1.010102e+01    2.662612e+00
  1.011690e+01    2.653421e+00
  1.013277e+01    2.653103e+00
  1.014865e+01    2.669423e+00
  1.016452e+01    2.637148e+00
  1.018040e+01    2.587114e+00
  1.019627e+01    2.619611e+00
  1.021215e+01    2.668648e+00
  1.022803e+01    2.631274e+00
  1.024390e+01    2.604225e+00
  1.025978e+01    2.570580e+00
  1.027565e+01    2.613789e+00
  1.029153e+01    2.616029e+00
  1.030740e+01    2.662002e+00
  1.032328e+01    2.615804e+00
  1.033915e+01    2.600083e+00
  1.035503e+01    2.627322e+00
  1.037091e+01    2.620929e+00
  1.038678e+01    2.579818e+00
  1.040266e+01    2.608142e+00
  1.041853e+01    2.609211e+00
  1.043441e+01    2.573927e+00
  1.045028e+01    2.545134e+00
  1.046616e+01    2.551993e+00
  1.048204e+01    2.659637e+00
  1.049791e+01    2.645195e+00
  1.051379e+01    2.590278e+00
  1.052966e+01    2.585963e+00
  1.054554e+01    2.558013e+00
  1.056141e+01    2.575630e+00
  1.057729e+01    2.572747e+00
  1.059316e+01    2.597511e+00
  1.060904e+01    2.552860e+00
  1.062492e+01    2.555666e+00
  1.064079e+01    2.509382e+00
  1.065667e+01    2.522655e+00
  1.067254e+01    2.553641e+00
  1.068842e+01    2.549365e+00
  1.070429e+01    2.532971e+00
  1.072017e+01    2.506422e+00
  1.073604e+01    2.492931e+00
  1.075192e+01    2.530441e+00
  1.076780e+01    2.577109e+00
  1.078367e+01    2.495501e+00
  1.079955e+01    2.492151e+00
  1.081542e+01    2.506421e+00
  1.083130e+01    2.466848e+00
  1.084717e+01    2.488693e+00
  1.086305e+01    2.539792e+00
  1.087892e+01    2.535025e+00
  1.089480e+01    2.526938e+00
  1.091068e+01    2.501975e+00
  1.092655e+01    2.507008e+00
  1.094243e+01    2.464234e+00
  1.095830e+01    2.454228e+00
  1.097418e+01    2.394805e+00
  1.099005e+01    2.451085e+00
  1.100593e+01    2.500511e+00
  1.102180e+01    2.431441e+00
  1.103768e+01    2.370722e+00
  1.105356e+01    2.383278e+00
  1.106943e+01    2.446662e+00
  1.108531e+01    2.442703e+00
  1.110118e+01    2.488401e+00
  1.111706e+01    2.480742e+00
  1.113293e+01    2.471785e+00
  1.114881e+01    2.417795e+00
  1.116468e+01    2.425646e+00
  1.118056e+01    2.427443e+00
  1.119644e+01    2.429142e+00
  1.121231e+01    2.447599e+00
  1.122819e+01    2.410120e+00
  1.124406e+01    2.369874e+00
  1.125994e+01    2.386415e+00
  1.127581e+01    2.433259e+00
  1.129169e+01    2.415354e+00
  1.130756e+01    2.404868e+00
  1.132344e+01    2.422484e+00
  1.133932e+01    2.412213e+00
  1.135519e+01    2.409985e+00
  1.137107e+01    2.399626e+00
  1.138694e+01    2.405421e+00
  1.140282e+01    2.427080e+00
  1.141869e+01    2.421647e+00
  1.143457e+01    2.399573e+00
  1.145045e+01    2.386766e+00
  1.146632e+01    2.367229e+00
  1.148220e+01    2.384048e+00
  1.149807e+01    2.375821e+00
  1.151395e+01    2.367782e+00
  1.152982e+01    2.379873e+00
  1.154570e+01    2.341485e+00
  1.156157e+01    2.366438e+00
  1.157745e+01    2.353983e+00
  1.159333e+01    2.387454e+00
  1.160920e+01    2.409037e+00
  1.162508e+01    2.363051e+00
  1.164095e+01    2.348536e+00
  1.165683e+01    2.303984e+00
  1.167270e+01    2.308107e+00
  1.168858e+01    2.340474e+00
  1.170445e+01    2.377390e+00
  1.172033e+01    2.342243e+00
  1.173621e+01    2.311626e+00
  1.175208e+01    2.323324e+00
  1.176796e+01    2.308292e+00
  1.178383e+01    2.287142e+00
  1.179971e+01    2.279320e+00
  1.181558e+01    2.316690e+00
  1.183146e+01    2.357585e+00
  1.184733e+01    2.390137e+00
  1.186321e+01    2.371432e+00
  1.187909e+01    2.347077e+00
  1.189496e+01    2.303102e+00
  1.191084e+01    2.312666e+00
  1.192671e+01    2.319055e+00
  1.194259e+01    2.305585e+00
  1.195846e+01    2.328227e+00
  1.197434e+01    2.335777e+00
  1.199021e+01    2.342054e+00
  1.200609e+01    2.346978e+00
  1.202197e+01    2.305508e+00
  1.203784e+01    2.316061e+00
  1.205372e+01    2.301300e+00
  1.206959e+01    2.254724e+00
  1.208547e+01    2.248529e+00
  1.210134e+01    2.310033e+00
  1.211722e+01    2.300211e+00
  1.213309e+01    2.313833e+00
  1.214897e+01    2.326263e+00
  1.216485e+01    2.331980e+00
  1.218072e+01    2.321799e+00
  1.219660e+01    2.276823e+00
  1.221247e+01    2.283071e+00
  1.222835e+01    2.248151e+00
  1.224422e+01    2.271523e+00
  1.226010e+01    2.301714e+00
  1.227597e+01    2.309796e+00
  1.229185e+01    2.323350e+00
  1.230773e+01    2.298926e+00
  1.232360e+01    2.293592e+00
  1.233948e+01    2.318650e+00
  1.235535e+01    2.296019e+00
  1.237123e+01    2.313029e+00
  1.238710e+01    2.315034e+00
  1.240298e+01    2.351825e+00
  1.241886e+01    2.298654e+00
  1.243473e+01    2.300904e+00
  1.245061e+01    2.356564e+00
  1.246648e+01    2.343155e+00
  1.248236e+01    2.294974e+00
  1.249823e+01    2.340086e+00
  1.251411e+01    2.317760e+00
  1.252998e+01    2.328197e+00
  1.254586e+01    2.346522e+00
  1.256174e+01    2.339567e+00
  1.257761e+01    2.327749e+00
  1.259349e+01    2.384297e+00
  1.260936e+01    2.404025e+00
  1.262524e+01    2.393264e+00
  1.264111e+01    2.376098e+00
  1.265699e+01    2.422388e+00
  1.267286e+01    2.428037e+00
  1.268874e+01    2.440562e+00
  1.270462e+01    2.468942e+00
  1.272049e+01    2.471923e+00
  1.273637e+01    2.544809e+00
  1.275224e+01    2.584357e+00
  1.276812e+01    2.594201e+00
  1.278399e+01    2.582397e+00
  1.279987e+01    2.638798e+00
  1.281574e+01    2.690308e+00
  1.283162e+01    2.790091e+00
  1.284750e+01    2.868122e+00
  1.286337e+01    2.915420e+00
  1.287925e+01    3.016525e+00
  1.289512e+01    3.101133e+00
  1.291100e+01    3.195199e+00
  1.292687e+01    3.402637e+00
  1.294275e+01    3.647379e+00
  1.295862e+01    3.922745e+00
  1.297450e+01    4.274657e+00
  1.299038e+01    4.716927e+00
  1.300625e+01    5.309297e+00
  1.302213e+01    5.936040e+00
  1.303800e+01    6.788045e+00
  1.305388e+01    7.920811e+00
  1.306975e+01    9.281099e+00
  1.308563e+01    1.067232e+01
  1.310150e+01    1.213890e+01
  1.311738e+01    1.336934e+01
  1.313326e+01    1.466506e+01
  1.314913e+01    1.598828e+01
  1.316501e+01    1.720442e+01
  1.318088e+01    1.801998e+01
  1.319676e+01    1.817141e+01
  1.321263e+01    1.747255e+01
  1.322851e+01    1.583051e+01
  1.324438e+01    1.369798e+01
  1.326026e+01    1.146118e+01
  1.327614e+01    9.695130e+00
  1.329201e+01    8.158907e+00
  1.330789e+01    6.950441e+00
  1.332376e+01    6.025916e+00
  1.333964e+01    5.287655e+00
  1.335551e+01    4.823908e+00
  1.337139e+01    4.370544e+00
  1.338727e+01    3.958369e+00
  1.340314e+01    3.675289e+00
  1.341902e+01    3.465806e+00
  1.343489e+01    3.265097e+00
  1.345077e+01    3.108865e+00
  1.346664e+01    2.957282e+00
  1.348252e+01    2.866934e+00
  1.349839e+01    2.768141e+00
  1.351427e+01    2.668780e+00
  1.353015e+01    2.635841e+00
  1.354602e+01    2.575239e+00
  1.356190e+01    2.519701e+00
  1.357777e+01    2.451140e+00
  1.359365e+01    2.433396e+00
  1.360952e+01    2.406085e+00
  1.362540e+01    2.394097e+00
  1.364127e+01    2.359890e+00
  1.365715e+01    2.341874e+00
  1.367303e+01    2.325221e+00
  1.368890e+01    2.287259e+00
  1.370478e+01    2.266116e+00
  1.372065e+01    2.242283e+00
  1.373653e+01    2.247013e+00
  1.375240e+01    2.218219e+00
  1.376828e+01    2.199884e+00
  1.378415e+01    2.172780e+00
  1.380003e+01    2.187458e+00
  1.381591e+01    2.144225e+00
  1.383178e+01    2.109046e+00
  1.384766e+01    2.107634e+00
  1.386353e+01    2.077850e+00
  1.387941e+01    2.095862e+00
  1.389528e+01    2.119018e+00
  1.391116e+01    2.078030e+00
  1.392703e+01    2.110340e+00
  1.394291e+01    2.062673e+00
  1.395879e+01    2.072627e+00
  1.397466e+01    2.028170e+00
  1.399054e+01    2.010279e+00
  1.400641e+01    2.040123e+00
  1.402229e+01    2.058583e+00
  1.403816e+01    2.051443e+00
  1.405404e+01    2.014480e+00
  1.406991e+01    1.988490e+00
  1.408579e+01    1.985798e+00
  1.410167e+01    2.019707e+00
  1.411754e+01    2.025648e+00
  1.413342e+01    2.005528e+00
  1.414929e+01    2.017188e+00
  1.416517e+01    2.007594e+00
  1.418104e+01    1.984349e+00
  1.419692e+01    1.971011e+00
  1.421279e+01    1.972156e+00
  1.422867e+01    1.963676e+00
  1.424455e+01    1.980031e+00
  1.426042e+01    1.945129e+00
  1.427630e+01    1.938075e+00
  1.429217e+01    1.933954e+00
  1.430805e+01    1.918980e+00
  1.432392e+01    1.943251e+00
  1.433980e+01    1.954482e+00
  1.435568e+01    1.937429e+00
  1.437155e+01    1.926948e+00
  1.438743e+01    1.932643e+00
  1.440330e+01    1.910083e+00
  1.441918e+01    1.900635e+00
  1.443505e+01    1.929642e+00
  1.445093e+01    1.897640e+00
  1.446680e+01    1.908283e+00
  1.448268e+01    1.906336e+00
  1.449856e+01    1.930124e+00
  1.451443e+01    1.924317e+00
  1.453031e+01    1.920812e+00
  1.454618e+01    1.896570e+00
  1.456206e+01    1.910790e+00
  1.457793e+01    1.917143e+00
  1.459381e+01    1.905032e+00
  1.460968e+01    1.887914e+00
  1.462556e+01    1.918622e+00
  1.464144e+01    1.893911e+00
  1.465731e+01    1.899388e+00
  1.467319e+01    1.910170e+00
  1.468906e+01    1.901348e+00
  1.470494e+01    1.891611e+00
  1.472081e+01    1.895975e+00
  1.473669e+01    1.871457e+00
  1.475256e+01    1.907186e+00
  1.476844e+01    1.890166e+00
  1.478432e+01    1.883165e+00
  1.480019e+01    1.917498e+00
  1.481607e+01    1.942046e+00
  1.483194e+01    1.921945e+00
  1.484782e+01    1.908743e+00
  1.486369e+01    1.955219e+00
  1.487957e+01    1.927567e+00
  1.489544e+01    1.924331e+00
  1.491132e+01    1.949583e+00
  1.492720e+01    1.950418e+00
  1.494307e+01    1.980945e+00
  1.495895e+01    2.003829e+00
  1.497482e+01    2.023988e+00
  1.499070e+01    2.074064e+00
  1.500657e+01    2.119418e+00
  1.502245e+01    2.165437e+00
  1.503832e+01    2.289530e+00
  1.505420e+01    2.347771e+00
  1.507008e+01    2.435527e+00
  1.508595e+01    2.609390e+00
  1.510183e+01    2.739328e+00
  1.511770e+01    2.974335e+00
  1.513358e+01    3.268959e+00
  1.514945e+01    3.613498e+00
  1.516533e+01    4.005205e+00
  1.518120e+01    4.439059e+00
  1.519708e+01    4.830739e+00
  1.521296e+01    5.131128e+00
  1.522883e+01    5.474413e+00
  1.524471e+01    5.804511e+00
  1.526058e+01    6.042210e+00
  1.527646e+01    6.123861e+00
  1.529233e+01    6.005677e+00
  1.530821e+01    5.855337e+00
  1.532409e+01    5.426196e+00
  1.533996e+01    4.849267e+00
  1.535584e+01    4.263637e+00
  1.537171e+01    3.806545e+00
  1.538759e+01    3.367483e+00
  1.540346e+01    3.066318e+00
  1.541934e+01    2.807040e+00
  1.543521e+01    2.612917e+00
  1.545109e+01    2.472847e+00
  1.546697e+01    2.351958e+00
  1.548284e+01    2.220719e+00
  1.549872e+01    2.129886e+00
  1.551459e+01    2.054195e+00
  1.553047e+01    2.014552e+00
  1.554634e+01    1.946671e+00
  1.556222e+01    1.935013e+00
  1.557809e+01    1.891103e+00
  1.559397e+01    1.850459e+00
  1.560985e+01    1.808900e+00
  1.562572e+01    1.822096e+00
  1.564160e+01    1.783060e+00
  1.565747e+01    1.746065e+00
  1.567335e+01    1.775985e+00
  1.568922e+01    1.742712e+00
  1.570510e+01    1.729939e+00
  1.572097e+01    1.722495e+00
  1.573685e+01    1.727146e+00
  1.575273e+01    1.717587e+00
  1.576860e+01    1.705726e+00
  1.578448e+01    1.677633e+00
  1.580035e+01    1.658705e+00
  1.581623e+01    1.661699e+00
  1.583210e+01    1.677078e+00
  1.584798e+01    1.666534e+00
  1.586385e+01    1.635134e+00
  1.587973e+01    1.625907e+00
  1.589561e+01    1.625188e+00
  1.591148e+01    1.649708e+00
  1.592736e+01    1.619496e+00
  1.594323e+01    1.574821e+00
  1.595911e+01    1.543361e+00
  1.597498e+01    1.560315e+00
  1.599086e+01    1.627202e+00
  1.600673e+01    1.647582e+00
  1.602261e+01    1.635982e+00
  1.603849e+01    1.611834e+00
  1.605436e+01    1.611501e+00
  1.607024e+01    1.586608e+00
  1.608611e+01    1.562796e+00
  1.610199e+01    1.547344e+00
  1.611786e+01    1.548897e+00
  1.613374e+01    1.560994e+00
  1.614961e+01    1.570575e+00
  1.616549e+01    1.577286e+00
  1.618137e+01    1.558508e+00
  1.619724e+01    1.551475e+00
  1.621312e+01    1.541913e+00
  1.622899e+01    1.546845e+00
  1.624487e+01    1.544127e+00
  1.626074e+01    1.545014e+00
  1.627662e+01    1.532752e+00
  1.629250e+01    1.541268e+00
  1.630837e+01    1.550958e+00
  1.632425e+01    1.528691e+00
  1.634012e+01    1.518994e+00
  1.635600e+01    1.542142e+00
  1.637187e+01    1.549863e+00
  1.638775e+01    1.497469e+00
  1.640362e+01    1.480192e+00
  1.641950e+01    1.485724e+00
  1.643538e+01    1.487997e+00
  1.645125e+01    1.512931e+00
  1.646713e+01    1.503917e+00
  1.648300e+01    1.511503e+00
  1.649888e+01    1.523235e+00
  1.651475e+01    1.512831e+00
  1.653063e+01    1.531077e+00
  1.654650e+01    1.518765e+00
  1.656238e+01    1.492508e+00
  1.657826e+01    1.488351e+00
  1.659413e+01    1.480628e+00
  1.661001e+01    1.480569e+00
  1.662588e+01    1.481881e+00
  1.664176e+01    1.477903e+00
  1.665763e+01    1.468355e+00
  1.667351e+01    1.468400e+00
  1.668938e+01    1.454872e+00
  1.670526e+01    1.459631e+00
  1.672114e+01    1.475972e+00
  1.673701e+01    1.479015e+00
  1.675289e+01    1.453769e+00
  1.676876e+01    1.441960e+00
  1.678464e+01    1.440441e+00
  1.680051e+01    1.462548e+00
  1.681639e+01    1.480288e+00
  1.683226e+01    1.466702e+00
  1.684814e+01    1.470449e+00
  1.686402e+01    1.475701e+00
  1.687989e+01    1.431473e+00
  1.689577e+01    1.429729e+00
  1.691164e+01    1.471252e+00
  1.692752e+01    1.459053e+00
  1.694339e+01    1.427637e+00
  1.695927e+01    1.442581e+00
  1.697514e+01    1.421452e+00
  1.699102e+01    1.421564e+00
  1.700690e+01    1.401976e+00
  1.702277e+01    1.405560e+00
  1.703865e+01    1.402645e+00
  1.705452e+01    1.420953e+00
  1.707040e+01    1.411509e+00
  1.708627e+01    1.413327e+00
  1.710215e+01    1.393758e+00
  1.711802e+01    1.421398e+00
  1.713390e+01    1.420224e+00
  1.714978e+01    1.356816e+00
  1.716565e+01    1.376048e+00
  1.718153e+01    1.430026e+00
  1.719740e+01    1.420667e+00
  1.721328e+01    1.419675e+00
  1.722915e+01    1.411506e+00
  1.724503e+01    1.386985e+00
  1.726091e+01    1.367418e+00
  1.727678e+01    1.374970e+00
  1.729266e+01    1.375116e+00
  1.730853e+01    1.352557e+00
  1.732441e+01    1.382611e+00
  1.734028e+01    1.378045e+00
  1.735616e+01    1.340365e+00
  1.737203e+01    1.406087e+00
  1.738791e+01    1.409140e+00
  1.740379e+01    1.407470e+00
  1.741966e+01    1.378522e+00
  1.743554e+01    1.347512e+00
  1.745141e+01    1.347402e+00
  1.746729e+01    1.331539e+00
  1.748316e+01    1.348628e+00
  1.749904e+01    1.350024e+00
  1.751491e+01    1.344606e+00
  1.753079e+01    1.309779e+00
  1.754667e+01    1.330990e+00
  1.756254e+01    1.347374e+00
  1.757842e+01    1.337497e+00
  1.759429e+01    1.354127e+00
  1.761017e+01    1.375373e+00
  1.762604e+01    1.343052e+00
  1.764192e+01    1.328796e+00
  1.765779e+01    1.330389e+00
  1.767367e+01    1.327416e+00
  1.768955e+01    1.320759e+00
  1.770542e+01    1.308304e+00
  1.772130e+01    1.327209e+00
  1.773717e+01    1.323130e+00
  1.775305e+01    1.343931e+00
  1.776892e+01    1.310173e+00
  1.778480e+01    1.301189e+00
  1.780067e+01    1.310899e+00
  1.781655e+01    1.322513e+00
  1.783243e+01    1.296208e+00
  1.784830e+01    1.302257e+00
  1.786418e+01    1.302101e+00
  1.788005e+01    1.285590e+00
  1.789593e+01    1.297198e+00
  1.791180e+01    1.319073e+00
  1.792768e+01    1.310537e+00
  1.794355e+01    1.287801e+00
  1.795943e+01    1.313865e+00
  1.797531e+01    1.324268e+00
  1.799118e+01    1.294935e+00
  1.800706e+01    1.279387e+00
  1.802293e+01    1.302654e+00
  1.803881e+01    1.276018e+00
  1.805468e+01    1.300980e+00
  1.807056e+01    1.256178e+00
  1.808643e+01    1.285074e+00
  1.810231e+01    1.296242e+00
  1.811819e+01    1.274031e+00
  1.813406e+01    1.248616e+00
  1.814994e+01    1.269981e+00
  1.816581e+01    1.276776e+00
  1.818169e+01    1.255098e+00
  1.819756e+01    1.261500e+00
  1.821344e+01    1.263943e+00
  1.822932e+01    1.261521e+00
  1.824519e+01    1.265432e+00
  1.826107e+01    1.290113e+00
  1.827694e+01    1.280490e+00
  1.829282e+01    1.246312e+00
  1.830869e+01    1.240152e+00
  1.832457e+01    1.271347e+00
  1.834044e+01    1.282711e+00
  1.835632e+01    1.268068e+00
  1.837220e+01    1.270302e+00
  1.838807e+01    1.261854e+00
  1.840395e+01    1.221274e+00
  1.841982e+01    1.235592e+00
  1.843570e+01    1.256915e+00
  1.845157e+01    1.241884e+00
  1.846745e+01    1.248756e+00
  1.848332e+01    1.279267e+00
  1.849920e+01    1.237367e+00
  1.851508e+01    1.224755e+00
  1.853095e+01    1.239538e+00
  1.854683e+01    1.251611e+00
  1.856270e+01    1.230506e+00
  1.857858e+01    1.204768e+00
  1.859445e+01    1.199322e+00
  1.861033e+01    1.204928e+00
  1.862620e+01    1.228514e+00
  1.864208e+01    1.212779e+00
  1.865796e+01    1.220934e+00
  1.867383e+01    1.212065e+00
  1.868971e+01    1.214304e+00
  1.870558e+01    1.205672e+00
  1.872146e+01    1.196540e+00
  1.873733e+01    1.222202e+00
  1.875321e+01    1.221247e+00
  1.876908e+01    1.222062e+00
  1.878496e+01    1.250356e+00
  1.880084e+01    1.224659e+00
  1.881671e+01    1.219882e+00
  1.883259e+01    1.210330e+00
  1.884846e+01    1.207629e+00
  1.886434e+01    1.206994e+00
  1.888021e+01    1.215335e+00
  1.889609e+01    1.207862e+00
  1.891196e+01    1.192987e+00
  1.892784e+01    1.191521e+00
  1.894372e+01    1.201069e+00
  1.895959e+01    1.179694e+00
  1.897547e+01    1.177996e+00
  1.899134e+01    1.200377e+00
  1.900722e+01    1.184738e+00
  1.902309e+01    1.177558e+00
  1.903897e+01    1.188142e+00
  1.905484e+01    1.171252e+00
  1.907072e+01    1.178316e+00
  1.908660e+01    1.198504e+00
  1.910247e+01    1.172093e+00
  1.911835e+01    1.184742e+00
  1.913422e+01    1.169254e+00
  1.915010e+01    1.172831e+00
  1.916597e+01    1.146079e+00
  1.918185e+01    1.173814e+00
  1.919773e+01    1.189641e+00
  1.921360e+01    1.203034e+00
  1.922948e+01    1.163342e+00
  1.924535e+01    1.153701e+00
  1.926123e+01    1.151191e+00
  1.927710e+01    1.150870e+00
  1.929298e+01    1.150677e+00
  1.930885e+01    1.149372e+00
  1.932473e+01    1.169637e+00
  1.934061e+01    1.162667e+00
  1.935648e+01    1.152193e+00
  1.937236e+01    1.146441e+00
  1.938823e+01    1.147426e+00
  1.940411e+01    1.150812e+00
  1.941998e+01    1.166465e+00
  1.943586e+01    1.173512e+00
  1.945173e+01    1.155707e+00
  1.946761e+01    1.163905e+00
  1.948349e+01    1.156520e+00
  1.949936e+01    1.155754e+00
  1.951524e+01    1.147594e+00
  1.953111e+01    1.156798e+00
  1.954699e+01    1.189806e+00
  1.956286e+01    1.155343e+00
  1.957874e+01    1.150763e+00
  1.959461e+01    1.125469e+00
  1.961049e+01    1.142682e+00
  1.962637e+01    1.159742e+00
  1.964224e+01    1.161026e+00
  1.965812e+01    1.133483e+00
  1.967399e+01    1.127731e+00
  1.968987e+01    1.139522e+00
  1.970574e+01    1.133472e+00
  1.972162e+01    1.159131e+00
  1.973749e+01    1.143585e+00
  1.975337e+01    1.134650e+00
  1.976925e+01    1.091442e+00
  1.978512e+01    1.100758e+00
  1.980100e+01    1.106935e+00
  1.981687e+01    1.111451e+00
  1.983275e+01    1.122065e+00
  1.984862e+01    1.134515e+00
  1.986450e+01    1.135105e+00
  1.988037e+01    1.111376e+00
  1.989625e+01    1.115620e+00
  1.991213e+01    1.113651e+00
  1.992800e+01    1.107190e+00
  1.994388e+01    1.098153e+00
  1.995975e+01    1.101658e+00
  1.997563e+01    1.112709e+00
  1.999150e+01    1.125672e+00
  2.000738e+01    1.140401e+00
  2.002325e+01    1.131129e+00
  2.003913e+01    1.103722e+00
  2.005501e+01    1.095665e+00
  2.007088e+01    1.121639e+00
  2.008676e+01    1.120073e+00
  2.010263e+01    1.121830e+00
  2.011851e+01    1.103427e+00
  2.013438e+01    1.110732e+00
  2.015026e+01    1.098675e+00
  2.016614e+01    1.122130e+00
  2.018201e+01    1.090447e+00
  2.019789e+01    1.085110e+00
  2.021376e+01    1.116853e+00
  2.022964e+01    1.111970e+00
  2.024551e+01    1.089339e+00
  2.026139e+01    1.091423e+00
  2.027726e+01    1.101004e+00
  2.029314e+01    1.098567e+00
  2.030902e+01    1.066604e+00
  2.032489e+01    1.098346e+00
  2.034077e+01    1.090037e+00
  2.035664e+01    1.086341e+00
  2.037252e+01    1.099457e+00
  2.038839e+01    1.085323e+00
  2.040427e+01    1.100087e+00
  2.042014e+01    1.100405e+00
  2.043602e+01    1.073188e+00
  2.045190e+01    1.075666e+00
  2.046777e+01    1.071858e+00
  2.048365e+01    1.070080e+00
  2.049952e+01    1.074429e+00
  2.051540e+01    1.096965e+00
  2.053127e+01    1.090303e+00
  2.054715e+01    1.083146e+00
  2.056302e+01    1.086595e+00
  2.057890e+01    1.067068e+00
  2.059478e+01    1.046088e+00
  2.061065e+01    1.061553e+00
  2.062653e+01    1.064800e+00
  2.064240e+01    1.072049e+00
  2.065828e+01    1.082798e+00
  2.067415e+01    1.071218e+00
  2.069003e+01    1.082360e+00
  2.070590e+01    1.083121e+00
  2.072178e+01    1.073493e+00
  2.073766e+01    1.064588e+00
  2.075353e+01    1.069495e+00
  2.076941e+01    1.071196e+00
  2.078528e+01    1.083213e+00
  2.080116e+01    1.072417e+00
  2.081703e+01    1.082181e+00
  2.083291e+01    1.078618e+00
  2.084878e+01    1.055605e+00
  2.086466e+01    1.061119e+00
  2.088054e+01    1.069617e+00
  2.089641e+01    1.075731e+00
  2.091229e+01    1.070667e+00
  2.092816e+01    1.084189e+00
  2.094404e+01    1.065534e+00
  2.095991e+01    1.058906e+00
  2.097579e+01    1.050047e+00
  2.099166e+01    1.082189e+00
  2.100754e+01    1.075160e+00
  2.102342e+01    1.061000e+00
  2.103929e+01    1.077474e+00
  2.105517e+01    1.064111e+00
  2.107104e+01    1.060911e+00
  2.108692e+01    1.079364e+00
  2.110279e+01    1.067013e+00
  2.111867e+01    1.066080e+00
  2.113455e+01    1.074609e+00
  2.115042e+01    1.077598e+00
  2.116630e+01    1.107242e+00
  2.118217e+01    1.098184e+00
  2.119805e+01    1.073640e+00
  2.121392e+01    1.076599e+00
  2.122980e+01    1.069328e+00
  2.124567e+01    1.097329e+00
  2.126155e+01    1.103913e+00
  2.127743e+01    1.115617e+00
  2.129330e+01    1.110173e+00
  2.130918e+01    1.119360e+00
  2.132505e+01    1.103242e+00
  2.134093e+01    1.121185e+00
  2.135680e+01    1.121704e+00
  2.137268e+01    1.135659e+00
  2.138855e+01    1.158080e+00
  2.140443e+01    1.183810e+00
  2.142031e+01    1.168830e+00
  2.143618e+01    1.157816e+00
  2.145206e+01    1.195912e+00
  2.146793e+01    1.236512e+00
  2.148381e+01    1.249190e+00
  2.149968e+01    1.267827e+00
  2.151556e+01    1.287414e+00
  2.153143e+01    1.323967e+00
  2.154731e+01    1.367333e+00
  2.156319e+01    1.402585e+00
  2.157906e+01    1.456489e+00
  2.159494e+01    1.497494e+00
  2.161081e+01    1.577986e+00
  2.162669e+01    1.650448e+00
  2.164256e+01    1.775467e+00
  2.165844e+01    1.886798e+00
  2.167431e+01    2.007167e+00
  2.169019e+01    2.188772e+00
  2.170607e+01    2.395268e+00
  2.172194e+01    2.649609e+00
  2.173782e+01    2.969471e+00
  2.175369e+01    3.432310e+00
  2.176957e+01    3.918888e+00
  2.178544e+01    4.481158e+00
  2.180132e+01    5.132071e+00
  2.181719e+01    5.860997e+00
  2.183307e+01    6.617151e+00
  2.184895e+01    7.377007e+00
  2.186482e+01    8.186027e+00
  2.188070e+01    8.920832e+00
  2.189657e+01    9.636344e+00
  2.191245e+01    9.951427e+00
  2.192832e+01    1.001641e+01
  2.194420e+01    9.578930e+00
  2.196007e+01    8.717085e+00
  2.197595e+01    7.719237e+00
  2.199183e+01    6.591170e+00
  2.200770e+01    5.604011e+00
  2.202358e+01    4.736711e+00
  2.203945e+01    4.009231e+00
  2.205533e+01    3.428889e+00
  2.207120e+01    3.035856e+00
  2.208708e+01    2.634962e+00
  2.210296e+01    2.412511e+00
  2.211883e+01    2.189624e+00
  2.213471e+01    1.994068e+00
  2.215058e+01    1.853433e+00
  2.216646e+01    1.740134e+00
  2.218233e+01    1.640630e+00
  2.219821e+01    1.527969e+00
  2.221408e+01    1.478062e+00
  2.222996e+01    1.404388e+00
  2.224584e+01    1.341720e+00
  2.226171e+01    1.326419e+00
  2.227759e+01    1.289062e+00
  2.229346e+01    1.235470e+00
  2.230934e+01    1.209146e+00
  2.232521e+01    1.186573e+00
  2.234109e+01    1.183001e+00
  2.235696e+01    1.157109e+00
  2.237284e+01    1.123112e+00
  2.238872e+01    1.104437e+00
  2.240459e+01    1.085575e+00
  2.242047e+01    1.086064e+00
  2.243634e+01    1.080048e+00
  2.245222e+01    1.076546e+00
  2.246809e+01    1.057876e+00
  2.248397e+01    1.029094e+00
  2.249984e+01    1.031235e+00
  2.251572e+01    1.008375e+00
  2.253160e+01    1.017272e+00
  2.254747e+01    1.001627e+00
  2.256335e+01    1.012686e+00
  2.257922e+01    9.982378e-01
  2.259510e+01    9.743859e-01
  2.261097e+01    9.809023e-01
  2.262685e+01    9.893698e-01
  2.264272e+01    9.854433e-01
  2.265860e+01    9.814406e-01
  2.267448e+01    9.655934e-01
  2.269035e+01    9.670296e-01
  2.270623e+01    9.642684e-01
  2.272210e+01    9.641429e-01
  2.273798e+01    9.502530e-01
  2.275385e+01    9.377187e-01
  2.276973e+01    9.392690e-01
  2.278560e+01    9.242001e-01
  2.280148e+01    9.247936e-01
  2.281736e+01    9.347030e-01
  2.283323e+01    9.199909e-01
  2.284911e+01    9.335954e-01
  2.286498e+01    9.106345e-01
  2.288086e+01    9.227878e-01
  2.289673e+01    9.106911e-01
  2.291261e+01    8.973732e-01
  2.292848e+01    8.968881e-01
  2.294436e+01    9.161270e-01
  2.296024e+01    8.998750e-01
  2.297611e+01    9.104514e-01
  2.299199e+01    8.986580e-01
  2.300786e+01    8.934416e-01
  2.302374e+01    8.962290e-01
  2.303961e+01    8.966334e-01
  2.305549e+01    9.032368e-01
  2.307137e+01    9.009491e-01
  2.308724e+01    8.869547e-01
  2.310312e+01    8.789350e-01
  2.311899e+01    8.770362e-01
  2.313487e+01    8.851903e-01
  2.315074e+01    8.992751e-01
  2.316662e+01    8.708745e-01
  2.318249e+01    8.659184e-01
  2.319837e+01    8.892218e-01
  2.321425e+01    8.858193e-01
  2.323012e+01    8.716589e-01
  2.324600e+01    8.566395e-01
  2.326187e+01    8.871965e-01
  2.327775e+01    8.666381e-01
  2.329362e+01    8.615388e-01
  2.330950e+01    8.583379e-01
  2.332537e+01    8.682752e-01
  2.334125e+01    8.470617e-01
  2.335713e+01    8.757558e-01
  2.337300e+01    8.756744e-01
  2.338888e+01    8.424809e-01
  2.340475e+01    8.647293e-01
  2.342063e+01    8.603892e-01
  2.343650e+01    8.445350e-01
  2.345238e+01    8.478144e-01
  2.346825e+01    8.473865e-01
  2.348413e+01    8.447559e-01
  2.350001e+01    8.533083e-01
  2.351588e+01    8.520689e-01
  2.353176e+01    8.439001e-01
  2.354763e+01    8.532164e-01
  2.356351e+01    8.409483e-01
  2.357938e+01    8.455485e-01
  2.359526e+01    8.418838e-01
  2.361113e+01    8.415203e-01
  2.362701e+01    8.405524e-01
  2.364289e+01    8.348717e-01
  2.365876e+01    8.271384e-01
  2.367464e+01    8.193974e-01
  2.369051e+01    8.178788e-01
  2.370639e+01    8.240104e-01
  2.372226e+01    8.069513e-01
  2.373814e+01    8.066185e-01
  2.375401e+01    8.077022e-01
  2.376989e+01    8.084369e-01
  2.378577e+01    8.015340e-01
  2.380164e+01    7.999386e-01
  2.381752e+01    8.123139e-01
  2.383339e+01    7.875272e-01
  2.384927e+01    7.803467e-01
  2.386514e+01    7.942577e-01
  2.388102e+01    8.048705e-01
  2.389689e+01    7.772926e-01
  2.391277e+01    7.865282e-01
  2.392865e+01    8.157907e-01
  2.394452e+01    8.000532e-01
  2.396040e+01    8.112837e-01
  2.397627e+01    8.048072e-01
  2.399215e+01    7.979747e-01
  2.400802e+01    7.812392e-01
  2.402390e+01    7.855843e-01
  2.403978e+01    7.754241e-01
  2.405565e+01    7.851966e-01
  2.407153e+01    7.965894e-01
  2.408740e+01    7.839767e-01
  2.410328e+01    7.769811e-01
  2.411915e+01    7.612441e-01
  2.413503e+01    7.727992e-01
  2.415090e+01    7.702139e-01
  2.416678e+01    7.675318e-01
  2.418266e+01    7.928521e-01
  2.419853e+01    7.831212e-01
  2.421441e+01    7.788917e-01
  2.423028e+01    7.677252e-01
  2.424616e+01    7.881691e-01
  2.426203e+01    7.956527e-01
  2.427791e+01    7.999779e-01
  2.429378e+01    7.880117e-01
  2.430966e+01    7.696506e-01
  2.432554e+01    7.766685e-01
  2.434141e+01    7.919859e-01
  2.435729e+01    7.882841e-01
  2.437316e+01    7.789817e-01
  2.438904e+01    7.874019e-01
  2.440491e+01    7.764874e-01
  2.442079e+01    7.701997e-01
  2.443666e+01    7.754251e-01
  2.445254e+01    7.695217e-01
  2.446842e+01    7.871916e-01
  2.448429e+01    7.944096e-01
  2.450017e+01    7.850854e-01
  2.451604e+01    7.901491e-01
  2.453192e+01    7.786086e-01
  2.454779e+01    7.914329e-01
  2.456367e+01    7.900738e-01
  2.457954e+01    7.828030e-01
  2.459542e+01    7.951164e-01
  2.461130e+01    7.906094e-01
  2.462717e+01    7.914853e-01
  2.464305e+01    7.835594e-01
  2.465892e+01    7.978754e-01
  2.467480e+01    7.975072e-01
  2.469067e+01    7.649984e-01
  2.470655e+01    7.875730e-01
  2.472242e+01    8.094516e-01
  2.473830e+01    8.040531e-01
  2.475418e+01    7.965592e-01
  2.477005e+01    7.783793e-01
  2.478593e+01    7.726850e-01
  2.480180e+01    7.887457e-01
  2.481768e+01    8.003375e-01
  2.483355e+01    7.948788e-01
  2.484943e+01    8.092824e-01
  2.486530e+01    8.024097e-01
  2.488118e+01    7.771562e-01
  2.489706e+01    7.763324e-01
  2.491293e+01    8.003998e-01
  2.492881e+01    8.160126e-01
  2.494468e+01    8.096566e-01
  2.496056e+01    8.231478e-01
  2.497643e+01    8.077568e-01
  2.499231e+01    8.066092e-01
  2.500819e+01    7.994446e-01
  2.502406e+01    7.933502e-01
  2.503994e+01    7.877196e-01
  2.505581e+01    7.931175e-01
  2.507169e+01    8.082097e-01
  2.508756e+01    8.028725e-01
  2.510344e+01    8.144011e-01
  2.511931e+01    8.304020e-01
  2.513519e+01    8.336230e-01
  2.515107e+01    8.044419e-01
  2.516694e+01    8.150654e-01
  2.518282e+01    8.383872e-01
  2.519869e+01    8.307545e-01
  2.521457e+01    8.385896e-01
  2.523044e+01    8.411447e-01
  2.524632e+01    8.500858e-01
  2.526219e+01    8.531348e-01
  2.527807e+01    8.296695e-01
  2.529395e+01    8.557057e-01
  2.530982e+01    8.627931e-01
  2.532570e+01    8.718606e-01
  2.534157e+01    8.927950e-01
  2.535745e+01    8.812518e-01
  2.537332e+01    8.687079e-01
  2.538920e+01    8.761113e-01
  2.540507e+01    8.929119e-01
  2.542095e+01    8.934973e-01
  2.543683e+01    8.945789e-01
  2.545270e+01    9.105609e-01
  2.546858e+01    9.146935e-01
  2.548445e+01    9.430020e-01
  2.550033e+01    9.653397e-01
  2.551620e+01    9.929574e-01
  2.553208e+01    9.942921e-01
  2.554795e+01    1.019268e+00
  2.556383e+01    1.058205e+00
  2.557971e+01    1.072423e+00
  2.559558e+01    1.085676e+00
  2.561146e+01    1.127455e+00
  2.562733e+01    1.161433e+00
  2.564321e+01    1.167401e+00
  2.565908e+01    1.224573e+00
  2.567496e+01    1.285725e+00
  2.569083e+01    1.360002e+00
  2.570671e+01    1.447821e+00
  2.572259e+01    1.495784e+00
  2.573846e+01    1.593139e+00
  2.575434e+01    1.758204e+00
  2.577021e+01    1.947134e+00
  2.578609e+01    2.164802e+00
  2.580196e+01    2.398110e+00
  2.581784e+01    2.685846e+00
  2.583371e+01    3.038987e+00
  2.584959e+01    3.466274e+00
  2.586547e+01    3.985526e+00
  2.588134e+01    4.585068e+00
  2.589722e+01    5.205181e+00
  2.591309e+01    5.886828e+00
  2.592897e+01    6.631584e+00
  2.594484e+01    7.324935e+00
  2.596072e+01    7.885430e+00
  2.597660e+01    8.231590e+00
  2.599247e+01    8.275903e+00
  2.600835e+01    7.913094e+00
  2.602422e+01    7.422363e+00
  2.604010e+01    6.701370e+00
  2.605597e+01    5.823440e+00
  2.607185e+01    5.000351e+00
  2.608772e+01    4.242949e+00
  2.610360e+01    3.628664e+00
  2.611948e+01    3.152291e+00
  2.613535e+01    2.719118e+00
  2.615123e+01    2.429792e+00
  2.616710e+01    2.180924e+00
  2.618298e+01    1.966282e+00
  2.619885e+01    1.810130e+00
  2.621473e+01    1.687508e+00
  2.623060e+01    1.532330e+00
  2.624648e+01    1.454145e+00
  2.626236e+01    1.379587e+00
  2.627823e+01    1.304757e+00
  2.629411e+01    1.260268e+00
  2.630998e+01    1.208800e+00
  2.632586e+01    1.171916e+00
  2.634173e+01    1.119391e+00
  2.635761e+01    1.099460e+00
  2.637348e+01    1.064522e+00
  2.638936e+01    1.053513e+00
  2.640524e+01    1.022839e+00
  2.642111e+01    9.864604e-01
  2.643699e+01    9.875410e-01
  2.645286e+01    9.806592e-01
  2.646874e+01    9.865032e-01
  2.648461e+01    9.616815e-01
  2.650049e+01    9.570417e-01
  2.651636e+01    9.558945e-01
  2.653224e+01    9.410395e-01
  2.654812e+01    9.320796e-01
  2.656399e+01    9.282762e-01
  2.657987e+01    9.514123e-01
  2.659574e+01    9.465492e-01
  2.661162e+01    9.232543e-01
  2.662749e+01    9.241465e-01
  2.664337e+01    9.259624e-01
  2.665924e+01    9.092818e-01
  2.667512e+01    8.915997e-01
  2.669100e+01    8.908303e-01
  2.670687e+01    8.957431e-01
  2.672275e+01    9.136420e-01
  2.673862e+01    9.115291e-01
  2.675450e+01    8.916637e-01
  2.677037e+01    8.910886e-01
  2.678625e+01    8.882724e-01
  2.680212e+01    8.950731e-01
  2.681800e+01    8.960570e-01
  2.683388e+01    9.179972e-01
  2.684975e+01    9.332645e-01
  2.686563e+01    9.171319e-01
  2.688150e+01    9.096205e-01
  2.689738e+01    8.986228e-01
  2.691325e+01    9.229063e-01
  2.692913e+01    9.329452e-01
  2.694501e+01    9.342911e-01
  2.696088e+01    9.698937e-01
  2.697676e+01    9.715894e-01
  2.699263e+01    9.830570e-01
  2.700851e+01    1.011227e+00
  2.702438e+01    1.039340e+00
  2.704026e+01    1.077796e+00
  2.705613e+01    1.112009e+00
  2.707201e+01    1.153480e+00
  2.708789e+01    1.228138e+00
  2.710376e+01    1.309649e+00
  2.711964e+01    1.394536e+00
  2.713551e+01    1.491126e+00
  2.715139e+01    1.646843e+00
  2.716726e+01    1.774286e+00
  2.718314e+01    1.951477e+00
  2.719901e+01    2.146470e+00
  2.721489e+01    2.267871e+00
  2.723077e+01    2.342957e+00
  2.724664e+01    2.366356e+00
  2.726252e+01    2.399287e+00
  2.727839e+01    2.278096e+00
  2.729427e+01    2.136894e+00
  2.731014e+01    1.964415e+00
  2.732602e+01    1.789611e+00
  2.734189e+01    1.589889e+00
  2.735777e+01    1.487037e+00
  2.737365e+01    1.352445e+00
  2.738952e+01    1.248841e+00
  2.740540e+01    1.190750e+00
  2.742127e+01    1.136034e+00
  2.743715e+01    1.095353e+00
  2.745302e+01    1.036592e+00
  2.746890e+01    1.001465e+00
  2.748477e+01    9.888857e-01
  2.750065e+01    9.629897e-01
  2.751653e+01    9.394621e-01
  2.753240e+01    9.345795e-01
  2.754828e+01    9.055793e-01
  2.756415e+01    8.745323e-01
  2.758003e+01    8.925070e-01
  2.759590e+01    8.913646e-01
  2.761178e+01    8.781031e-01
  2.762765e+01    8.605767e-01
  2.764353e+01    8.411685e-01
  2.765941e+01    8.342321e-01
  2.767528e+01    8.228112e-01
  2.769116e+01    8.643940e-01
  2.770703e+01    8.440979e-01
  2.772291e+01    8.423274e-01
  2.773878e+01    8.499900e-01
  2.775466e+01    8.337156e-01
  2.777054e+01    8.240814e-01
  2.778641e+01    8.090101e-01
  2.780229e+01    8.020690e-01
  2.781816e+01    8.072931e-01
  2.783404e+01    7.986801e-01
  2.784991e+01    8.084180e-01
  2.786579e+01    7.976729e-01
  2.788166e+01    8.031617e-01
  2.789754e+01    7.943028e-01
  2.791342e+01    7.909072e-01
  2.792929e+01    8.041437e-01
  2.794517e+01    7.932009e-01
  2.796104e+01    7.968152e-01
  2.797692e+01    8.006219e-01
  2.799279e+01    8.057309e-01
  2.800867e+01    7.873087e-01
  2.802454e+01    7.807897e-01
  2.804042e+01    7.799754e-01
  2.805630e+01    7.786180e-01
  2.807217e+01    7.697790e-01
  2.808805e+01    7.665620e-01
  2.810392e+01    7.737778e-01
  2.811980e+01    7.846169e-01
  2.813567e+01    7.776331e-01
  2.815155e+01    8.054537e-01
  2.816742e+01    7.924851e-01
  2.818330e+01    7.729059e-01
  2.819918e+01    7.654440e-01
  2.821505e+01    7.536665e-01
  2.823093e+01    7.643455e-01
  2.824680e+01    7.832388e-01
  2.826268e+01    7.796960e-01
  2.827855e+01    7.507553e-01
  2.829443e+01    7.635371e-01
  2.831030e+01    7.683243e-01
  2.832618e+01    7.636730e-01
  2.834206e+01    7.541156e-01
  2.835793e+01    7.532675e-01
  2.837381e+01    7.520205e-01
  2.838968e+01    7.561160e-01
  2.840556e+01    7.692209e-01
  2.842143e+01    7.530666e-01
  2.843731e+01    7.576894e-01
  2.845318e+01    7.806823e-01
  2.846906e+01    7.652998e-01
  2.848494e+01    7.665298e-01
  2.850081e+01    7.423139e-01
  2.851669e+01    7.539358e-01
  2.853256e+01    7.740479e-01
  2.854844e+01    7.600792e-01
  2.856431e+01    7.636088e-01
  2.858019e+01    7.657107e-01
  2.859606e+01    7.455007e-01
  2.861194e+01    7.443263e-01
  2.862782e+01    7.425593e-01
  2.864369e+01    7.569841e-01
  2.865957e+01    7.648762e-01
  2.867544e+01    7.446169e-01
  2.869132e+01    7.440227e-01
  2.870719e+01    7.559109e-01
  2.872307e+01    7.592722e-01
  2.873895e+01    7.439767e-01
  2.875482e+01    7.401286e-01
  2.877070e+01    7.341548e-01
  2.878657e+01    7.289407e-01
  2.880245e+01    7.498391e-01
  2.881832e+01    7.513048e-01
  2.883420e+01    7.525284e-01
  2.885007e+01    7.617759e-01
  2.886595e+01    7.493345e-01
  2.888183e+01    7.331585e-01
  2.889770e+01    7.305546e-01
  2.891358e+01    7.258917e-01
  2.892945e+01    7.346730e-01
  2.894533e+01    7.290835e-01
  2.896120e+01    7.237375e-01
  2.897708e+01    7.417009e-01
  2.899295e+01    7.244595e-01
  2.900883e+01    7.278336e-01
  2.902471e+01    7.556089e-01
  2.904058e+01    7.597214e-01
  2.905646e+01    7.317170e-01
  2.907233e+01    7.350614e-01
  2.908821e+01    7.467263e-01
  2.910408e+01    7.389452e-01
  2.911996e+01    7.340424e-01
  2.913583e+01    7.411427e-01
  2.915171e+01    7.208078e-01
  2.916759e+01    7.343824e-01
  2.918346e+01    7.369059e-01
  2.919934e+01    7.295656e-01
  2.921521e+01    7.369772e-01
  2.923109e+01    7.077649e-01
  2.924696e+01    7.245594e-01
  2.926284e+01    7.333770e-01
  2.927871e+01    7.343480e-01
  2.929459e+01    7.342381e-01
  2.931047e+01    7.429265e-01
  2.932634e+01    7.387990e-01
  2.934222e+01    7.230042e-01
  2.935809e+01    7.252198e-01
  2.937397e+01    7.111713e-01
  2.938984e+01    7.124224e-01
  2.940572e+01    7.408177e-01
  2.942159e+01    7.093645e-01
  2.943747e+01    7.044983e-01
  2.945335e+01    7.347854e-01
  2.946922e+01    7.458599e-01
  2.948510e+01    7.232320e-01
  2.950097e+01    7.176048e-01
  2.951685e+01    7.224655e-01
  2.953272e+01    7.369198e-01
  2.954860e+01    7.228434e-01
  2.956447e+01    7.090757e-01
  2.958035e+01    7.158677e-01
  2.959623e+01    7.259310e-01
  2.961210e+01    7.195190e-01
  2.962798e+01    7.174211e-01
  2.964385e+01    7.137110e-01
  2.965973e+01    7.226739e-01
  2.967560e+01    7.256156e-01
  2.969148e+01    7.328209e-01
  2.970736e+01    7.085544e-01
  2.972323e+01    7.087527e-01
  2.973911e+01    7.271737e-01
  2.975498e+01    7.239317e-01
  2.977086e+01    7.361479e-01
  2.978673e+01    7.235162e-01
  2.980261e+01    7.408649e-01
  2.981848e+01    7.274470e-01
  2.983436e+01    6.995071e-01
  2.985024e+01    7.024949e-01
  2.986611e+01    7.115498e-01
  2.988199e+01    7.162629e-01
  2.989786e+01    7.254048e-01
  2.991374e+01    7.245601e-01
  2.992961e+01    7.013646e-01
  2.994549e+01    7.073202e-01
  2.996136e+01    7.181621e-01
  2.997724e+01    7.183633e-01
  2.999312e+01    7.381070e-01
  3.000899e+01    7.283289e-01
  3.002487e+01    7.078351e-01
  3.004074e+01    7.405486e-01
  3.005662e+01    7.325909e-01
  3.007249e+01    7.578526e-01
  3.008837e+01    7.375866e-01
  3.010424e+01    7.214327e-01
  3.012012e+01    7.454069e-01
  3.013600e+01    7.251276e-01
  3.015187e+01    7.036898e-01
  3.016775e+01    6.968523e-01
  3.018362e+01    7.184454e-01
  3.019950e+01    6.959343e-01
  3.021537e+01    6.811607e-01
  3.023125e+01    7.043839e-01
  3.024712e+01    6.926318e-01
  3.026300e+01    7.013351e-01
  3.027888e+01    6.994144e-01
  3.029475e+01    7.177998e-01
  3.031063e+01    6.952347e-01
  3.032650e+01    6.911703e-01
  3.034238e+01    7.012507e-01
  3.035825e+01    7.033073e-01
  3.037413e+01    7.103398e-01
  3.039000e+01    7.185312e-01
  3.040588e+01    7.361318e-01
  3.042176e+01    7.269505e-01
  3.043763e+01    7.077668e-01
  3.045351e+01    7.184768e-01
  3.046938e+01    7.113193e-01
  3.048526e+01    7.007145e-01
  3.050113e+01    7.143312e-01
  3.051701e+01    7.088633e-01
  3.053288e+01    7.068435e-01
  3.054876e+01    6.997970e-01
  3.056464e+01    7.056434e-01
  3.058051e+01    7.114077e-01
  3.059639e+01    7.228160e-01
  3.061226e+01    7.109838e-01
  3.062814e+01    7.130883e-01
  3.064401e+01    7.134832e-01
  3.065989e+01    7.266687e-01
  3.067577e+01    7.055664e-01
  3.069164e+01    7.181789e-01
  3.070752e+01    7.131435e-01
  3.072339e+01    7.105162e-01
  3.073927e+01    6.958346e-01
  3.075514e+01    6.973205e-01
  3.077102e+01    7.103721e-01
  3.078689e+01    7.352469e-01
  3.080277e+01    7.269391e-01
  3.081865e+01    6.996185e-01
  3.083452e+01    7.231638e-01
  3.085040e+01    7.199806e-01
  3.086627e+01    7.047500e-01
  3.088215e+01    7.067061e-01
  3.089802e+01    7.112150e-01
  3.091390e+01    7.233406e-01
  3.092977e+01    7.192354e-01
  3.094565e+01    7.136483e-01
  3.096153e+01    7.078812e-01
  3.097740e+01    6.988906e-01
  3.099328e+01    7.145091e-01
  3.100915e+01    7.226042e-01
  3.102503e+01    7.221801e-01
  3.104090e+01    7.116500e-01
  3.105678e+01    7.124393e-01
  3.107265e+01    7.142594e-01
  3.108853e+01    6.905407e-01
  3.110441e+01    7.176864e-01
  3.112028e+01    7.204990e-01
  3.113616e+01    7.094424e-01
  3.115203e+01    6.984562e-01
  3.116791e+01    7.118332e-01
  3.118378e+01    7.156212e-01
  3.119966e+01    7.115586e-01
  3.121553e+01    7.244114e-01
  3.123141e+01    7.061092e-01
  3.124729e+01    7.252491e-01
  3.126316e+01    7.306073e-01
  3.127904e+01    7.264137e-01
  3.129491e+01    7.508303e-01
  3.131079e+01    7.309164e-01
  3.132666e+01    7.324753e-01
  3.134254e+01    7.249602e-01
  3.135841e+01    7.175384e-01
  3.137429e+01    7.386876e-01
  3.139017e+01    7.375371e-01
  3.140604e+01    7.310672e-01
  3.142192e+01    7.490080e-01
  3.143779e+01    7.424507e-01
  3.145367e+01    7.294456e-01
  3.146954e+01    7.467785e-01
  3.148542e+01    7.817572e-01
  3.150129e+01    7.729859e-01
  3.151717e+01    7.684082e-01
  3.153305e+01    7.759542e-01
  3.154892e+01    8.008795e-01
  3.156480e+01    7.902200e-01
  3.158067e+01    7.699242e-01
  3.159655e+01    7.860081e-01
  3.161242e+01    8.107969e-01
  3.162830e+01    8.371462e-01
  3.164418e+01    8.496970e-01
  3.166005e+01    8.833531e-01
  3.167593e+01    8.898445e-01
  3.169180e+01    9.030039e-01
  3.170768e+01    9.397390e-01
  3.172355e+01    9.694327e-01
  3.173943e+01    1.007835e+00
  3.175530e+01    1.034001e+00
  3.177118e+01    1.101781e+00
  3.178706e+01    1.211589e+00
  3.180293e+01    1.284511e+00
  3.181881e+01    1.367145e+00
  3.183468e+01    1.500694e+00
  3.185056e+01    1.641911e+00
  3.186643e+01    1.817967e+00
  3.188231e+01    1.999419e+00
  3.189818e+01    2.177622e+00
  3.191406e+01    2.299173e+00
  3.192994e+01    2.381854e+00
  3.194581e+01    2.370895e+00
  3.196169e+01    2.332637e+00
  3.197756e+01    2.211327e+00
  3.199344e+01    2.042412e+00
  3.200931e+01    1.885324e+00
  3.202519e+01    1.707710e+00
  3.204106e+01    1.523478e+00
  3.205694e+01    1.399073e+00
  3.207282e+01    1.264823e+00
  3.208869e+01    1.162547e+00
  3.210457e+01    1.103367e+00
  3.212044e+01    1.030040e+00
  3.213632e+01    9.946995e-01
  3.215219e+01    9.544913e-01
  3.216807e+01    9.114024e-01
  3.218394e+01    8.935444e-01
  3.219982e+01    8.857945e-01
  3.221570e+01    8.574998e-01
  3.223157e+01    8.380070e-01
  3.224745e+01    8.086768e-01
  3.226332e+01    8.009285e-01
  3.227920e+01    7.893564e-01
  3.229507e+01    7.860797e-01
  3.231095e+01    7.933502e-01
  3.232682e+01    7.679309e-01
  3.234270e+01    7.645811e-01
  3.235858e+01    7.413634e-01
  3.237445e+01    7.431319e-01
  3.239033e+01    7.494462e-01
  3.240620e+01    7.335353e-01
  3.242208e+01    7.306164e-01
  3.243795e+01    7.210240e-01
  3.245383e+01    7.260165e-01
  3.246970e+01    7.166274e-01
  3.248558e+01    7.585312e-01
  3.250146e+01    7.419226e-01
  3.251733e+01    7.262781e-01
  3.253321e+01    7.272245e-01
  3.254908e+01    7.418584e-01
