# == pyFAI calibration ==
# Distance Sample to Detector: 0.3999999939076516 m
# PONI: 9.750e-02, 1.135e-01 m
# Rotations: -0.000175 0.000000 -0.000000 rad
# 
# == Fit2d calibration ==
# Distance Sample-beamCenter: 400.000 mm
# Center: x=1514.000, y=1300.000 pix
# Tilt: 0.010 deg  TiltPlanRot: 0.010 deg
# 
# Detector Detector	 Spline= None	 PixelSize= 7.500e-05, 7.500e-05 m
#    Detector has a mask: False 
#    Detector has a dark current: False 
#    detector has a flat field: False 
# 
# Wavelength: 6.888e-11 m
# Mask applied: user provided
# Dark current applied: False
# Flat field applied: False
# Polarization factor: 0.99
# Normalization factor: 1.0
# --> /home/myspot/data/2024_07_Rosario/Ru-CGO-ex/2024-07-27_002_Ru-CGO-ex_Activtation_ramp_000002_data_000065.dat
#       q_nm^-1             I 
  2.003187e-02    0.000000e+00
  3.590745e-02    0.000000e+00
  5.178302e-02    0.000000e+00
  6.765859e-02    0.000000e+00
  8.353417e-02    0.000000e+00
  9.940974e-02    0.000000e+00
  1.152853e-01    2.774768e-02
  1.311609e-01    8.888815e-02
  1.470365e-01    1.198579e-01
  1.629120e-01    7.067350e-02
  1.787876e-01    8.184849e-02
  1.946632e-01    4.477646e-02
  2.105388e-01    2.406150e-02
  2.264143e-01    1.835187e-02
  2.422899e-01    1.938864e-02
  2.581655e-01    1.465419e-02
  2.740411e-01    9.861731e-03
  2.899166e-01    1.645648e-02
  3.057922e-01    3.868453e-02
  3.216678e-01    3.461144e-02
  3.375433e-01    2.723008e-02
  3.534189e-01    2.515397e-02
  3.692945e-01    2.539260e-02
  3.851701e-01    2.512994e-02
  4.010456e-01    6.370584e-02
  4.169212e-01    2.827214e-02
  4.327968e-01    1.398502e-02
  4.486724e-01    4.937862e-02
  4.645479e-01    6.921338e-02
  4.804235e-01    4.401958e-02
  4.962991e-01    3.321467e-02
  5.121747e-01    3.312178e-02
  5.280502e-01    3.892107e-02
  5.439258e-01    3.211804e-02
  5.598014e-01    5.065330e-02
  5.756770e-01    2.917695e-02
  5.915525e-01    2.571356e-02
  6.074281e-01    3.542633e-02
  6.233037e-01    5.239053e-02
  6.391793e-01    7.481366e-02
  6.550548e-01    4.486571e-02
  6.709304e-01    2.209011e-02
  6.868060e-01    5.220712e-02
  7.026815e-01    3.840769e-02
  7.185571e-01    4.506310e-02
  7.344327e-01    2.405655e-02
  7.503083e-01    6.602772e-02
  7.661838e-01    7.580720e-02
  7.820594e-01    8.063183e-02
  7.979350e-01    1.615119e-01
  8.138106e-01    2.165344e-01
  8.296861e-01    2.592965e-01
  8.455617e-01    3.445366e-01
  8.614373e-01    4.126191e-01
  8.773129e-01    4.896581e-01
  8.931884e-01    4.877130e-01
  9.090640e-01    5.528641e-01
  9.249396e-01    5.904855e-01
  9.408152e-01    7.184187e-01
  9.566907e-01    7.802196e-01
  9.725663e-01    8.408134e-01
  9.884419e-01    9.474545e-01
  1.004317e+00    9.565052e-01
  1.020193e+00    1.070462e+00
  1.036069e+00    1.136111e+00
  1.051944e+00    1.251812e+00
  1.067820e+00    1.363486e+00
  1.083695e+00    1.342367e+00
  1.099571e+00    1.299948e+00
  1.115446e+00    1.363286e+00
  1.131322e+00    1.464606e+00
  1.147198e+00    1.439829e+00
  1.163073e+00    1.426457e+00
  1.178949e+00    1.521247e+00
  1.194824e+00    1.621277e+00
  1.210700e+00    1.871343e+00
  1.226575e+00    2.126952e+00
  1.242451e+00    2.282429e+00
  1.258327e+00    2.405093e+00
  1.274202e+00    2.434526e+00
  1.290078e+00    2.473191e+00
  1.305953e+00    2.578953e+00
  1.321829e+00    2.584240e+00
  1.337705e+00    2.657223e+00
  1.353580e+00    2.577594e+00
  1.369456e+00    2.571616e+00
  1.385331e+00    2.684883e+00
  1.401207e+00    2.658872e+00
  1.417082e+00    2.668401e+00
  1.432958e+00    2.669349e+00
  1.448834e+00    2.862874e+00
  1.464709e+00    2.794893e+00
  1.480585e+00    2.743529e+00
  1.496460e+00    2.840718e+00
  1.512336e+00    2.983887e+00
  1.528211e+00    2.999072e+00
  1.544087e+00    2.939431e+00
  1.559963e+00    2.968534e+00
  1.575838e+00    2.960119e+00
  1.591714e+00    2.968440e+00
  1.607589e+00    2.966826e+00
  1.623465e+00    2.954204e+00
  1.639340e+00    2.988568e+00
  1.655216e+00    3.018955e+00
  1.671092e+00    2.848968e+00
  1.686967e+00    2.849449e+00
  1.702843e+00    2.909317e+00
  1.718718e+00    2.863364e+00
  1.734594e+00    2.866597e+00
  1.750469e+00    2.756316e+00
  1.766345e+00    2.754149e+00
  1.782221e+00    2.775011e+00
  1.798096e+00    2.714112e+00
  1.813972e+00    2.664509e+00
  1.829847e+00    2.746156e+00
  1.845723e+00    2.828694e+00
  1.861598e+00    2.786400e+00
  1.877474e+00    2.807848e+00
  1.893350e+00    2.745502e+00
  1.909225e+00    2.713373e+00
  1.925101e+00    2.731324e+00
  1.940976e+00    2.788679e+00
  1.956852e+00    2.823621e+00
  1.972727e+00    2.827257e+00
  1.988603e+00    2.877702e+00
  2.004479e+00    2.789855e+00
  2.020354e+00    2.699850e+00
  2.036230e+00    2.730703e+00
  2.052105e+00    2.710882e+00
  2.067981e+00    2.722782e+00
  2.083856e+00    2.680224e+00
  2.099732e+00    2.822243e+00
  2.115608e+00    2.824659e+00
  2.131483e+00    2.789243e+00
  2.147359e+00    2.804035e+00
  2.163234e+00    2.801058e+00
  2.179110e+00    2.800444e+00
  2.194985e+00    2.766820e+00
  2.210861e+00    2.738364e+00
  2.226737e+00    2.787136e+00
  2.242612e+00    2.842280e+00
  2.258488e+00    2.825975e+00
  2.274363e+00    2.792326e+00
  2.290239e+00    2.782290e+00
  2.306115e+00    2.838667e+00
  2.321990e+00    2.821961e+00
  2.337866e+00    2.796861e+00
  2.353741e+00    2.803256e+00
  2.369617e+00    2.709908e+00
  2.385492e+00    2.778902e+00
  2.401368e+00    2.865827e+00
  2.417244e+00    2.797285e+00
  2.433119e+00    2.801698e+00
  2.448995e+00    2.745749e+00
  2.464870e+00    2.804101e+00
  2.480746e+00    2.756650e+00
  2.496621e+00    2.811889e+00
  2.512497e+00    2.714946e+00
  2.528373e+00    2.856580e+00
  2.544248e+00    2.826388e+00
  2.560124e+00    2.767920e+00
  2.575999e+00    2.852331e+00
  2.591875e+00    2.923986e+00
  2.607750e+00    2.891188e+00
  2.623626e+00    2.958337e+00
  2.639502e+00    2.858557e+00
  2.655377e+00    2.798511e+00
  2.671253e+00    2.817429e+00
  2.687128e+00    2.924541e+00
  2.703004e+00    2.868304e+00
  2.718879e+00    2.827749e+00
  2.734755e+00    2.890518e+00
  2.750631e+00    2.885786e+00
  2.766506e+00    2.866009e+00
  2.782382e+00    2.890568e+00
  2.798257e+00    2.815719e+00
  2.814133e+00    2.943806e+00
  2.830008e+00    2.891103e+00
  2.845884e+00    2.822531e+00
  2.861760e+00    2.859056e+00
  2.877635e+00    2.820955e+00
  2.893511e+00    2.827976e+00
  2.909386e+00    2.953855e+00
  2.925262e+00    2.852816e+00
  2.941137e+00    2.761892e+00
  2.957013e+00    2.854411e+00
  2.972889e+00    2.861762e+00
  2.988764e+00    2.874483e+00
  3.004640e+00    2.889572e+00
  3.020515e+00    2.899165e+00
  3.036391e+00    2.776219e+00
  3.052266e+00    2.875410e+00
  3.068142e+00    2.949683e+00
  3.084018e+00    2.915049e+00
  3.099893e+00    2.839987e+00
  3.115769e+00    2.828899e+00
  3.131644e+00    2.938678e+00
  3.147520e+00    2.906547e+00
  3.163395e+00    2.945215e+00
  3.179271e+00    2.963400e+00
  3.195147e+00    2.923433e+00
  3.211022e+00    3.058055e+00
  3.226898e+00    2.974754e+00
  3.242773e+00    2.816685e+00
  3.258649e+00    2.821438e+00
  3.274525e+00    2.939928e+00
  3.290400e+00    3.009430e+00
  3.306276e+00    2.889732e+00
  3.322151e+00    2.885140e+00
  3.338027e+00    2.930061e+00
  3.353902e+00    2.973319e+00
  3.369778e+00    2.961695e+00
  3.385654e+00    2.982907e+00
  3.401529e+00    2.987198e+00
  3.417405e+00    2.899320e+00
  3.433280e+00    2.924726e+00
  3.449156e+00    3.040209e+00
  3.465031e+00    3.011867e+00
  3.480907e+00    2.906161e+00
  3.496783e+00    2.964011e+00
  3.512658e+00    2.994360e+00
  3.528534e+00    2.986061e+00
  3.544409e+00    2.963598e+00
  3.560285e+00    3.004596e+00
  3.576160e+00    2.986128e+00
  3.592036e+00    3.044880e+00
  3.607912e+00    3.054511e+00
  3.623787e+00    2.989863e+00
  3.639663e+00    2.931731e+00
  3.655538e+00    3.031199e+00
  3.671414e+00    3.061614e+00
  3.687289e+00    3.009885e+00
  3.703165e+00    2.959494e+00
  3.719041e+00    2.923390e+00
  3.734916e+00    2.956567e+00
  3.750792e+00    2.980549e+00
  3.766667e+00    3.046530e+00
  3.782543e+00    3.054977e+00
  3.798418e+00    2.969865e+00
  3.814294e+00    2.994031e+00
  3.830170e+00    2.937438e+00
  3.846045e+00    2.973027e+00
  3.861921e+00    2.986185e+00
  3.877796e+00    2.971825e+00
  3.893672e+00    3.001015e+00
  3.909547e+00    3.013854e+00
  3.925423e+00    3.063861e+00
  3.941299e+00    3.058550e+00
  3.957174e+00    3.039690e+00
  3.973050e+00    2.943659e+00
  3.988925e+00    3.038027e+00
  4.004801e+00    3.025419e+00
  4.020676e+00    2.989794e+00
  4.036552e+00    3.057253e+00
  4.052428e+00    3.002603e+00
  4.068303e+00    3.060658e+00
  4.084179e+00    3.039468e+00
  4.100054e+00    3.014162e+00
  4.115930e+00    3.122146e+00
  4.131806e+00    3.041017e+00
  4.147681e+00    3.144825e+00
  4.163557e+00    3.190501e+00
  4.179432e+00    3.097251e+00
  4.195308e+00    3.028371e+00
  4.211183e+00    2.961405e+00
  4.227059e+00    3.020149e+00
  4.242935e+00    3.008449e+00
  4.258810e+00    2.997270e+00
  4.274686e+00    2.995004e+00
  4.290561e+00    2.954185e+00
  4.306437e+00    2.994741e+00
  4.322312e+00    3.057658e+00
  4.338188e+00    2.997710e+00
  4.354064e+00    3.052376e+00
  4.369939e+00    3.032479e+00
  4.385815e+00    3.042100e+00
  4.401690e+00    3.064195e+00
  4.417566e+00    3.038352e+00
  4.433441e+00    3.120839e+00
  4.449317e+00    3.105490e+00
  4.465193e+00    3.022742e+00
  4.481068e+00    3.001296e+00
  4.496944e+00    3.101862e+00
  4.512819e+00    3.112963e+00
  4.528695e+00    3.084103e+00
  4.544570e+00    3.066384e+00
  4.560446e+00    3.081298e+00
  4.576322e+00    3.044300e+00
  4.592197e+00    3.042041e+00
  4.608073e+00    3.086698e+00
  4.623948e+00    3.004796e+00
  4.639824e+00    2.975055e+00
  4.655699e+00    3.096086e+00
  4.671575e+00    3.097369e+00
  4.687451e+00    3.025502e+00
  4.703326e+00    3.071716e+00
  4.719202e+00    3.126256e+00
  4.735077e+00    3.111824e+00
  4.750953e+00    3.154024e+00
  4.766828e+00    3.056877e+00
  4.782704e+00    3.073866e+00
  4.798580e+00    3.151631e+00
  4.814455e+00    3.094550e+00
  4.830331e+00    3.152788e+00
  4.846206e+00    3.179341e+00
  4.862082e+00    3.162463e+00
  4.877957e+00    3.178211e+00
  4.893833e+00    3.066227e+00
  4.909709e+00    3.023588e+00
  4.925584e+00    3.106164e+00
  4.941460e+00    3.023277e+00
  4.957335e+00    3.098060e+00
  4.973211e+00    3.124416e+00
  4.989086e+00    3.165938e+00
  5.004962e+00    3.137639e+00
  5.020838e+00    3.074321e+00
  5.036713e+00    3.061464e+00
  5.052589e+00    3.154537e+00
  5.068464e+00    3.152120e+00
  5.084340e+00    3.078544e+00
  5.100216e+00    3.153697e+00
  5.116091e+00    3.162160e+00
  5.131967e+00    3.130151e+00
  5.147842e+00    3.108038e+00
  5.163718e+00    3.081480e+00
  5.179593e+00    3.095035e+00
  5.195469e+00    3.097618e+00
  5.211345e+00    3.120342e+00
  5.227220e+00    3.106025e+00
  5.243096e+00    3.071300e+00
  5.258971e+00    3.144410e+00
  5.274847e+00    3.117599e+00
  5.290722e+00    3.148060e+00
  5.306598e+00    3.075448e+00
  5.322474e+00    3.129147e+00
  5.338349e+00    3.106076e+00
  5.354225e+00    3.062013e+00
  5.370100e+00    3.163363e+00
  5.385976e+00    3.143592e+00
  5.401851e+00    3.055990e+00
  5.417727e+00    3.059634e+00
  5.433603e+00    3.059521e+00
  5.449478e+00    3.069296e+00
  5.465354e+00    3.107609e+00
  5.481229e+00    3.079166e+00
  5.497105e+00    3.093710e+00
  5.512980e+00    3.103145e+00
  5.528856e+00    3.030505e+00
  5.544732e+00    2.996136e+00
  5.560607e+00    3.079578e+00
  5.576483e+00    3.112688e+00
  5.592358e+00    3.143598e+00
  5.608234e+00    3.115607e+00
  5.624109e+00    3.178773e+00
  5.639985e+00    3.011612e+00
  5.655861e+00    2.975235e+00
  5.671736e+00    3.049309e+00
  5.687612e+00    3.033645e+00
  5.703487e+00    3.061712e+00
  5.719363e+00    3.067839e+00
  5.735238e+00    3.067584e+00
  5.751114e+00    3.105258e+00
  5.766990e+00    3.058757e+00
  5.782865e+00    3.013128e+00
  5.798741e+00    3.108001e+00
  5.814616e+00    3.103029e+00
  5.830492e+00    3.034480e+00
  5.846367e+00    3.000396e+00
  5.862243e+00    3.094698e+00
  5.878119e+00    3.135747e+00
  5.893994e+00    3.089471e+00
  5.909870e+00    3.022337e+00
  5.925745e+00    2.972440e+00
  5.941621e+00    3.026002e+00
  5.957497e+00    3.022627e+00
  5.973372e+00    3.052727e+00
  5.989248e+00    2.957383e+00
  6.005123e+00    2.927731e+00
  6.020999e+00    2.981493e+00
  6.036874e+00    2.979169e+00
  6.052750e+00    2.991301e+00
  6.068626e+00    3.057120e+00
  6.084501e+00    3.053375e+00
  6.100377e+00    2.961159e+00
  6.116252e+00    3.021416e+00
  6.132128e+00    3.060020e+00
  6.148003e+00    3.000551e+00
  6.163879e+00    3.014899e+00
  6.179755e+00    3.068405e+00
  6.195630e+00    3.072887e+00
  6.211506e+00    3.093189e+00
  6.227381e+00    3.068743e+00
  6.243257e+00    3.060296e+00
  6.259132e+00    2.994209e+00
  6.275008e+00    2.978389e+00
  6.290884e+00    3.021943e+00
  6.306759e+00    3.072475e+00
  6.322635e+00    3.061642e+00
  6.338510e+00    3.054320e+00
  6.354386e+00    2.977207e+00
  6.370261e+00    3.007088e+00
  6.386137e+00    3.051677e+00
  6.402013e+00    3.065586e+00
  6.417888e+00    3.040906e+00
  6.433764e+00    3.024601e+00
  6.449639e+00    3.049186e+00
  6.465515e+00    3.070049e+00
  6.481390e+00    3.132235e+00
  6.497266e+00    3.078036e+00
  6.513142e+00    3.035116e+00
  6.529017e+00    3.057742e+00
  6.544893e+00    3.012990e+00
  6.560768e+00    3.009186e+00
  6.576644e+00    3.011625e+00
  6.592519e+00    2.991407e+00
  6.608395e+00    3.008304e+00
  6.624271e+00    3.012294e+00
  6.640146e+00    3.026643e+00
  6.656022e+00    3.041414e+00
  6.671897e+00    3.067166e+00
  6.687773e+00    3.105305e+00
  6.703648e+00    3.049439e+00
  6.719524e+00    3.026273e+00
  6.735400e+00    2.989769e+00
  6.751275e+00    3.013131e+00
  6.767151e+00    3.060438e+00
  6.783026e+00    3.041030e+00
  6.798902e+00    3.016860e+00
  6.814777e+00    3.015149e+00
  6.830653e+00    3.033061e+00
  6.846529e+00    3.088658e+00
  6.862404e+00    3.021684e+00
  6.878280e+00    2.969065e+00
  6.894155e+00    3.043624e+00
  6.910031e+00    3.004774e+00
  6.925907e+00    2.991939e+00
  6.941782e+00    3.005987e+00
  6.957658e+00    3.040238e+00
  6.973533e+00    3.100003e+00
  6.989409e+00    3.020067e+00
  7.005284e+00    2.984303e+00
  7.021160e+00    2.986313e+00
  7.037036e+00    3.009243e+00
  7.052911e+00    3.039369e+00
  7.068787e+00    2.988515e+00
  7.084662e+00    3.053542e+00
  7.100538e+00    3.035396e+00
  7.116413e+00    3.021422e+00
  7.132289e+00    3.028801e+00
  7.148165e+00    2.994565e+00
  7.164040e+00    2.958778e+00
  7.179916e+00    3.038530e+00
  7.195791e+00    3.023413e+00
  7.211667e+00    2.968095e+00
  7.227542e+00    3.052942e+00
  7.243418e+00    3.064695e+00
  7.259294e+00    2.961051e+00
  7.275169e+00    2.957774e+00
  7.291045e+00    2.915335e+00
  7.306920e+00    2.923173e+00
  7.322796e+00    2.959972e+00
  7.338671e+00    2.978499e+00
  7.354547e+00    3.004003e+00
  7.370423e+00    2.978136e+00
  7.386298e+00    2.930833e+00
  7.402174e+00    2.978291e+00
  7.418049e+00    3.015685e+00
  7.433925e+00    2.979252e+00
  7.449800e+00    2.995649e+00
  7.465676e+00    2.993477e+00
  7.481552e+00    2.985020e+00
  7.497427e+00    3.003809e+00
  7.513303e+00    3.042854e+00
  7.529178e+00    3.014446e+00
  7.545054e+00    2.971865e+00
  7.560929e+00    2.992341e+00
  7.576805e+00    2.955303e+00
  7.592681e+00    2.903918e+00
  7.608556e+00    2.927808e+00
  7.624432e+00    2.936964e+00
  7.640307e+00    2.941044e+00
  7.656183e+00    2.962609e+00
  7.672058e+00    2.974918e+00
  7.687934e+00    2.946321e+00
  7.703810e+00    2.989859e+00
  7.719685e+00    2.999653e+00
  7.735561e+00    2.924862e+00
  7.751436e+00    2.940392e+00
  7.767312e+00    3.018220e+00
  7.783187e+00    2.946359e+00
  7.799063e+00    2.948195e+00
  7.814939e+00    2.968292e+00
  7.830814e+00    2.981634e+00
  7.846690e+00    2.963598e+00
  7.862565e+00    2.972481e+00
  7.878441e+00    2.941584e+00
  7.894317e+00    2.859949e+00
  7.910192e+00    2.897689e+00
  7.926068e+00    2.941178e+00
  7.941943e+00    2.903849e+00
  7.957819e+00    2.981801e+00
  7.973694e+00    2.966874e+00
  7.989570e+00    2.888524e+00
  8.005446e+00    2.956471e+00
  8.021321e+00    2.990437e+00
  8.037197e+00    2.874830e+00
  8.053072e+00    2.801110e+00
  8.068948e+00    2.895126e+00
  8.084823e+00    2.907041e+00
  8.100699e+00    2.904627e+00
  8.116575e+00    2.891139e+00
  8.132450e+00    2.899805e+00
  8.148326e+00    2.948057e+00
  8.164201e+00    2.928581e+00
  8.180077e+00    2.925370e+00
  8.195952e+00    2.930412e+00
  8.211828e+00    2.937080e+00
  8.227704e+00    2.926504e+00
  8.243579e+00    2.992785e+00
  8.259455e+00    2.995671e+00
  8.275330e+00    2.959703e+00
  8.291206e+00    2.881643e+00
  8.307081e+00    2.933813e+00
  8.322957e+00    2.870915e+00
  8.338833e+00    2.883758e+00
  8.354708e+00    2.898690e+00
  8.370584e+00    2.868026e+00
  8.386459e+00    2.886146e+00
  8.402335e+00    2.924303e+00
  8.418210e+00    2.897399e+00
  8.434086e+00    2.948729e+00
  8.449962e+00    2.940609e+00
  8.465837e+00    2.878009e+00
  8.481713e+00    2.916299e+00
  8.497588e+00    2.919842e+00
  8.513464e+00    2.859880e+00
  8.529339e+00    2.838964e+00
  8.545215e+00    2.877241e+00
  8.561091e+00    2.901565e+00
  8.576966e+00    2.924767e+00
  8.592842e+00    2.877924e+00
  8.608717e+00    2.858870e+00
  8.624593e+00    2.877803e+00
  8.640468e+00    2.879025e+00
  8.656344e+00    2.857270e+00
  8.672220e+00    2.803707e+00
  8.688095e+00    2.831076e+00
  8.703971e+00    2.879946e+00
  8.719846e+00    2.814278e+00
  8.735722e+00    2.870453e+00
  8.751598e+00    2.793469e+00
  8.767473e+00    2.773376e+00
  8.783349e+00    2.847926e+00
  8.799224e+00    2.858449e+00
  8.815100e+00    2.850871e+00
  8.830975e+00    2.812724e+00
  8.846851e+00    2.858810e+00
  8.862727e+00    2.885627e+00
  8.878602e+00    2.866899e+00
  8.894478e+00    2.876209e+00
  8.910353e+00    2.883270e+00
  8.926229e+00    2.782614e+00
  8.942104e+00    2.780322e+00
  8.957980e+00    2.832547e+00
  8.973856e+00    2.856062e+00
  8.989731e+00    2.844841e+00
  9.005607e+00    2.835242e+00
  9.021482e+00    2.839145e+00
  9.037358e+00    2.850232e+00
  9.053233e+00    2.803939e+00
  9.069109e+00    2.821000e+00
  9.084985e+00    2.889392e+00
  9.100860e+00    2.817167e+00
  9.116736e+00    2.789650e+00
  9.132611e+00    2.837642e+00
  9.148487e+00    2.840452e+00
  9.164362e+00    2.793895e+00
  9.180238e+00    2.776847e+00
  9.196114e+00    2.789673e+00
  9.211989e+00    2.821442e+00
  9.227865e+00    2.735669e+00
  9.243740e+00    2.777210e+00
  9.259616e+00    2.815563e+00
  9.275491e+00    2.808894e+00
  9.291367e+00    2.814867e+00
  9.307243e+00    2.819658e+00
  9.323118e+00    2.824245e+00
  9.338994e+00    2.746204e+00
  9.354869e+00    2.795879e+00
  9.370745e+00    2.837765e+00
  9.386620e+00    2.794643e+00
  9.402496e+00    2.767468e+00
  9.418372e+00    2.770478e+00
  9.434247e+00    2.783771e+00
  9.450123e+00    2.727892e+00
  9.465998e+00    2.765704e+00
  9.481874e+00    2.737616e+00
  9.497749e+00    2.702351e+00
  9.513625e+00    2.738414e+00
  9.529501e+00    2.750722e+00
  9.545376e+00    2.735707e+00
  9.561252e+00    2.746362e+00
  9.577127e+00    2.789111e+00
  9.593003e+00    2.774062e+00
  9.608878e+00    2.756174e+00
  9.624754e+00    2.701085e+00
  9.640630e+00    2.755917e+00
  9.656505e+00    2.758242e+00
  9.672381e+00    2.722386e+00
  9.688256e+00    2.709423e+00
  9.704132e+00    2.713097e+00
  9.720008e+00    2.711318e+00
  9.735883e+00    2.739288e+00
  9.751759e+00    2.717101e+00
  9.767634e+00    2.700173e+00
  9.783510e+00    2.691407e+00
  9.799385e+00    2.693938e+00
  9.815261e+00    2.732460e+00
  9.831137e+00    2.748538e+00
  9.847012e+00    2.744172e+00
  9.862888e+00    2.693103e+00
  9.878763e+00    2.726019e+00
  9.894639e+00    2.787491e+00
  9.910514e+00    2.686744e+00
  9.926390e+00    2.684505e+00
  9.942266e+00    2.738928e+00
  9.958141e+00    2.710669e+00
  9.974017e+00    2.647384e+00
  9.989892e+00    2.604365e+00
  1.000577e+01    2.633944e+00
  1.002164e+01    2.653693e+00
  1.003752e+01    2.671064e+00
  1.005339e+01    2.678287e+00
  1.006927e+01    2.672192e+00
  1.008515e+01    2.659363e+00
  1.010102e+01    2.659071e+00
  1.011690e+01    2.607778e+00
  1.013277e+01    2.649697e+00
  1.014865e+01    2.623656e+00
  1.016452e+01    2.613588e+00
  1.018040e+01    2.629498e+00
  1.019627e+01    2.605034e+00
  1.021215e+01    2.625123e+00
  1.022803e+01    2.699933e+00
  1.024390e+01    2.682856e+00
  1.025978e+01    2.673767e+00
  1.027565e+01    2.691901e+00
  1.029153e+01    2.647184e+00
  1.030740e+01    2.642125e+00
  1.032328e+01    2.655637e+00
  1.033915e+01    2.640743e+00
  1.035503e+01    2.650228e+00
  1.037091e+01    2.682475e+00
  1.038678e+01    2.656360e+00
  1.040266e+01    2.603550e+00
  1.041853e+01    2.578402e+00
  1.043441e+01    2.587462e+00
  1.045028e+01    2.565435e+00
  1.046616e+01    2.598475e+00
  1.048204e+01    2.536804e+00
  1.049791e+01    2.603150e+00
  1.051379e+01    2.605684e+00
  1.052966e+01    2.614854e+00
  1.054554e+01    2.603372e+00
  1.056141e+01    2.588298e+00
  1.057729e+01    2.609159e+00
  1.059316e+01    2.649099e+00
  1.060904e+01    2.599010e+00
  1.062492e+01    2.587586e+00
  1.064079e+01    2.565467e+00
  1.065667e+01    2.527612e+00
  1.067254e+01    2.549814e+00
  1.068842e+01    2.555410e+00
  1.070429e+01    2.563701e+00
  1.072017e+01    2.545834e+00
  1.073604e+01    2.584336e+00
  1.075192e+01    2.555012e+00
  1.076780e+01    2.547321e+00
  1.078367e+01    2.501057e+00
  1.079955e+01    2.536873e+00
  1.081542e+01    2.525319e+00
  1.083130e+01    2.514353e+00
  1.084717e+01    2.490805e+00
  1.086305e+01    2.530694e+00
  1.087892e+01    2.550562e+00
  1.089480e+01    2.543185e+00
  1.091068e+01    2.537642e+00
  1.092655e+01    2.537068e+00
  1.094243e+01    2.540691e+00
  1.095830e+01    2.506176e+00
  1.097418e+01    2.455619e+00
  1.099005e+01    2.441017e+00
  1.100593e+01    2.502074e+00
  1.102180e+01    2.488926e+00
  1.103768e+01    2.463856e+00
  1.105356e+01    2.508978e+00
  1.106943e+01    2.509321e+00
  1.108531e+01    2.457298e+00
  1.110118e+01    2.459352e+00
  1.111706e+01    2.479393e+00
  1.113293e+01    2.447246e+00
  1.114881e+01    2.481253e+00
  1.116468e+01    2.528145e+00
  1.118056e+01    2.464290e+00
  1.119644e+01    2.401672e+00
  1.121231e+01    2.433664e+00
  1.122819e+01    2.460695e+00
  1.124406e+01    2.467788e+00
  1.125994e+01    2.470540e+00
  1.127581e+01    2.478646e+00
  1.129169e+01    2.443034e+00
  1.130756e+01    2.436509e+00
  1.132344e+01    2.472009e+00
  1.133932e+01    2.446235e+00
  1.135519e+01    2.426081e+00
  1.137107e+01    2.406319e+00
  1.138694e+01    2.478877e+00
  1.140282e+01    2.453099e+00
  1.141869e+01    2.449411e+00
  1.143457e+01    2.457150e+00
  1.145045e+01    2.428125e+00
  1.146632e+01    2.425054e+00
  1.148220e+01    2.429768e+00
  1.149807e+01    2.426277e+00
  1.151395e+01    2.406306e+00
  1.152982e+01    2.376764e+00
  1.154570e+01    2.392436e+00
  1.156157e+01    2.410611e+00
  1.157745e+01    2.359871e+00
  1.159333e+01    2.357148e+00
  1.160920e+01    2.361218e+00
  1.162508e+01    2.381294e+00
  1.164095e+01    2.379661e+00
  1.165683e+01    2.364493e+00
  1.167270e+01    2.357549e+00
  1.168858e+01    2.369809e+00
  1.170445e+01    2.326966e+00
  1.172033e+01    2.341405e+00
  1.173621e+01    2.337651e+00
  1.175208e+01    2.333070e+00
  1.176796e+01    2.348398e+00
  1.178383e+01    2.356041e+00
  1.179971e+01    2.396689e+00
  1.181558e+01    2.367845e+00
  1.183146e+01    2.336102e+00
  1.184733e+01    2.343901e+00
  1.186321e+01    2.278767e+00
  1.187909e+01    2.298771e+00
  1.189496e+01    2.338367e+00
  1.191084e+01    2.339964e+00
  1.192671e+01    2.372334e+00
  1.194259e+01    2.338321e+00
  1.195846e+01    2.343524e+00
  1.197434e+01    2.359654e+00
  1.199021e+01    2.410311e+00
  1.200609e+01    2.361209e+00
  1.202197e+01    2.279770e+00
  1.203784e+01    2.326933e+00
  1.205372e+01    2.353013e+00
  1.206959e+01    2.370779e+00
  1.208547e+01    2.328535e+00
  1.210134e+01    2.326936e+00
  1.211722e+01    2.331991e+00
  1.213309e+01    2.285658e+00
  1.214897e+01    2.318026e+00
  1.216485e+01    2.319707e+00
  1.218072e+01    2.292896e+00
  1.219660e+01    2.290761e+00
  1.221247e+01    2.312906e+00
  1.222835e+01    2.310622e+00
  1.224422e+01    2.289708e+00
  1.226010e+01    2.320460e+00
  1.227597e+01    2.314428e+00
  1.229185e+01    2.319099e+00
  1.230773e+01    2.322318e+00
  1.232360e+01    2.303078e+00
  1.233948e+01    2.304255e+00
  1.235535e+01    2.336892e+00
  1.237123e+01    2.349726e+00
  1.238710e+01    2.325290e+00
  1.240298e+01    2.320716e+00
  1.241886e+01    2.302099e+00
  1.243473e+01    2.309496e+00
  1.245061e+01    2.350389e+00
  1.246648e+01    2.358674e+00
  1.248236e+01    2.311224e+00
  1.249823e+01    2.365008e+00
  1.251411e+01    2.389606e+00
  1.252998e+01    2.361605e+00
  1.254586e+01    2.363452e+00
  1.256174e+01    2.387642e+00
  1.257761e+01    2.342197e+00
  1.259349e+01    2.384417e+00
  1.260936e+01    2.406355e+00
  1.262524e+01    2.450609e+00
  1.264111e+01    2.430709e+00
  1.265699e+01    2.396924e+00
  1.267286e+01    2.423535e+00
  1.268874e+01    2.496321e+00
  1.270462e+01    2.494928e+00
  1.272049e+01    2.489948e+00
  1.273637e+01    2.510969e+00
  1.275224e+01    2.553191e+00
  1.276812e+01    2.630218e+00
  1.278399e+01    2.630159e+00
  1.279987e+01    2.609220e+00
  1.281574e+01    2.737301e+00
  1.283162e+01    2.790077e+00
  1.284750e+01    2.875559e+00
  1.286337e+01    2.979873e+00
  1.287925e+01    3.081793e+00
  1.289512e+01    3.152032e+00
  1.291100e+01    3.291612e+00
  1.292687e+01    3.488288e+00
  1.294275e+01    3.720351e+00
  1.295862e+01    3.907731e+00
  1.297450e+01    4.304317e+00
  1.299038e+01    4.741357e+00
  1.300625e+01    5.271443e+00
  1.302213e+01    5.954200e+00
  1.303800e+01    6.792889e+00
  1.305388e+01    7.887784e+00
  1.306975e+01    9.175540e+00
  1.308563e+01    1.061505e+01
  1.310150e+01    1.211845e+01
  1.311738e+01    1.364058e+01
  1.313326e+01    1.497789e+01
  1.314913e+01    1.619805e+01
  1.316501e+01    1.745295e+01
  1.318088e+01    1.839838e+01
  1.319676e+01    1.881800e+01
  1.321263e+01    1.822551e+01
  1.322851e+01    1.661358e+01
  1.324438e+01    1.444165e+01
  1.326026e+01    1.218395e+01
  1.327614e+01    1.027343e+01
  1.329201e+01    8.585817e+00
  1.330789e+01    7.292265e+00
  1.332376e+01    6.312983e+00
  1.333964e+01    5.547656e+00
  1.335551e+01    4.950267e+00
  1.337139e+01    4.530057e+00
  1.338727e+01    4.174062e+00
  1.340314e+01    3.838465e+00
  1.341902e+01    3.595079e+00
  1.343489e+01    3.382295e+00
  1.345077e+01    3.182034e+00
  1.346664e+01    3.043889e+00
  1.348252e+01    2.934865e+00
  1.349839e+01    2.809972e+00
  1.351427e+01    2.706988e+00
  1.353015e+01    2.680091e+00
  1.354602e+01    2.651109e+00
  1.356190e+01    2.601811e+00
  1.357777e+01    2.534892e+00
  1.359365e+01    2.459806e+00
  1.360952e+01    2.447230e+00
  1.362540e+01    2.432902e+00
  1.364127e+01    2.375858e+00
  1.365715e+01    2.306075e+00
  1.367303e+01    2.293369e+00
  1.368890e+01    2.276022e+00
  1.370478e+01    2.255759e+00
  1.372065e+01    2.280653e+00
  1.373653e+01    2.268591e+00
  1.375240e+01    2.211820e+00
  1.376828e+01    2.194590e+00
  1.378415e+01    2.173630e+00
  1.380003e+01    2.227335e+00
  1.381591e+01    2.205097e+00
  1.383178e+01    2.120225e+00
  1.384766e+01    2.106716e+00
  1.386353e+01    2.160798e+00
  1.387941e+01    2.155368e+00
  1.389528e+01    2.142750e+00
  1.391116e+01    2.136332e+00
  1.392703e+01    2.132005e+00
  1.394291e+01    2.077633e+00
  1.395879e+01    2.042653e+00
  1.397466e+01    2.089675e+00
  1.399054e+01    2.096246e+00
  1.400641e+01    2.098487e+00
  1.402229e+01    2.047532e+00
  1.403816e+01    2.034644e+00
  1.405404e+01    2.028538e+00
  1.406991e+01    2.024365e+00
  1.408579e+01    2.050398e+00
  1.410167e+01    2.027498e+00
  1.411754e+01    2.031079e+00
  1.413342e+01    2.019605e+00
  1.414929e+01    2.018592e+00
  1.416517e+01    2.035338e+00
  1.418104e+01    2.003846e+00
  1.419692e+01    1.993923e+00
  1.421279e+01    2.029652e+00
  1.422867e+01    2.020623e+00
  1.424455e+01    2.011098e+00
  1.426042e+01    1.987382e+00
  1.427630e+01    1.972360e+00
  1.429217e+01    1.965257e+00
  1.430805e+01    1.969555e+00
  1.432392e+01    1.979313e+00
  1.433980e+01    1.987879e+00
  1.435568e+01    1.962598e+00
  1.437155e+01    1.942223e+00
  1.438743e+01    1.948229e+00
  1.440330e+01    1.923512e+00
  1.441918e+01    1.936878e+00
  1.443505e+01    1.939599e+00
  1.445093e+01    1.977159e+00
  1.446680e+01    1.933176e+00
  1.448268e+01    1.955803e+00
  1.449856e+01    1.936807e+00
  1.451443e+01    1.904390e+00
  1.453031e+01    1.936289e+00
  1.454618e+01    1.946726e+00
  1.456206e+01    1.958107e+00
  1.457793e+01    1.944685e+00
  1.459381e+01    1.932320e+00
  1.460968e+01    1.925494e+00
  1.462556e+01    1.938177e+00
  1.464144e+01    1.911152e+00
  1.465731e+01    1.887234e+00
  1.467319e+01    1.868546e+00
  1.468906e+01    1.895682e+00
  1.470494e+01    1.912217e+00
  1.472081e+01    1.926970e+00
  1.473669e+01    1.922395e+00
  1.475256e+01    1.907796e+00
  1.476844e+01    1.881142e+00
  1.478432e+01    1.892981e+00
  1.480019e+01    1.909979e+00
  1.481607e+01    1.914531e+00
  1.483194e+01    1.916785e+00
  1.484782e+01    1.955923e+00
  1.486369e+01    1.950965e+00
  1.487957e+01    1.916697e+00
  1.489544e+01    1.932408e+00
  1.491132e+01    1.977554e+00
  1.492720e+01    1.999369e+00
  1.494307e+01    1.998767e+00
  1.495895e+01    2.025785e+00
  1.497482e+01    2.072272e+00
  1.499070e+01    2.148993e+00
  1.500657e+01    2.134836e+00
  1.502245e+01    2.213452e+00
  1.503832e+01    2.291587e+00
  1.505420e+01    2.391741e+00
  1.507008e+01    2.545149e+00
  1.508595e+01    2.655782e+00
  1.510183e+01    2.771090e+00
  1.511770e+01    3.038616e+00
  1.513358e+01    3.328287e+00
  1.514945e+01    3.642646e+00
  1.516533e+01    4.034557e+00
  1.518120e+01    4.504169e+00
  1.519708e+01    4.861838e+00
  1.521296e+01    5.237900e+00
  1.522883e+01    5.557163e+00
  1.524471e+01    5.934316e+00
  1.526058e+01    6.137937e+00
  1.527646e+01    6.216606e+00
  1.529233e+01    6.335320e+00
  1.530821e+01    6.129424e+00
  1.532409e+01    5.702172e+00
  1.533996e+01    5.158930e+00
  1.535584e+01    4.520057e+00
  1.537171e+01    3.936180e+00
  1.538759e+01    3.481264e+00
  1.540346e+01    3.164228e+00
  1.541934e+01    2.902878e+00
  1.543521e+01    2.717868e+00
  1.545109e+01    2.554537e+00
  1.546697e+01    2.419922e+00
  1.548284e+01    2.293169e+00
  1.549872e+01    2.155854e+00
  1.551459e+01    2.095135e+00
  1.553047e+01    2.056096e+00
  1.554634e+01    2.000352e+00
  1.556222e+01    1.965481e+00
  1.557809e+01    1.917160e+00
  1.559397e+01    1.874163e+00
  1.560985e+01    1.877159e+00
  1.562572e+01    1.864484e+00
  1.564160e+01    1.852063e+00
  1.565747e+01    1.817097e+00
  1.567335e+01    1.802667e+00
  1.568922e+01    1.782914e+00
  1.570510e+01    1.757065e+00
  1.572097e+01    1.737108e+00
  1.573685e+01    1.752305e+00
  1.575273e+01    1.732257e+00
  1.576860e+01    1.699382e+00
  1.578448e+01    1.721789e+00
  1.580035e+01    1.687416e+00
  1.581623e+01    1.662267e+00
  1.583210e+01    1.671304e+00
  1.584798e+01    1.661368e+00
  1.586385e+01    1.659389e+00
  1.587973e+01    1.622331e+00
  1.589561e+01    1.637912e+00
  1.591148e+01    1.674187e+00
  1.592736e+01    1.683192e+00
  1.594323e+01    1.650091e+00
  1.595911e+01    1.658997e+00
  1.597498e+01    1.642946e+00
  1.599086e+01    1.613226e+00
  1.600673e+01    1.621220e+00
  1.602261e+01    1.606617e+00
  1.603849e+01    1.626594e+00
  1.605436e+01    1.632117e+00
  1.607024e+01    1.601670e+00
  1.608611e+01    1.570648e+00
  1.610199e+01    1.562453e+00
  1.611786e+01    1.551401e+00
  1.613374e+01    1.558026e+00
  1.614961e+01    1.594484e+00
  1.616549e+01    1.570075e+00
  1.618137e+01    1.609575e+00
  1.619724e+01    1.607916e+00
  1.621312e+01    1.586031e+00
  1.622899e+01    1.583702e+00
  1.624487e+01    1.578416e+00
  1.626074e+01    1.557718e+00
  1.627662e+01    1.537998e+00
  1.629250e+01    1.520077e+00
  1.630837e+01    1.518723e+00
  1.632425e+01    1.572781e+00
  1.634012e+01    1.551953e+00
  1.635600e+01    1.523399e+00
  1.637187e+01    1.560315e+00
  1.638775e+01    1.557956e+00
  1.640362e+01    1.515422e+00
  1.641950e+01    1.528606e+00
  1.643538e+01    1.554787e+00
  1.645125e+01    1.519532e+00
  1.646713e+01    1.520716e+00
  1.648300e+01    1.515739e+00
  1.649888e+01    1.506936e+00
  1.651475e+01    1.516826e+00
  1.653063e+01    1.537382e+00
  1.654650e+01    1.523530e+00
  1.656238e+01    1.500088e+00
  1.657826e+01    1.494434e+00
  1.659413e+01    1.498790e+00
  1.661001e+01    1.490880e+00
  1.662588e+01    1.499820e+00
  1.664176e+01    1.503076e+00
  1.665763e+01    1.510580e+00
  1.667351e+01    1.492479e+00
  1.668938e+01    1.456594e+00
  1.670526e+01    1.488614e+00
  1.672114e+01    1.485557e+00
  1.673701e+01    1.487006e+00
  1.675289e+01    1.465013e+00
  1.676876e+01    1.475250e+00
  1.678464e+01    1.456807e+00
  1.680051e+01    1.458852e+00
  1.681639e+01    1.454845e+00
  1.683226e+01    1.464417e+00
  1.684814e+01    1.493021e+00
  1.686402e+01    1.453122e+00
  1.687989e+01    1.467163e+00
  1.689577e+01    1.458593e+00
  1.691164e+01    1.424491e+00
  1.692752e+01    1.457487e+00
  1.694339e+01    1.464692e+00
  1.695927e+01    1.468483e+00
  1.697514e+01    1.452757e+00
  1.699102e+01    1.443046e+00
  1.700690e+01    1.414947e+00
  1.702277e+01    1.388968e+00
  1.703865e+01    1.419632e+00
  1.705452e+01    1.452726e+00
  1.707040e+01    1.398176e+00
  1.708627e+01    1.413901e+00
  1.710215e+01    1.448761e+00
  1.711802e+01    1.417824e+00
  1.713390e+01    1.408157e+00
  1.714978e+01    1.424234e+00
  1.716565e+01    1.406520e+00
  1.718153e+01    1.380615e+00
  1.719740e+01    1.421376e+00
  1.721328e+01    1.414014e+00
  1.722915e+01    1.421481e+00
  1.724503e+01    1.431124e+00
  1.726091e+01    1.432874e+00
  1.727678e+01    1.394637e+00
  1.729266e+01    1.387610e+00
  1.730853e+01    1.398047e+00
  1.732441e+01    1.385192e+00
  1.734028e+01    1.383333e+00
  1.735616e+01    1.379626e+00
  1.737203e+01    1.382194e+00
  1.738791e+01    1.365862e+00
  1.740379e+01    1.364052e+00
  1.741966e+01    1.343122e+00
  1.743554e+01    1.350105e+00
  1.745141e+01    1.361366e+00
  1.746729e+01    1.348456e+00
  1.748316e+01    1.355751e+00
  1.749904e+01    1.356281e+00
  1.751491e+01    1.373418e+00
  1.753079e+01    1.364635e+00
  1.754667e+01    1.378126e+00
  1.756254e+01    1.371040e+00
  1.757842e+01    1.359913e+00
  1.759429e+01    1.359095e+00
  1.761017e+01    1.357956e+00
  1.762604e+01    1.355997e+00
  1.764192e+01    1.352939e+00
  1.765779e+01    1.380602e+00
  1.767367e+01    1.360304e+00
  1.768955e+01    1.369325e+00
  1.770542e+01    1.355642e+00
  1.772130e+01    1.346962e+00
  1.773717e+01    1.324373e+00
  1.775305e+01    1.348811e+00
  1.776892e+01    1.348864e+00
  1.778480e+01    1.322103e+00
  1.780067e+01    1.327684e+00
  1.781655e+01    1.316409e+00
  1.783243e+01    1.307348e+00
  1.784830e+01    1.331007e+00
  1.786418e+01    1.352406e+00
  1.788005e+01    1.337333e+00
  1.789593e+01    1.323447e+00
  1.791180e+01    1.309403e+00
  1.792768e+01    1.302573e+00
  1.794355e+01    1.319688e+00
  1.795943e+01    1.314947e+00
  1.797531e+01    1.288589e+00
  1.799118e+01    1.288567e+00
  1.800706e+01    1.280648e+00
  1.802293e+01    1.307392e+00
  1.803881e+01    1.296586e+00
  1.805468e+01    1.297753e+00
  1.807056e+01    1.317864e+00
  1.808643e+01    1.325116e+00
  1.810231e+01    1.293002e+00
  1.811819e+01    1.291944e+00
  1.813406e+01    1.288860e+00
  1.814994e+01    1.302014e+00
  1.816581e+01    1.307079e+00
  1.818169e+01    1.300510e+00
  1.819756e+01    1.277649e+00
  1.821344e+01    1.291710e+00
  1.822932e+01    1.279788e+00
  1.824519e+01    1.267864e+00
  1.826107e+01    1.255645e+00
  1.827694e+01    1.248686e+00
  1.829282e+01    1.256973e+00
  1.830869e+01    1.291880e+00
  1.832457e+01    1.282638e+00
  1.834044e+01    1.281600e+00
  1.835632e+01    1.271812e+00
  1.837220e+01    1.243782e+00
  1.838807e+01    1.257063e+00
  1.840395e+01    1.269668e+00
  1.841982e+01    1.283231e+00
  1.843570e+01    1.241479e+00
  1.845157e+01    1.257301e+00
  1.846745e+01    1.271695e+00
  1.848332e+01    1.281542e+00
  1.849920e+01    1.278633e+00
  1.851508e+01    1.240985e+00
  1.853095e+01    1.241444e+00
  1.854683e+01    1.240978e+00
  1.856270e+01    1.268862e+00
  1.857858e+01    1.275202e+00
  1.859445e+01    1.257699e+00
  1.861033e+01    1.247461e+00
  1.862620e+01    1.233654e+00
  1.864208e+01    1.243850e+00
  1.865796e+01    1.248357e+00
  1.867383e+01    1.249085e+00
  1.868971e+01    1.221361e+00
  1.870558e+01    1.228940e+00
  1.872146e+01    1.221849e+00
  1.873733e+01    1.241809e+00
  1.875321e+01    1.234622e+00
  1.876908e+01    1.211875e+00
  1.878496e+01    1.223088e+00
  1.880084e+01    1.211947e+00
  1.881671e+01    1.225837e+00
  1.883259e+01    1.226381e+00
  1.884846e+01    1.215308e+00
  1.886434e+01    1.221829e+00
  1.888021e+01    1.220249e+00
  1.889609e+01    1.194603e+00
  1.891196e+01    1.218719e+00
  1.892784e+01    1.207413e+00
  1.894372e+01    1.202076e+00
  1.895959e+01    1.215483e+00
  1.897547e+01    1.198909e+00
  1.899134e+01    1.223639e+00
  1.900722e+01    1.218632e+00
  1.902309e+01    1.210418e+00
  1.903897e+01    1.194578e+00
  1.905484e+01    1.187712e+00
  1.907072e+01    1.187791e+00
  1.908660e+01    1.201569e+00
  1.910247e+01    1.204403e+00
  1.911835e+01    1.206803e+00
  1.913422e+01    1.232117e+00
  1.915010e+01    1.192337e+00
  1.916597e+01    1.173581e+00
  1.918185e+01    1.175454e+00
  1.919773e+01    1.185744e+00
  1.921360e+01    1.200921e+00
  1.922948e+01    1.189128e+00
  1.924535e+01    1.216457e+00
  1.926123e+01    1.190829e+00
  1.927710e+01    1.212430e+00
  1.929298e+01    1.211798e+00
  1.930885e+01    1.193847e+00
  1.932473e+01    1.218252e+00
  1.934061e+01    1.205423e+00
  1.935648e+01    1.193364e+00
  1.937236e+01    1.164666e+00
  1.938823e+01    1.182635e+00
  1.940411e+01    1.190642e+00
  1.941998e+01    1.186250e+00
  1.943586e+01    1.182455e+00
  1.945173e+01    1.175752e+00
  1.946761e+01    1.178515e+00
  1.948349e+01    1.173027e+00
  1.949936e+01    1.172803e+00
  1.951524e+01    1.150348e+00
  1.953111e+01    1.149152e+00
  1.954699e+01    1.171482e+00
  1.956286e+01    1.153429e+00
  1.957874e+01    1.144503e+00
  1.959461e+01    1.132300e+00
  1.961049e+01    1.151291e+00
  1.962637e+01    1.161693e+00
  1.964224e+01    1.152146e+00
  1.965812e+01    1.150773e+00
  1.967399e+01    1.168412e+00
  1.968987e+01    1.158592e+00
  1.970574e+01    1.139755e+00
  1.972162e+01    1.162173e+00
  1.973749e+01    1.158934e+00
  1.975337e+01    1.157993e+00
  1.976925e+01    1.121199e+00
  1.978512e+01    1.155278e+00
  1.980100e+01    1.161694e+00
  1.981687e+01    1.152894e+00
  1.983275e+01    1.137137e+00
  1.984862e+01    1.162817e+00
  1.986450e+01    1.159456e+00
  1.988037e+01    1.131982e+00
  1.989625e+01    1.140077e+00
  1.991213e+01    1.131766e+00
  1.992800e+01    1.113819e+00
  1.994388e+01    1.090990e+00
  1.995975e+01    1.145265e+00
  1.997563e+01    1.139966e+00
  1.999150e+01    1.131985e+00
  2.000738e+01    1.139300e+00
  2.002325e+01    1.124231e+00
  2.003913e+01    1.129560e+00
  2.005501e+01    1.121371e+00
  2.007088e+01    1.103966e+00
  2.008676e+01    1.130768e+00
  2.010263e+01    1.124825e+00
  2.011851e+01    1.117635e+00
  2.013438e+01    1.113353e+00
  2.015026e+01    1.106918e+00
  2.016614e+01    1.123922e+00
  2.018201e+01    1.129676e+00
  2.019789e+01    1.111740e+00
  2.021376e+01    1.104526e+00
  2.022964e+01    1.087719e+00
  2.024551e+01    1.097088e+00
  2.026139e+01    1.100993e+00
  2.027726e+01    1.106184e+00
  2.029314e+01    1.099854e+00
  2.030902e+01    1.129762e+00
  2.032489e+01    1.122308e+00
  2.034077e+01    1.090382e+00
  2.035664e+01    1.076759e+00
  2.037252e+01    1.079984e+00
  2.038839e+01    1.099223e+00
  2.040427e+01    1.096026e+00
  2.042014e+01    1.084287e+00
  2.043602e+01    1.083281e+00
  2.045190e+01    1.100460e+00
  2.046777e+01    1.107893e+00
  2.048365e+01    1.100300e+00
  2.049952e+01    1.088586e+00
  2.051540e+01    1.083632e+00
  2.053127e+01    1.102303e+00
  2.054715e+01    1.092881e+00
  2.056302e+01    1.088045e+00
  2.057890e+01    1.117200e+00
  2.059478e+01    1.110691e+00
  2.061065e+01    1.107828e+00
  2.062653e+01    1.105493e+00
  2.064240e+01    1.088095e+00
  2.065828e+01    1.109581e+00
  2.067415e+01    1.075585e+00
  2.069003e+01    1.083984e+00
  2.070590e+01    1.097725e+00
  2.072178e+01    1.103215e+00
  2.073766e+01    1.089877e+00
  2.075353e+01    1.109198e+00
  2.076941e+01    1.093426e+00
  2.078528e+01    1.093972e+00
  2.080116e+01    1.102674e+00
  2.081703e+01    1.097861e+00
  2.083291e+01    1.088276e+00
  2.084878e+01    1.081956e+00
  2.086466e+01    1.076417e+00
  2.088054e+01    1.084979e+00
  2.089641e+01    1.076802e+00
  2.091229e+01    1.086971e+00
  2.092816e+01    1.082978e+00
  2.094404e+01    1.077919e+00
  2.095991e+01    1.057958e+00
  2.097579e+01    1.085045e+00
  2.099166e+01    1.088819e+00
  2.100754e+01    1.062767e+00
  2.102342e+01    1.063404e+00
  2.103929e+01    1.058828e+00
  2.105517e+01    1.067292e+00
  2.107104e+01    1.074535e+00
  2.108692e+01    1.120830e+00
  2.110279e+01    1.099878e+00
  2.111867e+01    1.087351e+00
  2.113455e+01    1.100047e+00
  2.115042e+01    1.106902e+00
  2.116630e+01    1.109805e+00
  2.118217e+01    1.097508e+00
  2.119805e+01    1.107270e+00
  2.121392e+01    1.094349e+00
  2.122980e+01    1.094575e+00
  2.124567e+01    1.115154e+00
  2.126155e+01    1.117751e+00
  2.127743e+01    1.133265e+00
  2.129330e+01    1.133805e+00
  2.130918e+01    1.130091e+00
  2.132505e+01    1.140535e+00
  2.134093e+01    1.160536e+00
  2.135680e+01    1.143297e+00
  2.137268e+01    1.170705e+00
  2.138855e+01    1.167101e+00
  2.140443e+01    1.184088e+00
  2.142031e+01    1.171663e+00
  2.143618e+01    1.184660e+00
  2.145206e+01    1.232812e+00
  2.146793e+01    1.249035e+00
  2.148381e+01    1.245214e+00
  2.149968e+01    1.288264e+00
  2.151556e+01    1.326840e+00
  2.153143e+01    1.322909e+00
  2.154731e+01    1.346977e+00
  2.156319e+01    1.371757e+00
  2.157906e+01    1.448175e+00
  2.159494e+01    1.509621e+00
  2.161081e+01    1.578486e+00
  2.162669e+01    1.639445e+00
  2.164256e+01    1.752463e+00
  2.165844e+01    1.884779e+00
  2.167431e+01    2.006348e+00
  2.169019e+01    2.171924e+00
  2.170607e+01    2.388378e+00
  2.172194e+01    2.676644e+00
  2.173782e+01    2.992724e+00
  2.175369e+01    3.358752e+00
  2.176957e+01    3.804758e+00
  2.178544e+01    4.451980e+00
  2.180132e+01    5.161341e+00
  2.181719e+01    5.831857e+00
  2.183307e+01    6.558796e+00
  2.184895e+01    7.401654e+00
  2.186482e+01    8.150352e+00
  2.188070e+01    9.037947e+00
  2.189657e+01    9.734992e+00
  2.191245e+01    1.022069e+01
  2.192832e+01    1.036111e+01
  2.194420e+01    1.001783e+01
  2.196007e+01    9.256213e+00
  2.197595e+01    8.269145e+00
  2.199183e+01    7.119656e+00
  2.200770e+01    6.032937e+00
  2.202358e+01    5.070810e+00
  2.203945e+01    4.356515e+00
  2.205533e+01    3.746795e+00
  2.207120e+01    3.261275e+00
  2.208708e+01    2.867007e+00
  2.210296e+01    2.590681e+00
  2.211883e+01    2.338505e+00
  2.213471e+01    2.103860e+00
  2.215058e+01    1.925615e+00
  2.216646e+01    1.805283e+00
  2.218233e+01    1.673833e+00
  2.219821e+01    1.611135e+00
  2.221408e+01    1.531591e+00
  2.222996e+01    1.449621e+00
  2.224584e+01    1.419217e+00
  2.226171e+01    1.366332e+00
  2.227759e+01    1.287749e+00
  2.229346e+01    1.258721e+00
  2.230934e+01    1.222407e+00
  2.232521e+01    1.207705e+00
  2.234109e+01    1.195968e+00
  2.235696e+01    1.168197e+00
  2.237284e+01    1.150091e+00
  2.238872e+01    1.140622e+00
  2.240459e+01    1.127000e+00
  2.242047e+01    1.117355e+00
  2.243634e+01    1.102490e+00
  2.245222e+01    1.096040e+00
  2.246809e+01    1.091478e+00
  2.248397e+01    1.065107e+00
  2.249984e+01    1.057907e+00
  2.251572e+01    1.065480e+00
  2.253160e+01    1.027663e+00
  2.254747e+01    9.911047e-01
  2.256335e+01    9.924131e-01
  2.257922e+01    1.000485e+00
  2.259510e+01    9.976428e-01
  2.261097e+01    9.854136e-01
  2.262685e+01    9.951569e-01
  2.264272e+01    1.001358e+00
  2.265860e+01    9.869924e-01
  2.267448e+01    9.815164e-01
  2.269035e+01    9.886827e-01
  2.270623e+01    9.615229e-01
  2.272210e+01    9.825335e-01
  2.273798e+01    9.730102e-01
  2.275385e+01    9.635333e-01
  2.276973e+01    9.656931e-01
  2.278560e+01    9.426997e-01
  2.280148e+01    9.346272e-01
  2.281736e+01    9.536891e-01
  2.283323e+01    9.470254e-01
  2.284911e+01    9.457116e-01
  2.286498e+01    9.405448e-01
  2.288086e+01    9.439828e-01
  2.289673e+01    9.248757e-01
  2.291261e+01    9.366850e-01
  2.292848e+01    9.350436e-01
  2.294436e+01    9.171837e-01
  2.296024e+01    8.958910e-01
  2.297611e+01    9.105734e-01
  2.299199e+01    8.944545e-01
  2.300786e+01    8.999716e-01
  2.302374e+01    9.076731e-01
  2.303961e+01    9.059491e-01
  2.305549e+01    9.033455e-01
  2.307137e+01    9.158474e-01
  2.308724e+01    9.045480e-01
  2.310312e+01    9.096050e-01
  2.311899e+01    9.017465e-01
  2.313487e+01    8.908690e-01
  2.315074e+01    8.935500e-01
  2.316662e+01    8.906397e-01
  2.318249e+01    8.819870e-01
  2.319837e+01    8.773707e-01
  2.321425e+01    8.860134e-01
  2.323012e+01    8.748654e-01
  2.324600e+01    8.857802e-01
  2.326187e+01    8.841816e-01
  2.327775e+01    8.778246e-01
  2.329362e+01    8.899674e-01
  2.330950e+01    8.810385e-01
  2.332537e+01    8.604299e-01
  2.334125e+01    8.671803e-01
  2.335713e+01    8.630208e-01
  2.337300e+01    8.692029e-01
  2.338888e+01    8.601672e-01
  2.340475e+01    8.483349e-01
  2.342063e+01    8.505541e-01
  2.343650e+01    8.663818e-01
  2.345238e+01    8.647618e-01
  2.346825e+01    8.539481e-01
  2.348413e+01    8.633787e-01
  2.350001e+01    8.490471e-01
  2.351588e+01    8.365820e-01
  2.353176e+01    8.811885e-01
  2.354763e+01    8.727411e-01
  2.356351e+01    8.451164e-01
  2.357938e+01    8.406826e-01
  2.359526e+01    8.413934e-01
  2.361113e+01    8.339280e-01
  2.362701e+01    8.526369e-01
  2.364289e+01    8.466232e-01
  2.365876e+01    8.380913e-01
  2.367464e+01    8.195128e-01
  2.369051e+01    8.343952e-01
  2.370639e+01    8.611003e-01
  2.372226e+01    8.506026e-01
  2.373814e+01    8.476987e-01
  2.375401e+01    8.457067e-01
  2.376989e+01    8.216954e-01
  2.378577e+01    8.288256e-01
  2.380164e+01    8.146272e-01
  2.381752e+01    8.306131e-01
  2.383339e+01    7.982333e-01
  2.384927e+01    8.165826e-01
  2.386514e+01    8.065957e-01
  2.388102e+01    8.139777e-01
  2.389689e+01    7.987452e-01
  2.391277e+01    7.954738e-01
  2.392865e+01    8.036842e-01
  2.394452e+01    7.955222e-01
  2.396040e+01    7.965425e-01
  2.397627e+01    8.242919e-01
  2.399215e+01    8.049573e-01
  2.400802e+01    7.910899e-01
  2.402390e+01    7.950919e-01
  2.403978e+01    7.916168e-01
  2.405565e+01    7.858731e-01
  2.407153e+01    7.817489e-01
  2.408740e+01    7.921571e-01
  2.410328e+01    7.784310e-01
  2.411915e+01    7.763504e-01
  2.413503e+01    7.836646e-01
  2.415090e+01    7.793310e-01
  2.416678e+01    7.818195e-01
  2.418266e+01    7.835689e-01
  2.419853e+01    7.813765e-01
  2.421441e+01    7.615958e-01
  2.423028e+01    7.735909e-01
  2.424616e+01    7.853540e-01
  2.426203e+01    7.815254e-01
  2.427791e+01    7.967325e-01
  2.429378e+01    7.946676e-01
  2.430966e+01    8.105810e-01
  2.432554e+01    8.134116e-01
  2.434141e+01    7.868730e-01
  2.435729e+01    7.951852e-01
  2.437316e+01    8.197603e-01
  2.438904e+01    8.112731e-01
  2.440491e+01    8.062836e-01
  2.442079e+01    8.067787e-01
  2.443666e+01    7.829668e-01
  2.445254e+01    7.781069e-01
  2.446842e+01    8.119356e-01
  2.448429e+01    8.054230e-01
  2.450017e+01    8.093733e-01
  2.451604e+01    8.079786e-01
  2.453192e+01    8.121877e-01
  2.454779e+01    8.239222e-01
  2.456367e+01    8.174483e-01
  2.457954e+01    8.143993e-01
  2.459542e+01    7.828956e-01
  2.461130e+01    7.743796e-01
  2.462717e+01    7.882900e-01
  2.464305e+01    7.904635e-01
  2.465892e+01    8.031979e-01
  2.467480e+01    8.095080e-01
  2.469067e+01    7.825559e-01
  2.470655e+01    7.995059e-01
  2.472242e+01    8.028128e-01
  2.473830e+01    8.076776e-01
  2.475418e+01    8.028554e-01
  2.477005e+01    7.982065e-01
  2.478593e+01    8.134596e-01
  2.480180e+01    8.021470e-01
  2.481768e+01    7.976863e-01
  2.483355e+01    7.825491e-01
  2.484943e+01    8.257211e-01
  2.486530e+01    7.954807e-01
  2.488118e+01    7.859957e-01
  2.489706e+01    7.889907e-01
  2.491293e+01    8.045643e-01
  2.492881e+01    8.217704e-01
  2.494468e+01    8.178522e-01
  2.496056e+01    8.115016e-01
  2.497643e+01    8.007513e-01
  2.499231e+01    7.977661e-01
  2.500819e+01    8.275456e-01
  2.502406e+01    8.146383e-01
  2.503994e+01    8.230954e-01
  2.505581e+01    8.234318e-01
  2.507169e+01    8.169556e-01
  2.508756e+01    8.332105e-01
  2.510344e+01    8.101530e-01
  2.511931e+01    8.136085e-01
  2.513519e+01    8.310111e-01
  2.515107e+01    8.284195e-01
  2.516694e+01    8.309658e-01
  2.518282e+01    8.171230e-01
  2.519869e+01    8.187642e-01
  2.521457e+01    8.406212e-01
  2.523044e+01    8.405865e-01
  2.524632e+01    8.489534e-01
  2.526219e+01    8.515075e-01
  2.527807e+01    8.481520e-01
  2.529395e+01    8.671659e-01
  2.530982e+01    8.842171e-01
  2.532570e+01    9.016991e-01
  2.534157e+01    8.850506e-01
  2.535745e+01    8.860931e-01
  2.537332e+01    8.907459e-01
  2.538920e+01    9.037979e-01
  2.540507e+01    9.062210e-01
  2.542095e+01    9.238766e-01
  2.543683e+01    9.143679e-01
  2.545270e+01    9.144851e-01
  2.546858e+01    9.526851e-01
  2.548445e+01    9.573342e-01
  2.550033e+01    9.757448e-01
  2.551620e+01    9.942962e-01
  2.553208e+01    9.936438e-01
  2.554795e+01    1.005572e+00
  2.556383e+01    1.037462e+00
  2.557971e+01    1.047939e+00
  2.559558e+01    1.056343e+00
  2.561146e+01    1.090124e+00
  2.562733e+01    1.136438e+00
  2.564321e+01    1.194320e+00
  2.565908e+01    1.261269e+00
  2.567496e+01    1.277391e+00
  2.569083e+01    1.352658e+00
  2.570671e+01    1.446187e+00
  2.572259e+01    1.529677e+00
  2.573846e+01    1.620226e+00
  2.575434e+01    1.736983e+00
  2.577021e+01    1.950436e+00
  2.578609e+01    2.143365e+00
  2.580196e+01    2.385967e+00
  2.581784e+01    2.642745e+00
  2.583371e+01    2.961466e+00
  2.584959e+01    3.380082e+00
  2.586547e+01    3.928504e+00
  2.588134e+01    4.527113e+00
  2.589722e+01    5.197836e+00
  2.591309e+01    5.840108e+00
  2.592897e+01    6.647502e+00
  2.594484e+01    7.394681e+00
  2.596072e+01    7.996583e+00
  2.597660e+01    8.449566e+00
  2.599247e+01    8.588800e+00
  2.600835e+01    8.482114e+00
  2.602422e+01    7.930393e+00
  2.604010e+01    7.214603e+00
  2.605597e+01    6.346217e+00
  2.607185e+01    5.418977e+00
  2.608772e+01    4.623672e+00
  2.610360e+01    3.966124e+00
  2.611948e+01    3.431813e+00
  2.613535e+01    2.943087e+00
  2.615123e+01    2.616206e+00
  2.616710e+01    2.323857e+00
  2.618298e+01    2.103498e+00
  2.619885e+01    1.913386e+00
  2.621473e+01    1.768714e+00
  2.623060e+01    1.632988e+00
  2.624648e+01    1.525084e+00
  2.626236e+01    1.448150e+00
  2.627823e+01    1.360359e+00
  2.629411e+01    1.312196e+00
  2.630998e+01    1.250708e+00
  2.632586e+01    1.195683e+00
  2.634173e+01    1.152996e+00
  2.635761e+01    1.128586e+00
  2.637348e+01    1.101554e+00
  2.638936e+01    1.070886e+00
  2.640524e+01    1.038696e+00
  2.642111e+01    1.051485e+00
  2.643699e+01    1.024243e+00
  2.645286e+01    1.007025e+00
  2.646874e+01    1.000091e+00
  2.648461e+01    9.693409e-01
  2.650049e+01    9.814301e-01
  2.651636e+01    9.770294e-01
  2.653224e+01    9.637555e-01
  2.654812e+01    9.601020e-01
  2.656399e+01    9.493787e-01
  2.657987e+01    9.276054e-01
  2.659574e+01    9.309969e-01
  2.661162e+01    9.278584e-01
  2.662749e+01    9.417898e-01
  2.664337e+01    9.184679e-01
  2.665924e+01    9.089240e-01
  2.667512e+01    8.984155e-01
  2.669100e+01    9.014716e-01
  2.670687e+01    9.028620e-01
  2.672275e+01    9.075311e-01
  2.673862e+01    9.101648e-01
  2.675450e+01    9.226145e-01
  2.677037e+01    9.209785e-01
  2.678625e+01    9.001968e-01
  2.680212e+01    9.113317e-01
  2.681800e+01    9.052844e-01
  2.683388e+01    8.943100e-01
  2.684975e+01    8.870934e-01
  2.686563e+01    9.100652e-01
  2.688150e+01    9.280844e-01
  2.689738e+01    9.210176e-01
  2.691325e+01    9.391904e-01
  2.692913e+01    9.399303e-01
  2.694501e+01    9.613845e-01
  2.696088e+01    9.531205e-01
  2.697676e+01    9.841011e-01
  2.699263e+01    1.020989e+00
  2.700851e+01    1.031061e+00
  2.702438e+01    1.026369e+00
  2.704026e+01    1.049261e+00
  2.705613e+01    1.105393e+00
  2.707201e+01    1.156430e+00
  2.708789e+01    1.229542e+00
  2.710376e+01    1.316368e+00
  2.711964e+01    1.390692e+00
  2.713551e+01    1.483129e+00
  2.715139e+01    1.672685e+00
  2.716726e+01    1.798274e+00
  2.718314e+01    1.947103e+00
  2.719901e+01    2.112881e+00
  2.721489e+01    2.294198e+00
  2.723077e+01    2.413897e+00
  2.724664e+01    2.460308e+00
  2.726252e+01    2.499495e+00
  2.727839e+01    2.377753e+00
  2.729427e+01    2.245520e+00
  2.731014e+01    2.095562e+00
  2.732602e+01    1.875247e+00
  2.734189e+01    1.700103e+00
  2.735777e+01    1.571097e+00
  2.737365e+01    1.425320e+00
  2.738952e+01    1.344407e+00
  2.740540e+01    1.257437e+00
  2.742127e+01    1.172978e+00
  2.743715e+01    1.107723e+00
  2.745302e+01    1.086254e+00
  2.746890e+01    1.063199e+00
  2.748477e+01    1.036212e+00
  2.750065e+01    9.837602e-01
  2.751653e+01    9.411911e-01
  2.753240e+01    9.214138e-01
  2.754828e+01    9.091989e-01
  2.756415e+01    8.954761e-01
  2.758003e+01    8.912601e-01
  2.759590e+01    8.844362e-01
  2.761178e+01    8.984054e-01
  2.762765e+01    8.684279e-01
  2.764353e+01    8.634683e-01
  2.765941e+01    8.583794e-01
  2.767528e+01    8.461301e-01
  2.769116e+01    8.399610e-01
  2.770703e+01    8.268457e-01
  2.772291e+01    8.304766e-01
  2.773878e+01    8.434742e-01
  2.775466e+01    8.309284e-01
  2.777054e+01    8.402421e-01
  2.778641e+01    8.302813e-01
  2.780229e+01    8.224961e-01
  2.781816e+01    8.218169e-01
  2.783404e+01    8.228498e-01
  2.784991e+01    8.192243e-01
  2.786579e+01    8.068190e-01
  2.788166e+01    8.112597e-01
  2.789754e+01    8.196843e-01
  2.791342e+01    8.118921e-01
  2.792929e+01    8.195164e-01
  2.794517e+01    7.930722e-01
  2.796104e+01    8.176038e-01
  2.797692e+01    7.804182e-01
  2.799279e+01    7.805871e-01
  2.800867e+01    7.820466e-01
  2.802454e+01    7.727189e-01
  2.804042e+01    7.886866e-01
  2.805630e+01    8.089084e-01
  2.807217e+01    7.941043e-01
  2.808805e+01    7.833791e-01
  2.810392e+01    7.865242e-01
  2.811980e+01    7.832754e-01
  2.813567e+01    7.767932e-01
  2.815155e+01    7.843150e-01
  2.816742e+01    7.742888e-01
  2.818330e+01    7.863969e-01
  2.819918e+01    7.846553e-01
  2.821505e+01    7.859724e-01
  2.823093e+01    7.699762e-01
  2.824680e+01    7.805558e-01
  2.826268e+01    7.700095e-01
  2.827855e+01    7.651417e-01
  2.829443e+01    7.749969e-01
  2.831030e+01    7.677201e-01
  2.832618e+01    7.751576e-01
  2.834206e+01    7.764463e-01
  2.835793e+01    8.005647e-01
  2.837381e+01    7.795892e-01
  2.838968e+01    7.656089e-01
  2.840556e+01    7.717888e-01
  2.842143e+01    7.663796e-01
  2.843731e+01    7.753613e-01
  2.845318e+01    7.698945e-01
  2.846906e+01    7.686400e-01
  2.848494e+01    7.660670e-01
  2.850081e+01    7.695549e-01
  2.851669e+01    7.664786e-01
  2.853256e+01    7.720602e-01
  2.854844e+01    7.665156e-01
  2.856431e+01    7.592217e-01
  2.858019e+01    7.460982e-01
  2.859606e+01    7.588516e-01
  2.861194e+01    7.664933e-01
  2.862782e+01    7.659591e-01
  2.864369e+01    7.538738e-01
  2.865957e+01    7.643108e-01
  2.867544e+01    7.603095e-01
  2.869132e+01    7.482365e-01
  2.870719e+01    7.602955e-01
  2.872307e+01    7.463430e-01
  2.873895e+01    7.395573e-01
  2.875482e+01    7.438400e-01
  2.877070e+01    7.498568e-01
  2.878657e+01    7.422009e-01
  2.880245e+01    7.551072e-01
  2.881832e+01    7.304167e-01
  2.883420e+01    7.543221e-01
  2.885007e+01    7.492933e-01
  2.886595e+01    7.393232e-01
  2.888183e+01    7.409899e-01
  2.889770e+01    7.606556e-01
  2.891358e+01    7.594321e-01
  2.892945e+01    7.494882e-01
  2.894533e+01    7.648209e-01
  2.896120e+01    7.564841e-01
  2.897708e+01    7.660223e-01
  2.899295e+01    7.691401e-01
  2.900883e+01    7.305972e-01
  2.902471e+01    7.257428e-01
  2.904058e+01    7.579920e-01
  2.905646e+01    7.518327e-01
  2.907233e+01    7.576364e-01
  2.908821e+01    7.611583e-01
  2.910408e+01    7.515693e-01
  2.911996e+01    7.605416e-01
  2.913583e+01    7.547928e-01
  2.915171e+01    7.476267e-01
  2.916759e+01    7.338096e-01
  2.918346e+01    7.535496e-01
  2.919934e+01    7.483033e-01
  2.921521e+01    7.442459e-01
  2.923109e+01    7.285624e-01
  2.924696e+01    7.398909e-01
  2.926284e+01    7.290635e-01
  2.927871e+01    7.277382e-01
  2.929459e+01    7.532243e-01
  2.931047e+01    7.447681e-01
  2.932634e+01    7.328365e-01
  2.934222e+01    7.213812e-01
  2.935809e+01    7.280741e-01
  2.937397e+01    7.302135e-01
  2.938984e+01    7.445652e-01
  2.940572e+01    7.325944e-01
  2.942159e+01    7.168897e-01
  2.943747e+01    7.046877e-01
  2.945335e+01    7.303970e-01
  2.946922e+01    7.375501e-01
  2.948510e+01    7.311445e-01
  2.950097e+01    7.287492e-01
  2.951685e+01    7.226332e-01
  2.953272e+01    7.221638e-01
  2.954860e+01    7.337975e-01
  2.956447e+01    7.323472e-01
  2.958035e+01    7.247360e-01
  2.959623e+01    7.126184e-01
  2.961210e+01    7.201412e-01
  2.962798e+01    7.352338e-01
  2.964385e+01    7.316875e-01
  2.965973e+01    7.373411e-01
  2.967560e+01    7.222102e-01
  2.969148e+01    7.191944e-01
  2.970736e+01    7.381416e-01
  2.972323e+01    7.234147e-01
  2.973911e+01    7.237779e-01
  2.975498e+01    7.289037e-01
  2.977086e+01    7.276794e-01
  2.978673e+01    7.375013e-01
  2.980261e+01    7.348730e-01
  2.981848e+01    7.503752e-01
  2.983436e+01    7.496307e-01
  2.985024e+01    7.251900e-01
  2.986611e+01    7.282249e-01
  2.988199e+01    7.299433e-01
  2.989786e+01    7.292173e-01
  2.991374e+01    7.190642e-01
  2.992961e+01    7.233552e-01
  2.994549e+01    7.477968e-01
  2.996136e+01    7.159728e-01
  2.997724e+01    7.160046e-01
  2.999312e+01    7.389404e-01
  3.000899e+01    7.412148e-01
  3.002487e+01    7.399274e-01
  3.004074e+01    7.452371e-01
  3.005662e+01    7.477140e-01
  3.007249e+01    7.353025e-01
  3.008837e+01    7.426083e-01
  3.010424e+01    7.455946e-01
  3.012012e+01    7.325014e-01
  3.013600e+01    7.204794e-01
  3.015187e+01    7.482845e-01
  3.016775e+01    7.454448e-01
  3.018362e+01    7.051808e-01
  3.019950e+01    7.078001e-01
  3.021537e+01    7.252501e-01
  3.023125e+01    7.032642e-01
  3.024712e+01    7.111813e-01
  3.026300e+01    7.140312e-01
  3.027888e+01    7.254650e-01
  3.029475e+01    7.245991e-01
  3.031063e+01    7.188587e-01
  3.032650e+01    7.110058e-01
  3.034238e+01    6.963034e-01
  3.035825e+01    7.037866e-01
  3.037413e+01    6.992509e-01
  3.039000e+01    7.153673e-01
  3.040588e+01    7.210139e-01
  3.042176e+01    7.228720e-01
  3.043763e+01    7.129562e-01
  3.045351e+01    7.091829e-01
  3.046938e+01    7.385280e-01
  3.048526e+01    7.347037e-01
  3.050113e+01    7.222742e-01
  3.051701e+01    7.352178e-01
  3.053288e+01    7.261702e-01
  3.054876e+01    7.153770e-01
  3.056464e+01    7.054955e-01
  3.058051e+01    7.108602e-01
  3.059639e+01    6.948851e-01
  3.061226e+01    7.140162e-01
  3.062814e+01    7.146779e-01
  3.064401e+01    7.055089e-01
  3.065989e+01    7.262231e-01
  3.067577e+01    7.293717e-01
  3.069164e+01    7.231349e-01
  3.070752e+01    7.326619e-01
  3.072339e+01    7.246497e-01
  3.073927e+01    7.133625e-01
  3.075514e+01    6.959819e-01
  3.077102e+01    7.034690e-01
  3.078689e+01    6.986701e-01
  3.080277e+01    6.953730e-01
  3.081865e+01    6.910403e-01
  3.083452e+01    7.120473e-01
  3.085040e+01    7.241099e-01
  3.086627e+01    7.358498e-01
  3.088215e+01    7.365047e-01
  3.089802e+01    7.496158e-01
  3.091390e+01    7.471065e-01
  3.092977e+01    7.333723e-01
  3.094565e+01    7.215997e-01
  3.096153e+01    7.271723e-01
  3.097740e+01    7.504648e-01
  3.099328e+01    7.341147e-01
  3.100915e+01    7.240104e-01
  3.102503e+01    7.138613e-01
  3.104090e+01    7.197136e-01
  3.105678e+01    7.257461e-01
  3.107265e+01    7.200661e-01
  3.108853e+01    7.004769e-01
  3.110441e+01    7.183152e-01
  3.112028e+01    7.242606e-01
  3.113616e+01    7.330163e-01
  3.115203e+01    7.259576e-01
  3.116791e+01    7.490067e-01
  3.118378e+01    7.362850e-01
  3.119966e+01    7.321871e-01
  3.121553e+01    7.179932e-01
  3.123141e+01    7.364514e-01
  3.124729e+01    7.363624e-01
  3.126316e+01    7.489439e-01
  3.127904e+01    7.417164e-01
  3.129491e+01    7.486396e-01
  3.131079e+01    7.430174e-01
  3.132666e+01    7.122938e-01
  3.134254e+01    7.070764e-01
  3.135841e+01    7.292250e-01
  3.137429e+01    7.385240e-01
  3.139017e+01    7.521177e-01
  3.140604e+01    7.710636e-01
  3.142192e+01    7.572107e-01
  3.143779e+01    7.566338e-01
  3.145367e+01    7.602807e-01
  3.146954e+01    7.670657e-01
  3.148542e+01    7.538787e-01
  3.150129e+01    7.551968e-01
  3.151717e+01    7.774006e-01
  3.153305e+01    7.804539e-01
  3.154892e+01    7.795970e-01
  3.156480e+01    7.894666e-01
  3.158067e+01    8.119888e-01
  3.159655e+01    8.177830e-01
  3.161242e+01    8.204878e-01
  3.162830e+01    8.136185e-01
  3.164418e+01    8.425050e-01
  3.166005e+01    8.730761e-01
  3.167593e+01    8.788161e-01
  3.169180e+01    9.001901e-01
  3.170768e+01    9.420534e-01
  3.172355e+01    9.739826e-01
  3.173943e+01    9.913713e-01
  3.175530e+01    1.036563e+00
  3.177118e+01    1.079916e+00
  3.178706e+01    1.187084e+00
  3.180293e+01    1.277714e+00
  3.181881e+01    1.383973e+00
  3.183468e+01    1.495454e+00
  3.185056e+01    1.615901e+00
  3.186643e+01    1.775829e+00
  3.188231e+01    1.994332e+00
  3.189818e+01    2.169816e+00
  3.191406e+01    2.331880e+00
  3.192994e+01    2.410764e+00
  3.194581e+01    2.438973e+00
  3.196169e+01    2.422440e+00
  3.197756e+01    2.323869e+00
  3.199344e+01    2.199214e+00
  3.200931e+01    2.084536e+00
  3.202519e+01    1.837793e+00
  3.204106e+01    1.681809e+00
  3.205694e+01    1.520629e+00
  3.207282e+01    1.364546e+00
  3.208869e+01    1.219069e+00
  3.210457e+01    1.144009e+00
  3.212044e+01    1.071776e+00
  3.213632e+01    1.028648e+00
  3.215219e+01    1.001456e+00
  3.216807e+01    9.640428e-01
  3.218394e+01    9.440697e-01
  3.219982e+01    8.997483e-01
  3.221570e+01    8.877995e-01
  3.223157e+01    8.560638e-01
  3.224745e+01    8.188470e-01
  3.226332e+01    8.059589e-01
  3.227920e+01    8.168576e-01
  3.229507e+01    8.026302e-01
  3.231095e+01    7.820904e-01
  3.232682e+01    7.977617e-01
  3.234270e+01    7.972152e-01
  3.235858e+01    7.549332e-01
  3.237445e+01    7.446623e-01
  3.239033e+01    7.484942e-01
  3.240620e+01    7.413883e-01
  3.242208e+01    7.391332e-01
  3.243795e+01    7.402426e-01
  3.245383e+01    7.294841e-01
  3.246970e+01    7.268046e-01
  3.248558e+01    7.312378e-01
  3.250146e+01    7.225510e-01
  3.251733e+01    7.232010e-01
  3.253321e+01    7.377260e-01
  3.254908e+01    7.489226e-01
