# == pyFAI calibration ==
# Distance Sample to Detector: 0.3999999939076516 m
# PONI: 9.750e-02, 1.135e-01 m
# Rotations: -0.000175 0.000000 -0.000000 rad
# 
# == Fit2d calibration ==
# Distance Sample-beamCenter: 400.000 mm
# Center: x=1514.000, y=1300.000 pix
# Tilt: 0.010 deg  TiltPlanRot: 0.010 deg
# 
# Detector Detector	 Spline= None	 PixelSize= 7.500e-05, 7.500e-05 m
#    Detector has a mask: False 
#    Detector has a dark current: False 
#    detector has a flat field: False 
# 
# Wavelength: 6.888e-11 m
# Mask applied: user provided
# Dark current applied: False
# Flat field applied: False
# Polarization factor: 0.99
# Normalization factor: 1.0
# --> /home/myspot/data/2024_07_Rosario/Ru-CGO-ex/2024-07-27_002_Ru-CGO-ex_Activtation_ramp_000002_data_000087.dat
#       q_nm^-1             I 
  2.003187e-02    0.000000e+00
  3.590745e-02    0.000000e+00
  5.178302e-02    4.781393e-02
  6.765859e-02    1.986391e-01
  8.353417e-02    2.239874e-01
  9.940974e-02    1.396732e-01
  1.152853e-01    1.388217e-01
  1.311609e-01    5.237907e-02
  1.470365e-01    2.282057e-02
  1.629120e-01    4.489726e-02
  1.787876e-01    7.178192e-03
  1.946632e-01    0.000000e+00
  2.105388e-01    1.796605e-02
  2.264143e-01    5.134718e-02
  2.422899e-01    3.637737e-02
  2.581655e-01    4.843952e-02
  2.740411e-01    3.581588e-02
  2.899166e-01    2.626551e-02
  3.057922e-01    3.023915e-02
  3.216678e-01    7.461927e-02
  3.375433e-01    6.226837e-02
  3.534189e-01    2.905421e-02
  3.692945e-01    4.876276e-02
  3.851701e-01    3.639527e-02
  4.010456e-01    3.093467e-02
  4.169212e-01    9.789417e-03
  4.327968e-01    9.686848e-03
  4.486724e-01    2.714574e-02
  4.645479e-01    3.027703e-02
  4.804235e-01    4.444345e-02
  4.962991e-01    4.164874e-02
  5.121747e-01    3.645995e-02
  5.280502e-01    2.859522e-02
  5.439258e-01    2.814905e-02
  5.598014e-01    3.764278e-02
  5.756770e-01    2.952802e-02
  5.915525e-01    2.807850e-02
  6.074281e-01    3.707809e-02
  6.233037e-01    5.123224e-02
  6.391793e-01    3.301182e-02
  6.550548e-01    5.315969e-02
  6.709304e-01    2.586498e-02
  6.868060e-01    3.040478e-02
  7.026815e-01    3.111301e-02
  7.185571e-01    5.282127e-02
  7.344327e-01    4.783138e-02
  7.503083e-01    3.802055e-02
  7.661838e-01    5.080017e-02
  7.820594e-01    7.379385e-02
  7.979350e-01    1.231471e-01
  8.138106e-01    2.139746e-01
  8.296861e-01    2.900335e-01
  8.455617e-01    2.979841e-01
  8.614373e-01    3.392631e-01
  8.773129e-01    4.099263e-01
  8.931884e-01    4.700508e-01
  9.090640e-01    5.918837e-01
  9.249396e-01    6.749673e-01
  9.408152e-01    7.525832e-01
  9.566907e-01    7.945046e-01
  9.725663e-01    8.207538e-01
  9.884419e-01    9.467819e-01
  1.004317e+00    9.767672e-01
  1.020193e+00    1.152200e+00
  1.036069e+00    1.115272e+00
  1.051944e+00    1.159789e+00
  1.067820e+00    1.279788e+00
  1.083695e+00    1.277096e+00
  1.099571e+00    1.280480e+00
  1.115446e+00    1.340715e+00
  1.131322e+00    1.429324e+00
  1.147198e+00    1.448273e+00
  1.163073e+00    1.392570e+00
  1.178949e+00    1.445192e+00
  1.194824e+00    1.595154e+00
  1.210700e+00    1.844803e+00
  1.226575e+00    2.048569e+00
  1.242451e+00    2.149706e+00
  1.258327e+00    2.275633e+00
  1.274202e+00    2.362432e+00
  1.290078e+00    2.473056e+00
  1.305953e+00    2.625681e+00
  1.321829e+00    2.600336e+00
  1.337705e+00    2.567004e+00
  1.353580e+00    2.575598e+00
  1.369456e+00    2.472659e+00
  1.385331e+00    2.539683e+00
  1.401207e+00    2.648257e+00
  1.417082e+00    2.684618e+00
  1.432958e+00    2.696996e+00
  1.448834e+00    2.676657e+00
  1.464709e+00    2.847903e+00
  1.480585e+00    2.775678e+00
  1.496460e+00    2.820303e+00
  1.512336e+00    2.769039e+00
  1.528211e+00    2.838576e+00
  1.544087e+00    2.889185e+00
  1.559963e+00    2.915198e+00
  1.575838e+00    3.033260e+00
  1.591714e+00    3.010297e+00
  1.607589e+00    2.994900e+00
  1.623465e+00    2.943452e+00
  1.639340e+00    2.865598e+00
  1.655216e+00    2.865153e+00
  1.671092e+00    2.804093e+00
  1.686967e+00    2.792755e+00
  1.702843e+00    2.843418e+00
  1.718718e+00    2.775664e+00
  1.734594e+00    2.799279e+00
  1.750469e+00    2.744311e+00
  1.766345e+00    2.761822e+00
  1.782221e+00    2.803745e+00
  1.798096e+00    2.799920e+00
  1.813972e+00    2.753112e+00
  1.829847e+00    2.756190e+00
  1.845723e+00    2.848316e+00
  1.861598e+00    2.884863e+00
  1.877474e+00    2.809258e+00
  1.893350e+00    2.727752e+00
  1.909225e+00    2.763918e+00
  1.925101e+00    2.803437e+00
  1.940976e+00    2.769871e+00
  1.956852e+00    2.645980e+00
  1.972727e+00    2.743077e+00
  1.988603e+00    2.654072e+00
  2.004479e+00    2.719733e+00
  2.020354e+00    2.642559e+00
  2.036230e+00    2.750617e+00
  2.052105e+00    2.773185e+00
  2.067981e+00    2.656752e+00
  2.083856e+00    2.685401e+00
  2.099732e+00    2.725363e+00
  2.115608e+00    2.818375e+00
  2.131483e+00    2.752025e+00
  2.147359e+00    2.735586e+00
  2.163234e+00    2.680263e+00
  2.179110e+00    2.762743e+00
  2.194985e+00    2.761731e+00
  2.210861e+00    2.676929e+00
  2.226737e+00    2.730480e+00
  2.242612e+00    2.692271e+00
  2.258488e+00    2.756888e+00
  2.274363e+00    2.806117e+00
  2.290239e+00    2.786697e+00
  2.306115e+00    2.722713e+00
  2.321990e+00    2.829167e+00
  2.337866e+00    2.776242e+00
  2.353741e+00    2.782991e+00
  2.369617e+00    2.720027e+00
  2.385492e+00    2.587930e+00
  2.401368e+00    2.702284e+00
  2.417244e+00    2.728956e+00
  2.433119e+00    2.673677e+00
  2.448995e+00    2.806393e+00
  2.464870e+00    2.823349e+00
  2.480746e+00    2.722219e+00
  2.496621e+00    2.855840e+00
  2.512497e+00    2.839459e+00
  2.528373e+00    2.745836e+00
  2.544248e+00    2.681103e+00
  2.560124e+00    2.799059e+00
  2.575999e+00    2.814327e+00
  2.591875e+00    2.795385e+00
  2.607750e+00    2.731367e+00
  2.623626e+00    2.767032e+00
  2.639502e+00    2.802752e+00
  2.655377e+00    2.835593e+00
  2.671253e+00    2.862181e+00
  2.687128e+00    2.808315e+00
  2.703004e+00    2.820292e+00
  2.718879e+00    2.834094e+00
  2.734755e+00    2.818128e+00
  2.750631e+00    2.895747e+00
  2.766506e+00    2.788359e+00
  2.782382e+00    2.790836e+00
  2.798257e+00    2.767826e+00
  2.814133e+00    2.830425e+00
  2.830008e+00    2.828261e+00
  2.845884e+00    2.731313e+00
  2.861760e+00    2.767785e+00
  2.877635e+00    2.883352e+00
  2.893511e+00    2.882218e+00
  2.909386e+00    2.794683e+00
  2.925262e+00    2.779309e+00
  2.941137e+00    2.774111e+00
  2.957013e+00    2.859774e+00
  2.972889e+00    2.858188e+00
  2.988764e+00    2.854129e+00
  3.004640e+00    2.827441e+00
  3.020515e+00    2.856775e+00
  3.036391e+00    2.857724e+00
  3.052266e+00    2.919645e+00
  3.068142e+00    2.950149e+00
  3.084018e+00    2.933663e+00
  3.099893e+00    2.928845e+00
  3.115769e+00    2.877262e+00
  3.131644e+00    2.964789e+00
  3.147520e+00    2.976508e+00
  3.163395e+00    2.889086e+00
  3.179271e+00    2.838104e+00
  3.195147e+00    2.782644e+00
  3.211022e+00    2.855704e+00
  3.226898e+00    2.925462e+00
  3.242773e+00    2.979411e+00
  3.258649e+00    3.035575e+00
  3.274525e+00    2.875506e+00
  3.290400e+00    2.867057e+00
  3.306276e+00    2.896522e+00
  3.322151e+00    2.802797e+00
  3.338027e+00    2.892921e+00
  3.353902e+00    2.945581e+00
  3.369778e+00    2.942816e+00
  3.385654e+00    2.932395e+00
  3.401529e+00    2.969669e+00
  3.417405e+00    2.826009e+00
  3.433280e+00    2.874447e+00
  3.449156e+00    2.860633e+00
  3.465031e+00    2.764863e+00
  3.480907e+00    2.919943e+00
  3.496783e+00    2.968670e+00
  3.512658e+00    2.985729e+00
  3.528534e+00    3.000487e+00
  3.544409e+00    2.840243e+00
  3.560285e+00    2.899091e+00
  3.576160e+00    2.886440e+00
  3.592036e+00    2.951693e+00
  3.607912e+00    2.926842e+00
  3.623787e+00    2.878050e+00
  3.639663e+00    2.933262e+00
  3.655538e+00    2.989717e+00
  3.671414e+00    3.010916e+00
  3.687289e+00    3.015309e+00
  3.703165e+00    2.967385e+00
  3.719041e+00    2.969572e+00
  3.734916e+00    2.950444e+00
  3.750792e+00    2.933234e+00
  3.766667e+00    2.934850e+00
  3.782543e+00    2.988642e+00
  3.798418e+00    2.895901e+00
  3.814294e+00    2.908308e+00
  3.830170e+00    2.948585e+00
  3.846045e+00    2.878913e+00
  3.861921e+00    2.983632e+00
  3.877796e+00    3.018529e+00
  3.893672e+00    3.021916e+00
  3.909547e+00    2.996627e+00
  3.925423e+00    2.918782e+00
  3.941299e+00    3.003712e+00
  3.957174e+00    2.995249e+00
  3.973050e+00    3.053679e+00
  3.988925e+00    3.088532e+00
  4.004801e+00    3.009766e+00
  4.020676e+00    2.965156e+00
  4.036552e+00    2.984262e+00
  4.052428e+00    2.986063e+00
  4.068303e+00    2.958461e+00
  4.084179e+00    2.973697e+00
  4.100054e+00    2.864362e+00
  4.115930e+00    2.918163e+00
  4.131806e+00    2.952916e+00
  4.147681e+00    2.924157e+00
  4.163557e+00    2.924174e+00
  4.179432e+00    2.972746e+00
  4.195308e+00    3.017658e+00
  4.211183e+00    2.988736e+00
  4.227059e+00    2.996397e+00
  4.242935e+00    2.999160e+00
  4.258810e+00    2.975107e+00
  4.274686e+00    2.957500e+00
  4.290561e+00    3.039570e+00
  4.306437e+00    2.988001e+00
  4.322312e+00    2.960545e+00
  4.338188e+00    3.028672e+00
  4.354064e+00    2.979362e+00
  4.369939e+00    3.056515e+00
  4.385815e+00    3.149667e+00
  4.401690e+00    3.058269e+00
  4.417566e+00    2.934814e+00
  4.433441e+00    2.994065e+00
  4.449317e+00    3.022969e+00
  4.465193e+00    2.982153e+00
  4.481068e+00    3.002310e+00
  4.496944e+00    3.073239e+00
  4.512819e+00    3.025717e+00
  4.528695e+00    2.990387e+00
  4.544570e+00    3.080747e+00
  4.560446e+00    3.051982e+00
  4.576322e+00    3.022494e+00
  4.592197e+00    3.008443e+00
  4.608073e+00    3.016873e+00
  4.623948e+00    3.017020e+00
  4.639824e+00    3.072382e+00
  4.655699e+00    3.157688e+00
  4.671575e+00    3.124449e+00
  4.687451e+00    3.048037e+00
  4.703326e+00    3.018651e+00
  4.719202e+00    3.077458e+00
  4.735077e+00    3.078818e+00
  4.750953e+00    3.050017e+00
  4.766828e+00    3.095900e+00
  4.782704e+00    3.063634e+00
  4.798580e+00    3.036606e+00
  4.814455e+00    3.081742e+00
  4.830331e+00    3.059654e+00
  4.846206e+00    3.051592e+00
  4.862082e+00    2.989946e+00
  4.877957e+00    3.063778e+00
  4.893833e+00    3.038111e+00
  4.909709e+00    2.996906e+00
  4.925584e+00    3.094310e+00
  4.941460e+00    3.120244e+00
  4.957335e+00    3.127002e+00
  4.973211e+00    3.046585e+00
  4.989086e+00    3.115081e+00
  5.004962e+00    3.106581e+00
  5.020838e+00    3.086245e+00
  5.036713e+00    3.047617e+00
  5.052589e+00    3.054057e+00
  5.068464e+00    3.065501e+00
  5.084340e+00    3.131181e+00
  5.100216e+00    3.103214e+00
  5.116091e+00    3.102881e+00
  5.131967e+00    3.155358e+00
  5.147842e+00    3.176920e+00
  5.163718e+00    3.082858e+00
  5.179593e+00    3.004840e+00
  5.195469e+00    3.040905e+00
  5.211345e+00    3.013944e+00
  5.227220e+00    3.048514e+00
  5.243096e+00    3.117214e+00
  5.258971e+00    3.082564e+00
  5.274847e+00    2.978256e+00
  5.290722e+00    3.050056e+00
  5.306598e+00    3.136197e+00
  5.322474e+00    3.101900e+00
  5.338349e+00    3.078830e+00
  5.354225e+00    3.016247e+00
  5.370100e+00    2.977812e+00
  5.385976e+00    3.035904e+00
  5.401851e+00    3.032367e+00
  5.417727e+00    3.008324e+00
  5.433603e+00    3.098767e+00
  5.449478e+00    3.098096e+00
  5.465354e+00    3.023089e+00
  5.481229e+00    3.067731e+00
  5.497105e+00    2.996359e+00
  5.512980e+00    3.037901e+00
  5.528856e+00    3.029039e+00
  5.544732e+00    2.983040e+00
  5.560607e+00    3.069402e+00
  5.576483e+00    3.068040e+00
  5.592358e+00    3.048878e+00
  5.608234e+00    3.139383e+00
  5.624109e+00    3.089175e+00
  5.639985e+00    3.072740e+00
  5.655861e+00    3.061875e+00
  5.671736e+00    3.042428e+00
  5.687612e+00    3.020784e+00
  5.703487e+00    3.071103e+00
  5.719363e+00    3.082605e+00
  5.735238e+00    2.959616e+00
  5.751114e+00    2.935280e+00
  5.766990e+00    3.029259e+00
  5.782865e+00    3.059407e+00
  5.798741e+00    3.038236e+00
  5.814616e+00    3.023793e+00
  5.830492e+00    3.001853e+00
  5.846367e+00    3.033395e+00
  5.862243e+00    3.001083e+00
  5.878119e+00    3.023924e+00
  5.893994e+00    2.950994e+00
  5.909870e+00    2.943470e+00
  5.925745e+00    3.045751e+00
  5.941621e+00    2.997785e+00
  5.957497e+00    2.913182e+00
  5.973372e+00    2.982441e+00
  5.989248e+00    3.047507e+00
  6.005123e+00    2.984730e+00
  6.020999e+00    2.960948e+00
  6.036874e+00    2.950421e+00
  6.052750e+00    2.992332e+00
  6.068626e+00    3.053955e+00
  6.084501e+00    3.063085e+00
  6.100377e+00    3.065747e+00
  6.116252e+00    3.057192e+00
  6.132128e+00    3.033553e+00
  6.148003e+00    3.049102e+00
  6.163879e+00    3.039146e+00
  6.179755e+00    3.019052e+00
  6.195630e+00    3.047060e+00
  6.211506e+00    2.973314e+00
  6.227381e+00    3.019116e+00
  6.243257e+00    3.026521e+00
  6.259132e+00    2.991654e+00
  6.275008e+00    2.963887e+00
  6.290884e+00    2.963605e+00
  6.306759e+00    2.965430e+00
  6.322635e+00    3.000881e+00
  6.338510e+00    3.024942e+00
  6.354386e+00    3.049368e+00
  6.370261e+00    3.018664e+00
  6.386137e+00    3.003246e+00
  6.402013e+00    3.016441e+00
  6.417888e+00    3.009296e+00
  6.433764e+00    3.005642e+00
  6.449639e+00    3.045923e+00
  6.465515e+00    2.950350e+00
  6.481390e+00    2.961951e+00
  6.497266e+00    2.977931e+00
  6.513142e+00    2.919888e+00
  6.529017e+00    3.002982e+00
  6.544893e+00    2.969861e+00
  6.560768e+00    3.000804e+00
  6.576644e+00    2.983327e+00
  6.592519e+00    2.929407e+00
  6.608395e+00    2.968862e+00
  6.624271e+00    2.994469e+00
  6.640146e+00    3.028638e+00
  6.656022e+00    2.985421e+00
  6.671897e+00    3.038305e+00
  6.687773e+00    3.041476e+00
  6.703648e+00    3.046503e+00
  6.719524e+00    2.980671e+00
  6.735400e+00    3.000284e+00
  6.751275e+00    3.026275e+00
  6.767151e+00    2.998899e+00
  6.783026e+00    2.968631e+00
  6.798902e+00    2.953782e+00
  6.814777e+00    2.973319e+00
  6.830653e+00    3.001549e+00
  6.846529e+00    2.912307e+00
  6.862404e+00    2.972504e+00
  6.878280e+00    2.983493e+00
  6.894155e+00    3.011249e+00
  6.910031e+00    2.937474e+00
  6.925907e+00    2.991606e+00
  6.941782e+00    2.971957e+00
  6.957658e+00    2.997241e+00
  6.973533e+00    2.994725e+00
  6.989409e+00    3.012893e+00
  7.005284e+00    2.970254e+00
  7.021160e+00    2.938623e+00
  7.037036e+00    3.006421e+00
  7.052911e+00    2.969118e+00
  7.068787e+00    2.906682e+00
  7.084662e+00    2.994426e+00
  7.100538e+00    2.988542e+00
  7.116413e+00    2.930491e+00
  7.132289e+00    2.930996e+00
  7.148165e+00    2.995151e+00
  7.164040e+00    3.048212e+00
  7.179916e+00    3.032849e+00
  7.195791e+00    2.956365e+00
  7.211667e+00    2.899861e+00
  7.227542e+00    2.995053e+00
  7.243418e+00    2.976741e+00
  7.259294e+00    2.926768e+00
  7.275169e+00    2.923974e+00
  7.291045e+00    2.906434e+00
  7.306920e+00    2.927261e+00
  7.322796e+00    2.951108e+00
  7.338671e+00    2.976713e+00
  7.354547e+00    2.967273e+00
  7.370423e+00    2.978060e+00
  7.386298e+00    2.894853e+00
  7.402174e+00    2.861268e+00
  7.418049e+00    2.922705e+00
  7.433925e+00    2.964418e+00
  7.449800e+00    2.980593e+00
  7.465676e+00    3.014692e+00
  7.481552e+00    3.030027e+00
  7.497427e+00    2.994645e+00
  7.513303e+00    2.960687e+00
  7.529178e+00    2.925413e+00
  7.545054e+00    2.901640e+00
  7.560929e+00    2.944889e+00
  7.576805e+00    2.950758e+00
  7.592681e+00    2.878617e+00
  7.608556e+00    2.907444e+00
  7.624432e+00    2.923743e+00
  7.640307e+00    2.869756e+00
  7.656183e+00    2.916290e+00
  7.672058e+00    2.899199e+00
  7.687934e+00    2.882772e+00
  7.703810e+00    2.893778e+00
  7.719685e+00    2.891206e+00
  7.735561e+00    2.887805e+00
  7.751436e+00    2.912257e+00
  7.767312e+00    2.954952e+00
  7.783187e+00    2.865752e+00
  7.799063e+00    2.841031e+00
  7.814939e+00    2.933554e+00
  7.830814e+00    2.896102e+00
  7.846690e+00    2.935843e+00
  7.862565e+00    2.966345e+00
  7.878441e+00    2.913813e+00
  7.894317e+00    2.970267e+00
  7.910192e+00    2.904138e+00
  7.926068e+00    2.899396e+00
  7.941943e+00    2.868757e+00
  7.957819e+00    2.890566e+00
  7.973694e+00    2.875187e+00
  7.989570e+00    2.843103e+00
  8.005446e+00    2.881309e+00
  8.021321e+00    2.921001e+00
  8.037197e+00    2.948886e+00
  8.053072e+00    2.880775e+00
  8.068948e+00    2.857894e+00
  8.084823e+00    2.851292e+00
  8.100699e+00    2.814188e+00
  8.116575e+00    2.839851e+00
  8.132450e+00    2.876438e+00
  8.148326e+00    2.869931e+00
  8.164201e+00    2.874467e+00
  8.180077e+00    2.898134e+00
  8.195952e+00    2.880009e+00
  8.211828e+00    2.907748e+00
  8.227704e+00    2.908532e+00
  8.243579e+00    2.903544e+00
  8.259455e+00    2.893362e+00
  8.275330e+00    2.872941e+00
  8.291206e+00    2.850760e+00
  8.307081e+00    2.868097e+00
  8.322957e+00    2.836355e+00
  8.338833e+00    2.872523e+00
  8.354708e+00    2.874492e+00
  8.370584e+00    2.859176e+00
  8.386459e+00    2.844980e+00
  8.402335e+00    2.792443e+00
  8.418210e+00    2.842177e+00
  8.434086e+00    2.888580e+00
  8.449962e+00    2.843674e+00
  8.465837e+00    2.876547e+00
  8.481713e+00    2.844200e+00
  8.497588e+00    2.804288e+00
  8.513464e+00    2.818519e+00
  8.529339e+00    2.819548e+00
  8.545215e+00    2.791033e+00
  8.561091e+00    2.822446e+00
  8.576966e+00    2.821926e+00
  8.592842e+00    2.839795e+00
  8.608717e+00    2.816299e+00
  8.624593e+00    2.797539e+00
  8.640468e+00    2.801662e+00
  8.656344e+00    2.796556e+00
  8.672220e+00    2.829767e+00
  8.688095e+00    2.845458e+00
  8.703971e+00    2.777250e+00
  8.719846e+00    2.782717e+00
  8.735722e+00    2.815799e+00
  8.751598e+00    2.759329e+00
  8.767473e+00    2.776135e+00
  8.783349e+00    2.805736e+00
  8.799224e+00    2.759660e+00
  8.815100e+00    2.799392e+00
  8.830975e+00    2.774296e+00
  8.846851e+00    2.799229e+00
  8.862727e+00    2.724971e+00
  8.878602e+00    2.740953e+00
  8.894478e+00    2.711451e+00
  8.910353e+00    2.738763e+00
  8.926229e+00    2.808895e+00
  8.942104e+00    2.752064e+00
  8.957980e+00    2.758764e+00
  8.973856e+00    2.810035e+00
  8.989731e+00    2.736169e+00
  9.005607e+00    2.748924e+00
  9.021482e+00    2.772193e+00
  9.037358e+00    2.786382e+00
  9.053233e+00    2.768237e+00
  9.069109e+00    2.759594e+00
  9.084985e+00    2.758573e+00
  9.100860e+00    2.769421e+00
  9.116736e+00    2.755542e+00
  9.132611e+00    2.775043e+00
  9.148487e+00    2.741213e+00
  9.164362e+00    2.735765e+00
  9.180238e+00    2.803409e+00
  9.196114e+00    2.758591e+00
  9.211989e+00    2.740192e+00
  9.227865e+00    2.741287e+00
  9.243740e+00    2.784888e+00
  9.259616e+00    2.783936e+00
  9.275491e+00    2.710821e+00
  9.291367e+00    2.766799e+00
  9.307243e+00    2.765560e+00
  9.323118e+00    2.704902e+00
  9.338994e+00    2.725193e+00
  9.354869e+00    2.757877e+00
  9.370745e+00    2.797562e+00
  9.386620e+00    2.775213e+00
  9.402496e+00    2.737365e+00
  9.418372e+00    2.729390e+00
  9.434247e+00    2.782601e+00
  9.450123e+00    2.723044e+00
  9.465998e+00    2.739767e+00
  9.481874e+00    2.778327e+00
  9.497749e+00    2.726635e+00
  9.513625e+00    2.716069e+00
  9.529501e+00    2.698593e+00
  9.545376e+00    2.677332e+00
  9.561252e+00    2.747643e+00
  9.577127e+00    2.717467e+00
  9.593003e+00    2.701175e+00
  9.608878e+00    2.698371e+00
  9.624754e+00    2.721911e+00
  9.640630e+00    2.712920e+00
  9.656505e+00    2.725610e+00
  9.672381e+00    2.726630e+00
  9.688256e+00    2.720994e+00
  9.704132e+00    2.658780e+00
  9.720008e+00    2.667657e+00
  9.735883e+00    2.699835e+00
  9.751759e+00    2.716234e+00
  9.767634e+00    2.664822e+00
  9.783510e+00    2.676491e+00
  9.799385e+00    2.693442e+00
  9.815261e+00    2.667794e+00
  9.831137e+00    2.679772e+00
  9.847012e+00    2.673280e+00
  9.862888e+00    2.637758e+00
  9.878763e+00    2.643079e+00
  9.894639e+00    2.675986e+00
  9.910514e+00    2.674178e+00
  9.926390e+00    2.675345e+00
  9.942266e+00    2.623243e+00
  9.958141e+00    2.579974e+00
  9.974017e+00    2.606835e+00
  9.989892e+00    2.645981e+00
  1.000577e+01    2.639903e+00
  1.002164e+01    2.635318e+00
  1.003752e+01    2.684103e+00
  1.005339e+01    2.651574e+00
  1.006927e+01    2.627898e+00
  1.008515e+01    2.644008e+00
  1.010102e+01    2.636258e+00
  1.011690e+01    2.546229e+00
  1.013277e+01    2.576920e+00
  1.014865e+01    2.570687e+00
  1.016452e+01    2.618626e+00
  1.018040e+01    2.628701e+00
  1.019627e+01    2.646156e+00
  1.021215e+01    2.597966e+00
  1.022803e+01    2.587635e+00
  1.024390e+01    2.627481e+00
  1.025978e+01    2.649355e+00
  1.027565e+01    2.583301e+00
  1.029153e+01    2.633309e+00
  1.030740e+01    2.615355e+00
  1.032328e+01    2.610707e+00
  1.033915e+01    2.606161e+00
  1.035503e+01    2.612290e+00
  1.037091e+01    2.602322e+00
  1.038678e+01    2.559075e+00
  1.040266e+01    2.516341e+00
  1.041853e+01    2.586415e+00
  1.043441e+01    2.624537e+00
  1.045028e+01    2.591249e+00
  1.046616e+01    2.554405e+00
  1.048204e+01    2.513870e+00
  1.049791e+01    2.512920e+00
  1.051379e+01    2.577283e+00
  1.052966e+01    2.562896e+00
  1.054554e+01    2.525397e+00
  1.056141e+01    2.557455e+00
  1.057729e+01    2.564034e+00
  1.059316e+01    2.557789e+00
  1.060904e+01    2.586746e+00
  1.062492e+01    2.557675e+00
  1.064079e+01    2.518909e+00
  1.065667e+01    2.566376e+00
  1.067254e+01    2.549912e+00
  1.068842e+01    2.512662e+00
  1.070429e+01    2.518530e+00
  1.072017e+01    2.521128e+00
  1.073604e+01    2.516328e+00
  1.075192e+01    2.477912e+00
  1.076780e+01    2.502551e+00
  1.078367e+01    2.519201e+00
  1.079955e+01    2.532549e+00
  1.081542e+01    2.498966e+00
  1.083130e+01    2.531829e+00
  1.084717e+01    2.453137e+00
  1.086305e+01    2.440669e+00
  1.087892e+01    2.451856e+00
  1.089480e+01    2.501295e+00
  1.091068e+01    2.517821e+00
  1.092655e+01    2.492855e+00
  1.094243e+01    2.526832e+00
  1.095830e+01    2.499890e+00
  1.097418e+01    2.477782e+00
  1.099005e+01    2.505721e+00
  1.100593e+01    2.486980e+00
  1.102180e+01    2.425242e+00
  1.103768e+01    2.473745e+00
  1.105356e+01    2.456920e+00
  1.106943e+01    2.480010e+00
  1.108531e+01    2.458966e+00
  1.110118e+01    2.461766e+00
  1.111706e+01    2.482594e+00
  1.113293e+01    2.440028e+00
  1.114881e+01    2.462208e+00
  1.116468e+01    2.404858e+00
  1.118056e+01    2.387230e+00
  1.119644e+01    2.389441e+00
  1.121231e+01    2.441845e+00
  1.122819e+01    2.372267e+00
  1.124406e+01    2.362826e+00
  1.125994e+01    2.408144e+00
  1.127581e+01    2.431758e+00
  1.129169e+01    2.434594e+00
  1.130756e+01    2.381680e+00
  1.132344e+01    2.387249e+00
  1.133932e+01    2.377599e+00
  1.135519e+01    2.402279e+00
  1.137107e+01    2.398417e+00
  1.138694e+01    2.401018e+00
  1.140282e+01    2.348754e+00
  1.141869e+01    2.345503e+00
  1.143457e+01    2.422298e+00
  1.145045e+01    2.407355e+00
  1.146632e+01    2.401518e+00
  1.148220e+01    2.420052e+00
  1.149807e+01    2.383218e+00
  1.151395e+01    2.380938e+00
  1.152982e+01    2.378328e+00
  1.154570e+01    2.363146e+00
  1.156157e+01    2.371094e+00
  1.157745e+01    2.354578e+00
  1.159333e+01    2.348615e+00
  1.160920e+01    2.328683e+00
  1.162508e+01    2.314735e+00
  1.164095e+01    2.365103e+00
  1.165683e+01    2.353614e+00
  1.167270e+01    2.387568e+00
  1.168858e+01    2.401365e+00
  1.170445e+01    2.333922e+00
  1.172033e+01    2.289076e+00
  1.173621e+01    2.306911e+00
  1.175208e+01    2.309412e+00
  1.176796e+01    2.325026e+00
  1.178383e+01    2.319356e+00
  1.179971e+01    2.305527e+00
  1.181558e+01    2.304571e+00
  1.183146e+01    2.337424e+00
  1.184733e+01    2.293270e+00
  1.186321e+01    2.327209e+00
  1.187909e+01    2.307869e+00
  1.189496e+01    2.306718e+00
  1.191084e+01    2.355067e+00
  1.192671e+01    2.328212e+00
  1.194259e+01    2.317343e+00
  1.195846e+01    2.311878e+00
  1.197434e+01    2.322550e+00
  1.199021e+01    2.289863e+00
  1.200609e+01    2.256706e+00
  1.202197e+01    2.301647e+00
  1.203784e+01    2.330751e+00
  1.205372e+01    2.310920e+00
  1.206959e+01    2.242887e+00
  1.208547e+01    2.229110e+00
  1.210134e+01    2.279316e+00
  1.211722e+01    2.273106e+00
  1.213309e+01    2.313016e+00
  1.214897e+01    2.291002e+00
  1.216485e+01    2.259703e+00
  1.218072e+01    2.260884e+00
  1.219660e+01    2.251910e+00
  1.221247e+01    2.267789e+00
  1.222835e+01    2.309175e+00
  1.224422e+01    2.269590e+00
  1.226010e+01    2.288373e+00
  1.227597e+01    2.279279e+00
  1.229185e+01    2.269089e+00
  1.230773e+01    2.273051e+00
  1.232360e+01    2.284489e+00
  1.233948e+01    2.270952e+00
  1.235535e+01    2.306221e+00
  1.237123e+01    2.291073e+00
  1.238710e+01    2.339781e+00
  1.240298e+01    2.290189e+00
  1.241886e+01    2.288527e+00
  1.243473e+01    2.309575e+00
  1.245061e+01    2.346603e+00
  1.246648e+01    2.289299e+00
  1.248236e+01    2.295676e+00
  1.249823e+01    2.330631e+00
  1.251411e+01    2.347919e+00
  1.252998e+01    2.345809e+00
  1.254586e+01    2.310897e+00
  1.256174e+01    2.356025e+00
  1.257761e+01    2.326370e+00
  1.259349e+01    2.314305e+00
  1.260936e+01    2.363512e+00
  1.262524e+01    2.407359e+00
  1.264111e+01    2.440602e+00
  1.265699e+01    2.422386e+00
  1.267286e+01    2.423257e+00
  1.268874e+01    2.446389e+00
  1.270462e+01    2.420062e+00
  1.272049e+01    2.460312e+00
  1.273637e+01    2.488088e+00
  1.275224e+01    2.491592e+00
  1.276812e+01    2.557872e+00
  1.278399e+01    2.610163e+00
  1.279987e+01    2.643630e+00
  1.281574e+01    2.669596e+00
  1.283162e+01    2.749722e+00
  1.284750e+01    2.804574e+00
  1.286337e+01    2.889131e+00
  1.287925e+01    3.024611e+00
  1.289512e+01    3.199229e+00
  1.291100e+01    3.289849e+00
  1.292687e+01    3.413352e+00
  1.294275e+01    3.628760e+00
  1.295862e+01    3.887228e+00
  1.297450e+01    4.239708e+00
  1.299038e+01    4.697398e+00
  1.300625e+01    5.285259e+00
  1.302213e+01    6.012770e+00
  1.303800e+01    6.869666e+00
  1.305388e+01    7.935274e+00
  1.306975e+01    9.262217e+00
  1.308563e+01    1.067824e+01
  1.310150e+01    1.212829e+01
  1.311738e+01    1.353649e+01
  1.313326e+01    1.482283e+01
  1.314913e+01    1.602927e+01
  1.316501e+01    1.719613e+01
  1.318088e+01    1.786401e+01
  1.319676e+01    1.797343e+01
  1.321263e+01    1.735496e+01
  1.322851e+01    1.565921e+01
  1.324438e+01    1.348021e+01
  1.326026e+01    1.126368e+01
  1.327614e+01    9.477732e+00
  1.329201e+01    8.002283e+00
  1.330789e+01    6.859285e+00
  1.332376e+01    5.949096e+00
  1.333964e+01    5.265094e+00
  1.335551e+01    4.705855e+00
  1.337139e+01    4.281876e+00
  1.338727e+01    3.931557e+00
  1.340314e+01    3.687205e+00
  1.341902e+01    3.433459e+00
  1.343489e+01    3.256057e+00
  1.345077e+01    3.069952e+00
  1.346664e+01    2.961456e+00
  1.348252e+01    2.843420e+00
  1.349839e+01    2.753362e+00
  1.351427e+01    2.642050e+00
  1.353015e+01    2.616351e+00
  1.354602e+01    2.570662e+00
  1.356190e+01    2.510822e+00
  1.357777e+01    2.475978e+00
  1.359365e+01    2.422709e+00
  1.360952e+01    2.366874e+00
  1.362540e+01    2.336015e+00
  1.364127e+01    2.326772e+00
  1.365715e+01    2.296486e+00
  1.367303e+01    2.273473e+00
  1.368890e+01    2.250578e+00
  1.370478e+01    2.236033e+00
  1.372065e+01    2.244162e+00
  1.373653e+01    2.225245e+00
  1.375240e+01    2.180260e+00
  1.376828e+01    2.194284e+00
  1.378415e+01    2.156404e+00
  1.380003e+01    2.133223e+00
  1.381591e+01    2.150155e+00
  1.383178e+01    2.159272e+00
  1.384766e+01    2.124038e+00
  1.386353e+01    2.123560e+00
  1.387941e+01    2.156576e+00
  1.389528e+01    2.107385e+00
  1.391116e+01    2.106500e+00
  1.392703e+01    2.057714e+00
  1.394291e+01    2.065939e+00
  1.395879e+01    2.077993e+00
  1.397466e+01    2.051440e+00
  1.399054e+01    2.042016e+00
  1.400641e+01    2.027006e+00
  1.402229e+01    2.018599e+00
  1.403816e+01    2.059533e+00
  1.405404e+01    2.037603e+00
  1.406991e+01    2.005929e+00
  1.408579e+01    2.040892e+00
  1.410167e+01    2.039517e+00
  1.411754e+01    1.987386e+00
  1.413342e+01    1.987751e+00
  1.414929e+01    2.012354e+00
  1.416517e+01    1.988911e+00
  1.418104e+01    1.952229e+00
  1.419692e+01    1.906808e+00
  1.421279e+01    1.936720e+00
  1.422867e+01    1.965546e+00
  1.424455e+01    1.955700e+00
  1.426042e+01    1.958067e+00
  1.427630e+01    1.954620e+00
  1.429217e+01    1.942566e+00
  1.430805e+01    1.933998e+00
  1.432392e+01    1.960355e+00
  1.433980e+01    1.922731e+00
  1.435568e+01    1.915872e+00
  1.437155e+01    1.926414e+00
  1.438743e+01    1.944306e+00
  1.440330e+01    1.934336e+00
  1.441918e+01    1.932959e+00
  1.443505e+01    1.950425e+00
  1.445093e+01    1.900832e+00
  1.446680e+01    1.904842e+00
  1.448268e+01    1.927822e+00
  1.449856e+01    1.912583e+00
  1.451443e+01    1.890101e+00
  1.453031e+01    1.886215e+00
  1.454618e+01    1.890676e+00
  1.456206e+01    1.898734e+00
  1.457793e+01    1.888548e+00
  1.459381e+01    1.872556e+00
  1.460968e+01    1.889992e+00
  1.462556e+01    1.886509e+00
  1.464144e+01    1.886564e+00
  1.465731e+01    1.906775e+00
  1.467319e+01    1.899467e+00
  1.468906e+01    1.893583e+00
  1.470494e+01    1.855928e+00
  1.472081e+01    1.886682e+00
  1.473669e+01    1.862975e+00
  1.475256e+01    1.883456e+00
  1.476844e+01    1.907274e+00
  1.478432e+01    1.877746e+00
  1.480019e+01    1.882788e+00
  1.481607e+01    1.887104e+00
  1.483194e+01    1.928028e+00
  1.484782e+01    1.927795e+00
  1.486369e+01    1.944800e+00
  1.487957e+01    1.954956e+00
  1.489544e+01    1.905917e+00
  1.491132e+01    1.893795e+00
  1.492720e+01    1.962671e+00
  1.494307e+01    1.999887e+00
  1.495895e+01    2.008321e+00
  1.497482e+01    2.032358e+00
  1.499070e+01    2.089375e+00
  1.500657e+01    2.110023e+00
  1.502245e+01    2.171181e+00
  1.503832e+01    2.272774e+00
  1.505420e+01    2.374770e+00
  1.507008e+01    2.451997e+00
  1.508595e+01    2.585406e+00
  1.510183e+01    2.758108e+00
  1.511770e+01    3.022468e+00
  1.513358e+01    3.289789e+00
  1.514945e+01    3.604211e+00
  1.516533e+01    4.005148e+00
  1.518120e+01    4.410494e+00
  1.519708e+01    4.876097e+00
  1.521296e+01    5.208428e+00
  1.522883e+01    5.505452e+00
  1.524471e+01    5.765279e+00
  1.526058e+01    6.000634e+00
  1.527646e+01    6.109864e+00
  1.529233e+01    6.058758e+00
  1.530821e+01    5.860634e+00
  1.532409e+01    5.362937e+00
  1.533996e+01    4.785643e+00
  1.535584e+01    4.199381e+00
  1.537171e+01    3.725582e+00
  1.538759e+01    3.342796e+00
  1.540346e+01    3.004459e+00
  1.541934e+01    2.800861e+00
  1.543521e+01    2.628152e+00
  1.545109e+01    2.430810e+00
  1.546697e+01    2.272863e+00
  1.548284e+01    2.161556e+00
  1.549872e+01    2.064017e+00
  1.551459e+01    2.009921e+00
  1.553047e+01    1.946871e+00
  1.554634e+01    1.893173e+00
  1.556222e+01    1.915508e+00
  1.557809e+01    1.905558e+00
  1.559397e+01    1.839947e+00
  1.560985e+01    1.832937e+00
  1.562572e+01    1.800027e+00
  1.564160e+01    1.785581e+00
  1.565747e+01    1.749252e+00
  1.567335e+01    1.764989e+00
  1.568922e+01    1.753510e+00
  1.570510e+01    1.750630e+00
  1.572097e+01    1.716729e+00
  1.573685e+01    1.725550e+00
  1.575273e+01    1.713933e+00
  1.576860e+01    1.693961e+00
  1.578448e+01    1.669759e+00
  1.580035e+01    1.668290e+00
  1.581623e+01    1.677806e+00
  1.583210e+01    1.664555e+00
  1.584798e+01    1.642295e+00
  1.586385e+01    1.647425e+00
  1.587973e+01    1.622333e+00
  1.589561e+01    1.631659e+00
  1.591148e+01    1.626062e+00
  1.592736e+01    1.600958e+00
  1.594323e+01    1.615408e+00
  1.595911e+01    1.595680e+00
  1.597498e+01    1.594202e+00
  1.599086e+01    1.592686e+00
  1.600673e+01    1.598752e+00
  1.602261e+01    1.610679e+00
  1.603849e+01    1.598808e+00
  1.605436e+01    1.567585e+00
  1.607024e+01    1.578112e+00
  1.608611e+01    1.571510e+00
  1.610199e+01    1.568506e+00
  1.611786e+01    1.591335e+00
  1.613374e+01    1.556067e+00
  1.614961e+01    1.542914e+00
  1.616549e+01    1.566897e+00
  1.618137e+01    1.582841e+00
  1.619724e+01    1.557740e+00
  1.621312e+01    1.557117e+00
  1.622899e+01    1.540159e+00
  1.624487e+01    1.527730e+00
  1.626074e+01    1.527692e+00
  1.627662e+01    1.545001e+00
  1.629250e+01    1.542121e+00
  1.630837e+01    1.515391e+00
  1.632425e+01    1.515133e+00
  1.634012e+01    1.537498e+00
  1.635600e+01    1.501617e+00
  1.637187e+01    1.508457e+00
  1.638775e+01    1.528889e+00
  1.640362e+01    1.483129e+00
  1.641950e+01    1.512664e+00
  1.643538e+01    1.512432e+00
  1.645125e+01    1.494130e+00
  1.646713e+01    1.485856e+00
  1.648300e+01    1.510595e+00
  1.649888e+01    1.478889e+00
  1.651475e+01    1.490317e+00
  1.653063e+01    1.517805e+00
  1.654650e+01    1.491422e+00
  1.656238e+01    1.493406e+00
  1.657826e+01    1.480325e+00
  1.659413e+01    1.457293e+00
  1.661001e+01    1.465743e+00
  1.662588e+01    1.471213e+00
  1.664176e+01    1.475461e+00
  1.665763e+01    1.462378e+00
  1.667351e+01    1.453289e+00
  1.668938e+01    1.459027e+00
  1.670526e+01    1.463021e+00
  1.672114e+01    1.457538e+00
  1.673701e+01    1.462651e+00
  1.675289e+01    1.480955e+00
  1.676876e+01    1.452177e+00
  1.678464e+01    1.440061e+00
  1.680051e+01    1.450731e+00
  1.681639e+01    1.449373e+00
  1.683226e+01    1.454911e+00
  1.684814e+01    1.433873e+00
  1.686402e+01    1.464628e+00
  1.687989e+01    1.452842e+00
  1.689577e+01    1.462207e+00
  1.691164e+01    1.420846e+00
  1.692752e+01    1.450350e+00
  1.694339e+01    1.433566e+00
  1.695927e+01    1.420967e+00
  1.697514e+01    1.426706e+00
  1.699102e+01    1.427735e+00
  1.700690e+01    1.414966e+00
  1.702277e+01    1.415460e+00
  1.703865e+01    1.404002e+00
  1.705452e+01    1.403421e+00
  1.707040e+01    1.367468e+00
  1.708627e+01    1.387591e+00
  1.710215e+01    1.393086e+00
  1.711802e+01    1.392075e+00
  1.713390e+01    1.342218e+00
  1.714978e+01    1.376970e+00
  1.716565e+01    1.407199e+00
  1.718153e+01    1.419385e+00
  1.719740e+01    1.388954e+00
  1.721328e+01    1.390711e+00
  1.722915e+01    1.382483e+00
  1.724503e+01    1.358418e+00
  1.726091e+01    1.381259e+00
  1.727678e+01    1.362113e+00
  1.729266e+01    1.339537e+00
  1.730853e+01    1.366346e+00
  1.732441e+01    1.373825e+00
  1.734028e+01    1.338179e+00
  1.735616e+01    1.377098e+00
  1.737203e+01    1.388375e+00
  1.738791e+01    1.367642e+00
  1.740379e+01    1.357818e+00
  1.741966e+01    1.377009e+00
  1.743554e+01    1.374108e+00
  1.745141e+01    1.359083e+00
  1.746729e+01    1.353379e+00
  1.748316e+01    1.354825e+00
  1.749904e+01    1.352560e+00
  1.751491e+01    1.332581e+00
  1.753079e+01    1.338686e+00
  1.754667e+01    1.367270e+00
  1.756254e+01    1.375507e+00
  1.757842e+01    1.355116e+00
  1.759429e+01    1.352346e+00
  1.761017e+01    1.328588e+00
  1.762604e+01    1.314989e+00
  1.764192e+01    1.317535e+00
  1.765779e+01    1.340218e+00
  1.767367e+01    1.333466e+00
  1.768955e+01    1.360894e+00
  1.770542e+01    1.374137e+00
  1.772130e+01    1.343395e+00
  1.773717e+01    1.336507e+00
  1.775305e+01    1.336794e+00
  1.776892e+01    1.300782e+00
  1.778480e+01    1.288733e+00
  1.780067e+01    1.304879e+00
  1.781655e+01    1.284487e+00
  1.783243e+01    1.307545e+00
  1.784830e+01    1.314693e+00
  1.786418e+01    1.305734e+00
  1.788005e+01    1.308333e+00
  1.789593e+01    1.319621e+00
  1.791180e+01    1.280587e+00
  1.792768e+01    1.299270e+00
  1.794355e+01    1.286512e+00
  1.795943e+01    1.298384e+00
  1.797531e+01    1.277765e+00
  1.799118e+01    1.286023e+00
  1.800706e+01    1.294640e+00
  1.802293e+01    1.274905e+00
  1.803881e+01    1.289131e+00
  1.805468e+01    1.288013e+00
  1.807056e+01    1.275352e+00
  1.808643e+01    1.259483e+00
  1.810231e+01    1.280899e+00
  1.811819e+01    1.307975e+00
  1.813406e+01    1.287303e+00
  1.814994e+01    1.269448e+00
  1.816581e+01    1.280054e+00
  1.818169e+01    1.274889e+00
  1.819756e+01    1.263430e+00
  1.821344e+01    1.259314e+00
  1.822932e+01    1.281931e+00
  1.824519e+01    1.276382e+00
  1.826107e+01    1.251280e+00
  1.827694e+01    1.243096e+00
  1.829282e+01    1.240327e+00
  1.830869e+01    1.225498e+00
  1.832457e+01    1.234834e+00
  1.834044e+01    1.244557e+00
  1.835632e+01    1.242373e+00
  1.837220e+01    1.240895e+00
  1.838807e+01    1.227924e+00
  1.840395e+01    1.218610e+00
  1.841982e+01    1.242190e+00
  1.843570e+01    1.265369e+00
  1.845157e+01    1.244549e+00
  1.846745e+01    1.234445e+00
  1.848332e+01    1.233035e+00
  1.849920e+01    1.225072e+00
  1.851508e+01    1.223234e+00
  1.853095e+01    1.239722e+00
  1.854683e+01    1.243439e+00
  1.856270e+01    1.236179e+00
  1.857858e+01    1.226389e+00
  1.859445e+01    1.230141e+00
  1.861033e+01    1.223873e+00
  1.862620e+01    1.219412e+00
  1.864208e+01    1.224616e+00
  1.865796e+01    1.222346e+00
  1.867383e+01    1.241115e+00
  1.868971e+01    1.191738e+00
  1.870558e+01    1.216319e+00
  1.872146e+01    1.211508e+00
  1.873733e+01    1.212942e+00
  1.875321e+01    1.220218e+00
  1.876908e+01    1.213106e+00
  1.878496e+01    1.206185e+00
  1.880084e+01    1.184686e+00
  1.881671e+01    1.193946e+00
  1.883259e+01    1.178578e+00
  1.884846e+01    1.171622e+00
  1.886434e+01    1.186650e+00
  1.888021e+01    1.178088e+00
  1.889609e+01    1.178667e+00
  1.891196e+01    1.176525e+00
  1.892784e+01    1.188936e+00
  1.894372e+01    1.177282e+00
  1.895959e+01    1.181741e+00
  1.897547e+01    1.182286e+00
  1.899134e+01    1.182680e+00
  1.900722e+01    1.163288e+00
  1.902309e+01    1.178110e+00
  1.903897e+01    1.176805e+00
  1.905484e+01    1.170373e+00
  1.907072e+01    1.164940e+00
  1.908660e+01    1.204208e+00
  1.910247e+01    1.191331e+00
  1.911835e+01    1.170924e+00
  1.913422e+01    1.176752e+00
  1.915010e+01    1.181060e+00
  1.916597e+01    1.172337e+00
  1.918185e+01    1.180217e+00
  1.919773e+01    1.170483e+00
  1.921360e+01    1.183155e+00
  1.922948e+01    1.174417e+00
  1.924535e+01    1.165504e+00
  1.926123e+01    1.161285e+00
  1.927710e+01    1.189699e+00
  1.929298e+01    1.215213e+00
  1.930885e+01    1.192542e+00
  1.932473e+01    1.183681e+00
  1.934061e+01    1.179341e+00
  1.935648e+01    1.160054e+00
  1.937236e+01    1.163584e+00
  1.938823e+01    1.188432e+00
  1.940411e+01    1.152992e+00
  1.941998e+01    1.144715e+00
  1.943586e+01    1.153860e+00
  1.945173e+01    1.160152e+00
  1.946761e+01    1.161939e+00
  1.948349e+01    1.168494e+00
  1.949936e+01    1.172060e+00
  1.951524e+01    1.172628e+00
  1.953111e+01    1.161680e+00
  1.954699e+01    1.146702e+00
  1.956286e+01    1.145786e+00
  1.957874e+01    1.151847e+00
  1.959461e+01    1.104238e+00
  1.961049e+01    1.135305e+00
  1.962637e+01    1.166411e+00
  1.964224e+01    1.152977e+00
  1.965812e+01    1.149266e+00
  1.967399e+01    1.151986e+00
  1.968987e+01    1.133826e+00
  1.970574e+01    1.136541e+00
  1.972162e+01    1.142097e+00
  1.973749e+01    1.132634e+00
  1.975337e+01    1.135792e+00
  1.976925e+01    1.098288e+00
  1.978512e+01    1.121881e+00
  1.980100e+01    1.132275e+00
  1.981687e+01    1.139271e+00
  1.983275e+01    1.133098e+00
  1.984862e+01    1.096760e+00
  1.986450e+01    1.095166e+00
  1.988037e+01    1.135226e+00
  1.989625e+01    1.118725e+00
  1.991213e+01    1.096721e+00
  1.992800e+01    1.110886e+00
  1.994388e+01    1.117397e+00
  1.995975e+01    1.104088e+00
  1.997563e+01    1.120887e+00
  1.999150e+01    1.124806e+00
  2.000738e+01    1.110212e+00
  2.002325e+01    1.106062e+00
  2.003913e+01    1.111536e+00
  2.005501e+01    1.098037e+00
  2.007088e+01    1.111444e+00
  2.008676e+01    1.096491e+00
  2.010263e+01    1.093983e+00
  2.011851e+01    1.083195e+00
  2.013438e+01    1.082076e+00
  2.015026e+01    1.079488e+00
  2.016614e+01    1.097808e+00
  2.018201e+01    1.073108e+00
  2.019789e+01    1.093595e+00
  2.021376e+01    1.134774e+00
  2.022964e+01    1.122831e+00
  2.024551e+01    1.096717e+00
  2.026139e+01    1.112637e+00
  2.027726e+01    1.092686e+00
  2.029314e+01    1.065546e+00
  2.030902e+01    1.084232e+00
  2.032489e+01    1.106357e+00
  2.034077e+01    1.123541e+00
  2.035664e+01    1.118367e+00
  2.037252e+01    1.088367e+00
  2.038839e+01    1.075549e+00
  2.040427e+01    1.083038e+00
  2.042014e+01    1.096983e+00
  2.043602e+01    1.095811e+00
  2.045190e+01    1.074214e+00
  2.046777e+01    1.081651e+00
  2.048365e+01    1.065415e+00
  2.049952e+01    1.066492e+00
  2.051540e+01    1.060380e+00
  2.053127e+01    1.039083e+00
  2.054715e+01    1.039172e+00
  2.056302e+01    1.039390e+00
  2.057890e+01    1.078048e+00
  2.059478e+01    1.057436e+00
  2.061065e+01    1.053158e+00
  2.062653e+01    1.060421e+00
  2.064240e+01    1.065508e+00
  2.065828e+01    1.075498e+00
  2.067415e+01    1.061784e+00
  2.069003e+01    1.067341e+00
  2.070590e+01    1.077846e+00
  2.072178e+01    1.072860e+00
  2.073766e+01    1.059073e+00
  2.075353e+01    1.092857e+00
  2.076941e+01    1.090141e+00
  2.078528e+01    1.060821e+00
  2.080116e+01    1.064152e+00
  2.081703e+01    1.050008e+00
  2.083291e+01    1.055076e+00
  2.084878e+01    1.073116e+00
  2.086466e+01    1.066033e+00
  2.088054e+01    1.070561e+00
  2.089641e+01    1.082479e+00
  2.091229e+01    1.080477e+00
  2.092816e+01    1.088907e+00
  2.094404e+01    1.090100e+00
  2.095991e+01    1.080079e+00
  2.097579e+01    1.079298e+00
  2.099166e+01    1.055758e+00
  2.100754e+01    1.033041e+00
  2.102342e+01    1.071387e+00
  2.103929e+01    1.098760e+00
  2.105517e+01    1.092878e+00
  2.107104e+01    1.077483e+00
  2.108692e+01    1.077172e+00
  2.110279e+01    1.060335e+00
  2.111867e+01    1.066787e+00
  2.113455e+01    1.063254e+00
  2.115042e+01    1.068315e+00
  2.116630e+01    1.063444e+00
  2.118217e+01    1.080508e+00
  2.119805e+01    1.079598e+00
  2.121392e+01    1.082736e+00
  2.122980e+01    1.091690e+00
  2.124567e+01    1.097581e+00
  2.126155e+01    1.091029e+00
  2.127743e+01    1.128428e+00
  2.129330e+01    1.117909e+00
  2.130918e+01    1.123862e+00
  2.132505e+01    1.151514e+00
  2.134093e+01    1.109298e+00
  2.135680e+01    1.126680e+00
  2.137268e+01    1.146859e+00
  2.138855e+01    1.144677e+00
  2.140443e+01    1.144143e+00
  2.142031e+01    1.149419e+00
  2.143618e+01    1.205496e+00
  2.145206e+01    1.197587e+00
  2.146793e+01    1.212672e+00
  2.148381e+01    1.227505e+00
  2.149968e+01    1.249093e+00
  2.151556e+01    1.277494e+00
  2.153143e+01    1.313699e+00
  2.154731e+01    1.376209e+00
  2.156319e+01    1.391753e+00
  2.157906e+01    1.402987e+00
  2.159494e+01    1.488721e+00
  2.161081e+01    1.544677e+00
  2.162669e+01    1.624887e+00
  2.164256e+01    1.724300e+00
  2.165844e+01    1.874237e+00
  2.167431e+01    2.029203e+00
  2.169019e+01    2.187696e+00
  2.170607e+01    2.397979e+00
  2.172194e+01    2.716467e+00
  2.173782e+01    3.015590e+00
  2.175369e+01    3.412654e+00
  2.176957e+01    3.959017e+00
  2.178544e+01    4.578569e+00
  2.180132e+01    5.225510e+00
  2.181719e+01    5.934761e+00
  2.183307e+01    6.647945e+00
  2.184895e+01    7.399045e+00
  2.186482e+01    8.177088e+00
  2.188070e+01    9.018031e+00
  2.189657e+01    9.658174e+00
  2.191245e+01    9.941306e+00
  2.192832e+01    9.872703e+00
  2.194420e+01    9.496428e+00
  2.196007e+01    8.553905e+00
  2.197595e+01    7.509424e+00
  2.199183e+01    6.488844e+00
  2.200770e+01    5.486508e+00
  2.202358e+01    4.645213e+00
  2.203945e+01    3.977940e+00
  2.205533e+01    3.473392e+00
  2.207120e+01    2.999315e+00
  2.208708e+01    2.628752e+00
  2.210296e+01    2.379277e+00
  2.211883e+01    2.173767e+00
  2.213471e+01    2.020514e+00
  2.215058e+01    1.866978e+00
  2.216646e+01    1.721550e+00
  2.218233e+01    1.637787e+00
  2.219821e+01    1.561105e+00
  2.221408e+01    1.479896e+00
  2.222996e+01    1.406991e+00
  2.224584e+01    1.359107e+00
  2.226171e+01    1.293646e+00
  2.227759e+01    1.260029e+00
  2.229346e+01    1.230576e+00
  2.230934e+01    1.206058e+00
  2.232521e+01    1.209059e+00
  2.234109e+01    1.160110e+00
  2.235696e+01    1.168096e+00
  2.237284e+01    1.147141e+00
  2.238872e+01    1.138954e+00
  2.240459e+01    1.098627e+00
  2.242047e+01    1.080078e+00
  2.243634e+01    1.071433e+00
  2.245222e+01    1.080695e+00
  2.246809e+01    1.065800e+00
  2.248397e+01    1.037138e+00
  2.249984e+01    1.030289e+00
  2.251572e+01    1.022979e+00
  2.253160e+01    1.013641e+00
  2.254747e+01    9.947541e-01
  2.256335e+01    9.843915e-01
  2.257922e+01    1.000096e+00
  2.259510e+01    9.917415e-01
  2.261097e+01    9.759642e-01
  2.262685e+01    9.648087e-01
  2.264272e+01    9.345800e-01
  2.265860e+01    9.436408e-01
  2.267448e+01    9.471365e-01
  2.269035e+01    9.411677e-01
  2.270623e+01    9.495996e-01
  2.272210e+01    9.489887e-01
  2.273798e+01    9.525197e-01
  2.275385e+01    9.301387e-01
  2.276973e+01    9.350811e-01
  2.278560e+01    9.340490e-01
  2.280148e+01    9.433919e-01
  2.281736e+01    9.484736e-01
  2.283323e+01    9.401798e-01
  2.284911e+01    9.149974e-01
  2.286498e+01    9.078160e-01
  2.288086e+01    9.185467e-01
  2.289673e+01    9.083081e-01
  2.291261e+01    9.081203e-01
  2.292848e+01    9.342516e-01
  2.294436e+01    9.198425e-01
  2.296024e+01    9.167898e-01
  2.297611e+01    8.943695e-01
  2.299199e+01    9.016769e-01
  2.300786e+01    8.984071e-01
  2.302374e+01    8.794084e-01
  2.303961e+01    8.804486e-01
  2.305549e+01    8.924623e-01
  2.307137e+01    8.724366e-01
  2.308724e+01    8.519990e-01
  2.310312e+01    8.579237e-01
  2.311899e+01    8.754902e-01
  2.313487e+01    8.584271e-01
  2.315074e+01    8.750135e-01
  2.316662e+01    8.779629e-01
  2.318249e+01    8.797876e-01
  2.319837e+01    8.822817e-01
  2.321425e+01    8.715196e-01
  2.323012e+01    8.633345e-01
  2.324600e+01    8.756373e-01
  2.326187e+01    8.703411e-01
  2.327775e+01    8.683918e-01
  2.329362e+01    8.651890e-01
  2.330950e+01    8.677042e-01
  2.332537e+01    8.494039e-01
  2.334125e+01    8.561061e-01
  2.335713e+01    8.505365e-01
  2.337300e+01    8.671303e-01
  2.338888e+01    8.618999e-01
  2.340475e+01    8.621634e-01
  2.342063e+01    8.575781e-01
  2.343650e+01    8.662857e-01
  2.345238e+01    8.392324e-01
  2.346825e+01    8.606848e-01
  2.348413e+01    8.565418e-01
  2.350001e+01    8.278063e-01
  2.351588e+01    8.339801e-01
  2.353176e+01    8.530462e-01
  2.354763e+01    8.451088e-01
  2.356351e+01    8.443743e-01
  2.357938e+01    8.334804e-01
  2.359526e+01    8.387648e-01
  2.361113e+01    8.350762e-01
  2.362701e+01    8.329939e-01
  2.364289e+01    8.357206e-01
  2.365876e+01    8.461773e-01
  2.367464e+01    8.429050e-01
  2.369051e+01    8.216938e-01
  2.370639e+01    8.318015e-01
  2.372226e+01    8.367357e-01
  2.373814e+01    8.067960e-01
  2.375401e+01    8.172898e-01
  2.376989e+01    8.221262e-01
  2.378577e+01    8.132176e-01
  2.380164e+01    8.139705e-01
  2.381752e+01    8.088019e-01
  2.383339e+01    7.907376e-01
  2.384927e+01    7.959566e-01
  2.386514e+01    8.084964e-01
  2.388102e+01    8.306143e-01
  2.389689e+01    8.222828e-01
  2.391277e+01    7.868811e-01
  2.392865e+01    7.898438e-01
  2.394452e+01    7.863865e-01
  2.396040e+01    8.118712e-01
  2.397627e+01    7.964295e-01
  2.399215e+01    7.794755e-01
  2.400802e+01    7.751337e-01
  2.402390e+01    7.720622e-01
  2.403978e+01    7.902161e-01
  2.405565e+01    7.814860e-01
  2.407153e+01    7.915069e-01
  2.408740e+01    7.829143e-01
  2.410328e+01    7.666609e-01
  2.411915e+01    7.729084e-01
  2.413503e+01    7.735498e-01
  2.415090e+01    7.813159e-01
  2.416678e+01    7.513397e-01
  2.418266e+01    7.550658e-01
  2.419853e+01    7.559971e-01
  2.421441e+01    7.605509e-01
  2.423028e+01    7.679317e-01
  2.424616e+01    7.738757e-01
  2.426203e+01    7.736438e-01
  2.427791e+01    7.795030e-01
  2.429378e+01    7.853588e-01
  2.430966e+01    7.912890e-01
  2.432554e+01    8.029844e-01
  2.434141e+01    7.994400e-01
  2.435729e+01    7.869847e-01
  2.437316e+01    7.920243e-01
  2.438904e+01    7.765030e-01
  2.440491e+01    7.687224e-01
  2.442079e+01    7.781193e-01
  2.443666e+01    7.811684e-01
  2.445254e+01    7.942039e-01
  2.446842e+01    7.823058e-01
  2.448429e+01    7.850448e-01
  2.450017e+01    7.884614e-01
  2.451604e+01    8.072405e-01
  2.453192e+01    7.995033e-01
  2.454779e+01    7.864453e-01
  2.456367e+01    8.002670e-01
  2.457954e+01    7.965074e-01
  2.459542e+01    7.894213e-01
  2.461130e+01    7.755604e-01
  2.462717e+01    7.672954e-01
  2.464305e+01    7.714331e-01
  2.465892e+01    7.770448e-01
  2.467480e+01    7.844055e-01
  2.469067e+01    7.849066e-01
  2.470655e+01    7.807368e-01
  2.472242e+01    7.781783e-01
  2.473830e+01    8.038865e-01
  2.475418e+01    7.936003e-01
  2.477005e+01    7.915228e-01
  2.478593e+01    7.821872e-01
  2.480180e+01    7.724755e-01
  2.481768e+01    7.752978e-01
  2.483355e+01    7.857494e-01
  2.484943e+01    7.915407e-01
  2.486530e+01    8.035187e-01
  2.488118e+01    8.096793e-01
  2.489706e+01    8.000198e-01
  2.491293e+01    7.778267e-01
  2.492881e+01    7.894871e-01
  2.494468e+01    7.891627e-01
  2.496056e+01    8.022645e-01
  2.497643e+01    7.970206e-01
  2.499231e+01    7.852489e-01
  2.500819e+01    7.849090e-01
  2.502406e+01    7.752988e-01
  2.503994e+01    7.808853e-01
  2.505581e+01    7.957485e-01
  2.507169e+01    8.083938e-01
  2.508756e+01    8.112056e-01
  2.510344e+01    8.000381e-01
  2.511931e+01    8.003341e-01
  2.513519e+01    7.974945e-01
  2.515107e+01    8.015476e-01
  2.516694e+01    8.086860e-01
  2.518282e+01    8.226170e-01
  2.519869e+01    8.422888e-01
  2.521457e+01    8.438565e-01
  2.523044e+01    8.361899e-01
  2.524632e+01    8.541341e-01
  2.526219e+01    8.334266e-01
  2.527807e+01    8.368496e-01
  2.529395e+01    8.368593e-01
  2.530982e+01    8.622672e-01
  2.532570e+01    8.691198e-01
  2.534157e+01    8.841047e-01
  2.535745e+01    8.700370e-01
  2.537332e+01    8.922143e-01
  2.538920e+01    9.020157e-01
  2.540507e+01    8.972115e-01
  2.542095e+01    9.012886e-01
  2.543683e+01    9.038079e-01
  2.545270e+01    9.414434e-01
  2.546858e+01    9.488384e-01
  2.548445e+01    9.524675e-01
  2.550033e+01    9.484584e-01
  2.551620e+01    9.627270e-01
  2.553208e+01    1.003131e+00
  2.554795e+01    1.028554e+00
  2.556383e+01    1.029807e+00
  2.557971e+01    1.044353e+00
  2.559558e+01    1.078321e+00
  2.561146e+01    1.103735e+00
  2.562733e+01    1.137695e+00
  2.564321e+01    1.182267e+00
  2.565908e+01    1.241793e+00
  2.567496e+01    1.293909e+00
  2.569083e+01    1.352520e+00
  2.570671e+01    1.446535e+00
  2.572259e+01    1.543427e+00
  2.573846e+01    1.629683e+00
  2.575434e+01    1.747206e+00
  2.577021e+01    1.934013e+00
  2.578609e+01    2.163372e+00
  2.580196e+01    2.422182e+00
  2.581784e+01    2.722347e+00
  2.583371e+01    3.075486e+00
  2.584959e+01    3.481601e+00
  2.586547e+01    4.009420e+00
  2.588134e+01    4.665197e+00
  2.589722e+01    5.248188e+00
  2.591309e+01    5.961992e+00
  2.592897e+01    6.622578e+00
  2.594484e+01    7.393766e+00
  2.596072e+01    7.931602e+00
  2.597660e+01    8.190379e+00
  2.599247e+01    8.204287e+00
  2.600835e+01    7.913455e+00
  2.602422e+01    7.339851e+00
  2.604010e+01    6.583536e+00
  2.605597e+01    5.728709e+00
  2.607185e+01    4.871579e+00
  2.608772e+01    4.109630e+00
  2.610360e+01    3.571914e+00
  2.611948e+01    3.087630e+00
  2.613535e+01    2.718608e+00
  2.615123e+01    2.411541e+00
  2.616710e+01    2.137748e+00
  2.618298e+01    1.956180e+00
  2.619885e+01    1.777815e+00
  2.621473e+01    1.640031e+00
  2.623060e+01    1.524842e+00
  2.624648e+01    1.444475e+00
  2.626236e+01    1.374686e+00
  2.627823e+01    1.323636e+00
  2.629411e+01    1.251713e+00
  2.630998e+01    1.203086e+00
  2.632586e+01    1.167544e+00
  2.634173e+01    1.122989e+00
  2.635761e+01    1.076200e+00
  2.637348e+01    1.062077e+00
  2.638936e+01    1.038543e+00
  2.640524e+01    1.028141e+00
  2.642111e+01    9.999915e-01
  2.643699e+01    9.847202e-01
  2.645286e+01    9.834385e-01
  2.646874e+01    9.876553e-01
  2.648461e+01    9.548274e-01
  2.650049e+01    9.366633e-01
  2.651636e+01    9.284845e-01
  2.653224e+01    9.317501e-01
  2.654812e+01    9.327611e-01
  2.656399e+01    9.433821e-01
  2.657987e+01    9.191865e-01
  2.659574e+01    9.072686e-01
  2.661162e+01    8.971323e-01
  2.662749e+01    9.011022e-01
  2.664337e+01    8.900145e-01
  2.665924e+01    9.134109e-01
  2.667512e+01    9.125324e-01
  2.669100e+01    9.022508e-01
  2.670687e+01    9.108374e-01
  2.672275e+01    8.998595e-01
  2.673862e+01    8.950393e-01
  2.675450e+01    9.107537e-01
  2.677037e+01    9.145251e-01
  2.678625e+01    8.925298e-01
  2.680212e+01    8.796652e-01
  2.681800e+01    8.831169e-01
  2.683388e+01    9.106678e-01
  2.684975e+01    9.091359e-01
  2.686563e+01    9.188053e-01
  2.688150e+01    9.268824e-01
  2.689738e+01    9.329305e-01
  2.691325e+01    9.140556e-01
  2.692913e+01    9.000666e-01
  2.694501e+01    9.368238e-01
  2.696088e+01    9.693658e-01
  2.697676e+01    9.579874e-01
  2.699263e+01    9.905369e-01
  2.700851e+01    1.017257e+00
  2.702438e+01    1.052800e+00
  2.704026e+01    1.087544e+00
  2.705613e+01    1.126646e+00
  2.707201e+01    1.149862e+00
  2.708789e+01    1.198010e+00
  2.710376e+01    1.313135e+00
  2.711964e+01    1.425204e+00
  2.713551e+01    1.541581e+00
  2.715139e+01    1.655517e+00
  2.716726e+01    1.817115e+00
  2.718314e+01    1.979933e+00
  2.719901e+01    2.112273e+00
  2.721489e+01    2.263304e+00
  2.723077e+01    2.371796e+00
  2.724664e+01    2.385168e+00
  2.726252e+01    2.389267e+00
  2.727839e+01    2.273696e+00
  2.729427e+01    2.074518e+00
  2.731014e+01    1.893468e+00
  2.732602e+01    1.756707e+00
  2.734189e+01    1.610426e+00
  2.735777e+01    1.431581e+00
  2.737365e+01    1.333645e+00
  2.738952e+01    1.282086e+00
  2.740540e+01    1.173758e+00
  2.742127e+01    1.111013e+00
  2.743715e+01    1.054208e+00
  2.745302e+01    1.018462e+00
  2.746890e+01    1.009993e+00
  2.748477e+01    9.960381e-01
  2.750065e+01    9.576861e-01
  2.751653e+01    9.465674e-01
  2.753240e+01    9.166239e-01
  2.754828e+01    8.938967e-01
  2.756415e+01    8.760867e-01
  2.758003e+01    8.790185e-01
  2.759590e+01    8.510929e-01
  2.761178e+01    8.459421e-01
  2.762765e+01    8.559752e-01
  2.764353e+01    8.443739e-01
  2.765941e+01    8.354666e-01
  2.767528e+01    8.308640e-01
  2.769116e+01    8.176405e-01
  2.770703e+01    8.275990e-01
  2.772291e+01    8.113071e-01
  2.773878e+01    8.121731e-01
  2.775466e+01    8.201642e-01
  2.777054e+01    8.322737e-01
  2.778641e+01    8.406642e-01
  2.780229e+01    8.180000e-01
  2.781816e+01    8.105663e-01
  2.783404e+01    7.978573e-01
  2.784991e+01    8.017293e-01
  2.786579e+01    7.906433e-01
  2.788166e+01    7.901295e-01
  2.789754e+01    8.071799e-01
  2.791342e+01    7.885839e-01
  2.792929e+01    7.973372e-01
  2.794517e+01    7.917936e-01
  2.796104e+01    7.685424e-01
  2.797692e+01    7.843922e-01
  2.799279e+01    7.832320e-01
  2.800867e+01    7.692806e-01
  2.802454e+01    7.758293e-01
  2.804042e+01    8.004147e-01
  2.805630e+01    7.938280e-01
  2.807217e+01    7.915427e-01
  2.808805e+01    7.718991e-01
  2.810392e+01    7.724542e-01
  2.811980e+01    7.591735e-01
  2.813567e+01    7.829977e-01
  2.815155e+01    7.810662e-01
  2.816742e+01    7.945575e-01
  2.818330e+01    7.944452e-01
  2.819918e+01    7.787768e-01
  2.821505e+01    7.659791e-01
  2.823093e+01    7.682372e-01
  2.824680e+01    7.702578e-01
  2.826268e+01    7.664784e-01
  2.827855e+01    7.623439e-01
  2.829443e+01    7.666110e-01
  2.831030e+01    7.737020e-01
  2.832618e+01    7.885252e-01
  2.834206e+01    7.486072e-01
  2.835793e+01    7.557868e-01
  2.837381e+01    7.674908e-01
  2.838968e+01    7.543799e-01
  2.840556e+01    7.575753e-01
  2.842143e+01    7.626334e-01
  2.843731e+01    7.676924e-01
  2.845318e+01    7.384264e-01
  2.846906e+01    7.602444e-01
  2.848494e+01    7.834141e-01
  2.850081e+01    7.515634e-01
  2.851669e+01    7.543654e-01
  2.853256e+01    7.580392e-01
  2.854844e+01    7.388164e-01
  2.856431e+01    7.337743e-01
  2.858019e+01    7.406898e-01
  2.859606e+01    7.563891e-01
  2.861194e+01    7.626408e-01
  2.862782e+01    7.560477e-01
  2.864369e+01    7.489255e-01
  2.865957e+01    7.525278e-01
  2.867544e+01    7.631510e-01
  2.869132e+01    7.484403e-01
  2.870719e+01    7.462149e-01
  2.872307e+01    7.299612e-01
  2.873895e+01    7.233340e-01
  2.875482e+01    7.392510e-01
  2.877070e+01    7.375417e-01
  2.878657e+01    7.303035e-01
  2.880245e+01    7.432786e-01
  2.881832e+01    7.297295e-01
  2.883420e+01    7.266203e-01
  2.885007e+01    7.216352e-01
  2.886595e+01    7.327705e-01
  2.888183e+01    7.539570e-01
  2.889770e+01    7.481515e-01
  2.891358e+01    7.436032e-01
  2.892945e+01    7.361576e-01
  2.894533e+01    7.279858e-01
  2.896120e+01    7.233435e-01
  2.897708e+01    7.342140e-01
  2.899295e+01    7.483227e-01
  2.900883e+01    7.651826e-01
  2.902471e+01    7.408331e-01
  2.904058e+01    7.344233e-01
  2.905646e+01    7.333766e-01
  2.907233e+01    7.462459e-01
  2.908821e+01    7.587540e-01
  2.910408e+01    7.590882e-01
  2.911996e+01    7.360908e-01
  2.913583e+01    7.254874e-01
  2.915171e+01    7.390390e-01
  2.916759e+01    7.402637e-01
  2.918346e+01    7.167152e-01
  2.919934e+01    7.381413e-01
  2.921521e+01    7.221481e-01
  2.923109e+01    7.242041e-01
  2.924696e+01    7.150254e-01
  2.926284e+01    7.190900e-01
  2.927871e+01    7.194478e-01
  2.929459e+01    7.326052e-01
  2.931047e+01    7.218994e-01
  2.932634e+01    7.187658e-01
  2.934222e+01    7.466248e-01
  2.935809e+01    7.395636e-01
  2.937397e+01    7.134809e-01
  2.938984e+01    7.399490e-01
  2.940572e+01    7.308300e-01
  2.942159e+01    7.281896e-01
  2.943747e+01    7.241940e-01
  2.945335e+01    7.339781e-01
  2.946922e+01    7.172185e-01
  2.948510e+01    7.187563e-01
  2.950097e+01    7.058271e-01
  2.951685e+01    7.145007e-01
  2.953272e+01    7.156521e-01
  2.954860e+01    7.238870e-01
  2.956447e+01    7.245009e-01
  2.958035e+01    7.303391e-01
  2.959623e+01    7.195731e-01
  2.961210e+01    7.256408e-01
  2.962798e+01    7.206682e-01
  2.964385e+01    7.255259e-01
  2.965973e+01    7.318262e-01
  2.967560e+01    6.966607e-01
  2.969148e+01    7.184410e-01
  2.970736e+01    7.242556e-01
  2.972323e+01    7.034336e-01
  2.973911e+01    7.178472e-01
  2.975498e+01    7.183735e-01
  2.977086e+01    7.159085e-01
  2.978673e+01    7.213905e-01
  2.980261e+01    7.430476e-01
  2.981848e+01    7.167357e-01
  2.983436e+01    7.226920e-01
  2.985024e+01    7.116148e-01
  2.986611e+01    7.068279e-01
  2.988199e+01    7.040796e-01
  2.989786e+01    7.137164e-01
  2.991374e+01    7.210212e-01
  2.992961e+01    7.331802e-01
  2.994549e+01    7.291976e-01
  2.996136e+01    7.310481e-01
  2.997724e+01    7.222784e-01
  2.999312e+01    7.426381e-01
  3.000899e+01    7.442312e-01
  3.002487e+01    7.265170e-01
  3.004074e+01    7.185488e-01
  3.005662e+01    7.285112e-01
  3.007249e+01    7.275287e-01
  3.008837e+01    7.146277e-01
  3.010424e+01    7.315180e-01
  3.012012e+01    7.351013e-01
  3.013600e+01    7.269505e-01
  3.015187e+01    7.268689e-01
  3.016775e+01    7.062387e-01
  3.018362e+01    7.022251e-01
  3.019950e+01    7.275686e-01
  3.021537e+01    7.021483e-01
  3.023125e+01    7.126552e-01
  3.024712e+01    7.077687e-01
  3.026300e+01    7.039587e-01
  3.027888e+01    7.283123e-01
  3.029475e+01    7.023538e-01
  3.031063e+01    7.071528e-01
  3.032650e+01    7.126824e-01
  3.034238e+01    6.948375e-01
  3.035825e+01    6.939150e-01
  3.037413e+01    7.238264e-01
  3.039000e+01    7.029141e-01
  3.040588e+01    7.074260e-01
  3.042176e+01    7.110118e-01
  3.043763e+01    7.207861e-01
  3.045351e+01    7.156883e-01
  3.046938e+01    7.233974e-01
  3.048526e+01    7.082084e-01
  3.050113e+01    7.061141e-01
  3.051701e+01    6.956091e-01
  3.053288e+01    7.091451e-01
  3.054876e+01    7.134735e-01
  3.056464e+01    6.940471e-01
  3.058051e+01    7.128543e-01
  3.059639e+01    7.129175e-01
  3.061226e+01    7.160668e-01
  3.062814e+01    7.143793e-01
  3.064401e+01    7.315496e-01
  3.065989e+01    7.226083e-01
  3.067577e+01    7.215938e-01
  3.069164e+01    6.918583e-01
  3.070752e+01    7.078435e-01
  3.072339e+01    7.501200e-01
  3.073927e+01    7.156624e-01
  3.075514e+01    7.060723e-01
  3.077102e+01    7.284027e-01
  3.078689e+01    7.245727e-01
  3.080277e+01    7.112859e-01
  3.081865e+01    6.864333e-01
  3.083452e+01    7.070163e-01
  3.085040e+01    6.992251e-01
  3.086627e+01    7.124282e-01
  3.088215e+01    7.096418e-01
  3.089802e+01    7.079242e-01
  3.091390e+01    7.161084e-01
  3.092977e+01    7.251680e-01
  3.094565e+01    7.006082e-01
  3.096153e+01    7.129756e-01
  3.097740e+01    7.142771e-01
  3.099328e+01    6.900757e-01
  3.100915e+01    7.170663e-01
  3.102503e+01    7.288042e-01
  3.104090e+01    7.158778e-01
  3.105678e+01    7.282607e-01
  3.107265e+01    7.193325e-01
  3.108853e+01    7.267461e-01
  3.110441e+01    7.155067e-01
  3.112028e+01    7.129252e-01
  3.113616e+01    7.169701e-01
  3.115203e+01    7.193694e-01
  3.116791e+01    7.195260e-01
  3.118378e+01    7.061424e-01
  3.119966e+01    7.221453e-01
  3.121553e+01    7.347485e-01
  3.123141e+01    7.166631e-01
  3.124729e+01    7.044265e-01
  3.126316e+01    7.315748e-01
  3.127904e+01    7.220727e-01
  3.129491e+01    7.275331e-01
  3.131079e+01    7.333239e-01
  3.132666e+01    7.460313e-01
  3.134254e+01    7.344380e-01
  3.135841e+01    7.202965e-01
  3.137429e+01    7.302676e-01
  3.139017e+01    7.247847e-01
  3.140604e+01    7.561359e-01
  3.142192e+01    7.446893e-01
  3.143779e+01    7.353263e-01
  3.145367e+01    7.722250e-01
  3.146954e+01    7.536623e-01
  3.148542e+01    7.439365e-01
  3.150129e+01    7.457166e-01
  3.151717e+01    7.671456e-01
  3.153305e+01    7.909441e-01
  3.154892e+01    7.831650e-01
  3.156480e+01    7.898186e-01
  3.158067e+01    8.014606e-01
  3.159655e+01    7.885747e-01
  3.161242e+01    8.198843e-01
  3.162830e+01    8.213729e-01
  3.164418e+01    8.086742e-01
  3.166005e+01    8.513715e-01
  3.167593e+01    8.915051e-01
  3.169180e+01    8.936675e-01
  3.170768e+01    8.858023e-01
  3.172355e+01    9.397899e-01
  3.173943e+01    9.859844e-01
  3.175530e+01    1.073574e+00
  3.177118e+01    1.123110e+00
  3.178706e+01    1.184549e+00
  3.180293e+01    1.274976e+00
  3.181881e+01    1.380131e+00
  3.183468e+01    1.550943e+00
  3.185056e+01    1.691607e+00
  3.186643e+01    1.858507e+00
  3.188231e+01    2.045254e+00
  3.189818e+01    2.218160e+00
  3.191406e+01    2.323153e+00
  3.192994e+01    2.366979e+00
  3.194581e+01    2.356005e+00
  3.196169e+01    2.294347e+00
  3.197756e+01    2.193898e+00
  3.199344e+01    2.043501e+00
  3.200931e+01    1.837523e+00
  3.202519e+01    1.650177e+00
  3.204106e+01    1.466761e+00
  3.205694e+01    1.394583e+00
  3.207282e+01    1.245241e+00
  3.208869e+01    1.154186e+00
  3.210457e+01    1.108060e+00
  3.212044e+01    1.040290e+00
  3.213632e+01    9.783043e-01
  3.215219e+01    9.217549e-01
  3.216807e+01    9.277509e-01
  3.218394e+01    8.979980e-01
  3.219982e+01    8.728685e-01
  3.221570e+01    8.426348e-01
  3.223157e+01    8.146058e-01
  3.224745e+01    8.046990e-01
  3.226332e+01    8.067504e-01
  3.227920e+01    7.733214e-01
  3.229507e+01    7.733088e-01
  3.231095e+01    7.799289e-01
  3.232682e+01    7.575868e-01
  3.234270e+01    7.500376e-01
  3.235858e+01    7.502836e-01
  3.237445e+01    7.525996e-01
  3.239033e+01    7.222204e-01
  3.240620e+01    7.438093e-01
  3.242208e+01    7.466742e-01
  3.243795e+01    7.489297e-01
  3.245383e+01    7.358805e-01
  3.246970e+01    7.019510e-01
  3.248558e+01    7.070475e-01
  3.250146e+01    7.248693e-01
  3.251733e+01    7.162980e-01
  3.253321e+01    7.296247e-01
  3.254908e+01    7.118054e-01
