# == pyFAI calibration ==
# Distance Sample to Detector: 0.3999999939076516 m
# PONI: 9.750e-02, 1.135e-01 m
# Rotations: -0.000175 0.000000 -0.000000 rad
# 
# == Fit2d calibration ==
# Distance Sample-beamCenter: 400.000 mm
# Center: x=1514.000, y=1300.000 pix
# Tilt: 0.010 deg  TiltPlanRot: 0.010 deg
# 
# Detector Detector	 Spline= None	 PixelSize= 7.500e-05, 7.500e-05 m
#    Detector has a mask: False 
#    Detector has a dark current: False 
#    detector has a flat field: False 
# 
# Wavelength: 6.888e-11 m
# Mask applied: user provided
# Dark current applied: False
# Flat field applied: False
# Polarization factor: 0.99
# Normalization factor: 1.0
# --> /home/myspot/data/2024_07_Rosario/Ru-CGO-ex/2024-07-27_002_Ru-CGO-ex_Activtation_ramp_000002_data_000153.dat
#       q_nm^-1             I 
  2.003187e-02    0.000000e+00
  3.590745e-02    0.000000e+00
  5.178302e-02    2.671360e-02
  6.765859e-02    1.028231e-01
  8.353417e-02    2.996368e-02
  9.940974e-02    0.000000e+00
  1.152853e-01    2.774936e-02
  1.311609e-01    7.689951e-02
  1.470365e-01    2.487534e-02
  1.629120e-01    3.823922e-03
  1.787876e-01    4.020789e-02
  1.946632e-01    5.866859e-02
  2.105388e-01    5.367757e-02
  2.264143e-01    6.274930e-02
  2.422899e-01    6.925289e-02
  2.581655e-01    2.710230e-02
  2.740411e-01    1.399856e-02
  2.899166e-01    5.386855e-02
  3.057922e-01    4.768490e-02
  3.216678e-01    6.692882e-02
  3.375433e-01    3.594613e-02
  3.534189e-01    6.467865e-03
  3.692945e-01    2.240490e-02
  3.851701e-01    5.816521e-02
  4.010456e-01    3.772499e-02
  4.169212e-01    2.871965e-02
  4.327968e-01    2.286803e-02
  4.486724e-01    4.409133e-02
  4.645479e-01    3.278487e-02
  4.804235e-01    1.529081e-03
  4.962991e-01    1.672429e-02
  5.121747e-01    4.924068e-02
  5.280502e-01    1.915654e-02
  5.439258e-01    4.261753e-02
  5.598014e-01    7.279190e-02
  5.756770e-01    6.990039e-02
  5.915525e-01    4.120624e-02
  6.074281e-01    1.963731e-02
  6.233037e-01    1.653191e-02
  6.391793e-01    2.680543e-02
  6.550548e-01    1.209004e-02
  6.709304e-01    2.580346e-02
  6.868060e-01    2.989309e-02
  7.026815e-01    2.366607e-02
  7.185571e-01    4.913224e-02
  7.344327e-01    5.446848e-02
  7.503083e-01    2.840829e-02
  7.661838e-01    4.861054e-02
  7.820594e-01    1.010477e-01
  7.979350e-01    1.652680e-01
  8.138106e-01    2.321509e-01
  8.296861e-01    2.592357e-01
  8.455617e-01    2.587275e-01
  8.614373e-01    3.258349e-01
  8.773129e-01    4.195323e-01
  8.931884e-01    4.402478e-01
  9.090640e-01    6.145903e-01
  9.249396e-01    6.697079e-01
  9.408152e-01    7.105500e-01
  9.566907e-01    7.822553e-01
  9.725663e-01    8.339791e-01
  9.884419e-01    9.023740e-01
  1.004317e+00    1.044310e+00
  1.020193e+00    1.106493e+00
  1.036069e+00    1.170052e+00
  1.051944e+00    1.392799e+00
  1.067820e+00    1.325794e+00
  1.083695e+00    1.233366e+00
  1.099571e+00    1.435388e+00
  1.115446e+00    1.414350e+00
  1.131322e+00    1.412779e+00
  1.147198e+00    1.490854e+00
  1.163073e+00    1.450722e+00
  1.178949e+00    1.539338e+00
  1.194824e+00    1.699517e+00
  1.210700e+00    1.903410e+00
  1.226575e+00    2.042461e+00
  1.242451e+00    2.027902e+00
  1.258327e+00    2.300283e+00
  1.274202e+00    2.429327e+00
  1.290078e+00    2.428824e+00
  1.305953e+00    2.379298e+00
  1.321829e+00    2.463581e+00
  1.337705e+00    2.636013e+00
  1.353580e+00    2.606075e+00
  1.369456e+00    2.576016e+00
  1.385331e+00    2.476417e+00
  1.401207e+00    2.662909e+00
  1.417082e+00    2.578995e+00
  1.432958e+00    2.514276e+00
  1.448834e+00    2.744875e+00
  1.464709e+00    2.806749e+00
  1.480585e+00    2.772866e+00
  1.496460e+00    2.708197e+00
  1.512336e+00    2.839961e+00
  1.528211e+00    2.694348e+00
  1.544087e+00    2.834955e+00
  1.559963e+00    2.915722e+00
  1.575838e+00    2.821454e+00
  1.591714e+00    2.838643e+00
  1.607589e+00    2.798792e+00
  1.623465e+00    2.918363e+00
  1.639340e+00    3.011268e+00
  1.655216e+00    2.977533e+00
  1.671092e+00    2.843993e+00
  1.686967e+00    2.903971e+00
  1.702843e+00    2.969426e+00
  1.718718e+00    3.019042e+00
  1.734594e+00    2.923100e+00
  1.750469e+00    2.759381e+00
  1.766345e+00    2.717442e+00
  1.782221e+00    2.729498e+00
  1.798096e+00    2.702734e+00
  1.813972e+00    2.779103e+00
  1.829847e+00    2.738332e+00
  1.845723e+00    2.776512e+00
  1.861598e+00    2.807067e+00
  1.877474e+00    2.764012e+00
  1.893350e+00    2.881688e+00
  1.909225e+00    2.709387e+00
  1.925101e+00    2.757854e+00
  1.940976e+00    2.695104e+00
  1.956852e+00    2.699691e+00
  1.972727e+00    2.628559e+00
  1.988603e+00    2.631945e+00
  2.004479e+00    2.751817e+00
  2.020354e+00    2.699569e+00
  2.036230e+00    2.622364e+00
  2.052105e+00    2.645528e+00
  2.067981e+00    2.784005e+00
  2.083856e+00    2.708942e+00
  2.099732e+00    2.763231e+00
  2.115608e+00    2.767276e+00
  2.131483e+00    2.694941e+00
  2.147359e+00    2.688917e+00
  2.163234e+00    2.756941e+00
  2.179110e+00    2.682548e+00
  2.194985e+00    2.731007e+00
  2.210861e+00    2.743613e+00
  2.226737e+00    2.782750e+00
  2.242612e+00    2.795321e+00
  2.258488e+00    2.725681e+00
  2.274363e+00    2.695317e+00
  2.290239e+00    2.783286e+00
  2.306115e+00    2.795268e+00
  2.321990e+00    2.773499e+00
  2.337866e+00    2.818450e+00
  2.353741e+00    2.827230e+00
  2.369617e+00    2.796674e+00
  2.385492e+00    2.804991e+00
  2.401368e+00    2.697585e+00
  2.417244e+00    2.803422e+00
  2.433119e+00    2.855564e+00
  2.448995e+00    2.813560e+00
  2.464870e+00    2.759270e+00
  2.480746e+00    2.783837e+00
  2.496621e+00    2.713891e+00
  2.512497e+00    2.820009e+00
  2.528373e+00    2.775529e+00
  2.544248e+00    2.795789e+00
  2.560124e+00    2.766684e+00
  2.575999e+00    2.814393e+00
  2.591875e+00    2.829390e+00
  2.607750e+00    2.811514e+00
  2.623626e+00    2.759510e+00
  2.639502e+00    2.706877e+00
  2.655377e+00    2.798346e+00
  2.671253e+00    2.804869e+00
  2.687128e+00    2.845004e+00
  2.703004e+00    2.736753e+00
  2.718879e+00    2.749099e+00
  2.734755e+00    2.861423e+00
  2.750631e+00    2.952347e+00
  2.766506e+00    2.808925e+00
  2.782382e+00    2.819113e+00
  2.798257e+00    2.857263e+00
  2.814133e+00    2.801043e+00
  2.830008e+00    2.788284e+00
  2.845884e+00    2.876187e+00
  2.861760e+00    3.038374e+00
  2.877635e+00    2.954872e+00
  2.893511e+00    2.886156e+00
  2.909386e+00    2.823849e+00
  2.925262e+00    2.844025e+00
  2.941137e+00    2.898704e+00
  2.957013e+00    2.869747e+00
  2.972889e+00    2.824020e+00
  2.988764e+00    2.969243e+00
  3.004640e+00    2.981741e+00
  3.020515e+00    2.934955e+00
  3.036391e+00    2.862735e+00
  3.052266e+00    2.901805e+00
  3.068142e+00    3.058832e+00
  3.084018e+00    3.031090e+00
  3.099893e+00    2.932453e+00
  3.115769e+00    2.858904e+00
  3.131644e+00    2.834621e+00
  3.147520e+00    2.833613e+00
  3.163395e+00    2.908764e+00
  3.179271e+00    2.931063e+00
  3.195147e+00    2.975937e+00
  3.211022e+00    2.911213e+00
  3.226898e+00    2.855256e+00
  3.242773e+00    2.988348e+00
  3.258649e+00    3.027238e+00
  3.274525e+00    3.000575e+00
  3.290400e+00    2.957768e+00
  3.306276e+00    2.993567e+00
  3.322151e+00    2.958351e+00
  3.338027e+00    2.983165e+00
  3.353902e+00    2.939831e+00
  3.369778e+00    3.100069e+00
  3.385654e+00    2.982574e+00
  3.401529e+00    2.907683e+00
  3.417405e+00    2.910372e+00
  3.433280e+00    3.011431e+00
  3.449156e+00    3.006202e+00
  3.465031e+00    2.999561e+00
  3.480907e+00    2.988158e+00
  3.496783e+00    2.992157e+00
  3.512658e+00    2.997704e+00
  3.528534e+00    3.022663e+00
  3.544409e+00    2.949643e+00
  3.560285e+00    2.984759e+00
  3.576160e+00    2.976708e+00
  3.592036e+00    3.073157e+00
  3.607912e+00    2.995173e+00
  3.623787e+00    2.993359e+00
  3.639663e+00    2.993835e+00
  3.655538e+00    2.949119e+00
  3.671414e+00    2.950799e+00
  3.687289e+00    2.963618e+00
  3.703165e+00    3.066442e+00
  3.719041e+00    3.055560e+00
  3.734916e+00    2.891110e+00
  3.750792e+00    2.963660e+00
  3.766667e+00    3.012058e+00
  3.782543e+00    3.023114e+00
  3.798418e+00    3.025352e+00
  3.814294e+00    3.052192e+00
  3.830170e+00    2.967526e+00
  3.846045e+00    2.934686e+00
  3.861921e+00    3.062665e+00
  3.877796e+00    2.956672e+00
  3.893672e+00    2.942101e+00
  3.909547e+00    3.078723e+00
  3.925423e+00    3.108028e+00
  3.941299e+00    2.975060e+00
  3.957174e+00    3.005573e+00
  3.973050e+00    3.093618e+00
  3.988925e+00    3.039734e+00
  4.004801e+00    3.038646e+00
  4.020676e+00    3.054279e+00
  4.036552e+00    3.098045e+00
  4.052428e+00    3.046016e+00
  4.068303e+00    3.028637e+00
  4.084179e+00    3.136514e+00
  4.100054e+00    3.085272e+00
  4.115930e+00    3.055482e+00
  4.131806e+00    3.032820e+00
  4.147681e+00    3.061167e+00
  4.163557e+00    3.054321e+00
  4.179432e+00    3.046348e+00
  4.195308e+00    3.010029e+00
  4.211183e+00    2.959146e+00
  4.227059e+00    2.953157e+00
  4.242935e+00    2.986885e+00
  4.258810e+00    3.014777e+00
  4.274686e+00    2.971170e+00
  4.290561e+00    3.044236e+00
  4.306437e+00    3.063287e+00
  4.322312e+00    3.127548e+00
  4.338188e+00    3.122684e+00
  4.354064e+00    3.024605e+00
  4.369939e+00    3.106523e+00
  4.385815e+00    3.139651e+00
  4.401690e+00    3.071937e+00
  4.417566e+00    3.098807e+00
  4.433441e+00    3.064075e+00
  4.449317e+00    3.091227e+00
  4.465193e+00    3.057147e+00
  4.481068e+00    3.033362e+00
  4.496944e+00    3.111242e+00
  4.512819e+00    3.090220e+00
  4.528695e+00    3.059701e+00
  4.544570e+00    3.103000e+00
  4.560446e+00    3.122251e+00
  4.576322e+00    3.062387e+00
  4.592197e+00    3.095833e+00
  4.608073e+00    3.075263e+00
  4.623948e+00    3.013709e+00
  4.639824e+00    3.101878e+00
  4.655699e+00    3.118284e+00
  4.671575e+00    3.014104e+00
  4.687451e+00    3.073194e+00
  4.703326e+00    3.169544e+00
  4.719202e+00    3.163081e+00
  4.735077e+00    3.118000e+00
  4.750953e+00    3.063637e+00
  4.766828e+00    3.096658e+00
  4.782704e+00    3.139719e+00
  4.798580e+00    3.133075e+00
  4.814455e+00    3.078557e+00
  4.830331e+00    3.113697e+00
  4.846206e+00    3.115359e+00
  4.862082e+00    3.103069e+00
  4.877957e+00    3.108623e+00
  4.893833e+00    3.143408e+00
  4.909709e+00    3.124495e+00
  4.925584e+00    3.113697e+00
  4.941460e+00    3.146546e+00
  4.957335e+00    3.162992e+00
  4.973211e+00    3.094286e+00
  4.989086e+00    3.067569e+00
  5.004962e+00    3.066813e+00
  5.020838e+00    3.131874e+00
  5.036713e+00    3.126719e+00
  5.052589e+00    3.108706e+00
  5.068464e+00    3.097967e+00
  5.084340e+00    3.174398e+00
  5.100216e+00    3.125419e+00
  5.116091e+00    3.083050e+00
  5.131967e+00    3.137335e+00
  5.147842e+00    3.151412e+00
  5.163718e+00    3.200165e+00
  5.179593e+00    3.154605e+00
  5.195469e+00    3.080712e+00
  5.211345e+00    3.078261e+00
  5.227220e+00    3.101287e+00
  5.243096e+00    3.155688e+00
  5.258971e+00    3.127792e+00
  5.274847e+00    3.150788e+00
  5.290722e+00    3.136292e+00
  5.306598e+00    3.123393e+00
  5.322474e+00    3.188784e+00
  5.338349e+00    3.251246e+00
  5.354225e+00    3.125677e+00
  5.370100e+00    3.178759e+00
  5.385976e+00    3.151923e+00
  5.401851e+00    3.125146e+00
  5.417727e+00    3.112947e+00
  5.433603e+00    3.116624e+00
  5.449478e+00    3.108177e+00
  5.465354e+00    3.091701e+00
  5.481229e+00    3.096804e+00
  5.497105e+00    3.144599e+00
  5.512980e+00    3.115840e+00
  5.528856e+00    3.097272e+00
  5.544732e+00    3.137006e+00
  5.560607e+00    3.204789e+00
  5.576483e+00    3.219251e+00
  5.592358e+00    3.148812e+00
  5.608234e+00    3.065890e+00
  5.624109e+00    3.132228e+00
  5.639985e+00    3.104628e+00
  5.655861e+00    3.094740e+00
  5.671736e+00    3.119405e+00
  5.687612e+00    3.150485e+00
  5.703487e+00    3.200829e+00
  5.719363e+00    3.143002e+00
  5.735238e+00    3.047050e+00
  5.751114e+00    3.033469e+00
  5.766990e+00    3.082655e+00
  5.782865e+00    3.117502e+00
  5.798741e+00    3.108785e+00
  5.814616e+00    3.011747e+00
  5.830492e+00    3.038428e+00
  5.846367e+00    3.070987e+00
  5.862243e+00    3.018946e+00
  5.878119e+00    2.989249e+00
  5.893994e+00    2.996429e+00
  5.909870e+00    3.030274e+00
  5.925745e+00    3.044730e+00
  5.941621e+00    2.998029e+00
  5.957497e+00    3.031710e+00
  5.973372e+00    3.103479e+00
  5.989248e+00    3.082783e+00
  6.005123e+00    3.027296e+00
  6.020999e+00    2.944699e+00
  6.036874e+00    2.997796e+00
  6.052750e+00    3.035893e+00
  6.068626e+00    3.103492e+00
  6.084501e+00    3.102888e+00
  6.100377e+00    3.059838e+00
  6.116252e+00    3.187744e+00
  6.132128e+00    3.072163e+00
  6.148003e+00    3.008838e+00
  6.163879e+00    3.078577e+00
  6.179755e+00    3.114088e+00
  6.195630e+00    3.045038e+00
  6.211506e+00    3.067394e+00
  6.227381e+00    3.128921e+00
  6.243257e+00    3.056062e+00
  6.259132e+00    3.037597e+00
  6.275008e+00    3.118699e+00
  6.290884e+00    3.030066e+00
  6.306759e+00    3.051635e+00
  6.322635e+00    3.070366e+00
  6.338510e+00    3.051603e+00
  6.354386e+00    3.080506e+00
  6.370261e+00    3.094259e+00
  6.386137e+00    3.034520e+00
  6.402013e+00    3.049937e+00
  6.417888e+00    3.093308e+00
  6.433764e+00    3.090441e+00
  6.449639e+00    3.034363e+00
  6.465515e+00    3.084968e+00
  6.481390e+00    3.130196e+00
  6.497266e+00    3.054571e+00
  6.513142e+00    3.042618e+00
  6.529017e+00    2.986998e+00
  6.544893e+00    3.027514e+00
  6.560768e+00    3.078083e+00
  6.576644e+00    3.074807e+00
  6.592519e+00    3.127069e+00
  6.608395e+00    3.059200e+00
  6.624271e+00    3.006700e+00
  6.640146e+00    3.035812e+00
  6.656022e+00    2.943787e+00
  6.671897e+00    3.055842e+00
  6.687773e+00    3.093662e+00
  6.703648e+00    3.120370e+00
  6.719524e+00    3.053225e+00
  6.735400e+00    3.083201e+00
  6.751275e+00    3.137661e+00
  6.767151e+00    3.031034e+00
  6.783026e+00    3.065543e+00
  6.798902e+00    3.107690e+00
  6.814777e+00    3.082286e+00
  6.830653e+00    3.073946e+00
  6.846529e+00    3.051016e+00
  6.862404e+00    3.075886e+00
  6.878280e+00    3.061554e+00
  6.894155e+00    3.071592e+00
  6.910031e+00    3.120063e+00
  6.925907e+00    3.082397e+00
  6.941782e+00    3.046420e+00
  6.957658e+00    3.018624e+00
  6.973533e+00    2.961921e+00
  6.989409e+00    2.971679e+00
  7.005284e+00    3.017055e+00
  7.021160e+00    3.040995e+00
  7.037036e+00    3.052540e+00
  7.052911e+00    2.990819e+00
  7.068787e+00    2.970007e+00
  7.084662e+00    3.107176e+00
  7.100538e+00    3.026879e+00
  7.116413e+00    3.017878e+00
  7.132289e+00    3.034598e+00
  7.148165e+00    3.055591e+00
  7.164040e+00    3.063962e+00
  7.179916e+00    3.096437e+00
  7.195791e+00    3.000544e+00
  7.211667e+00    2.982369e+00
  7.227542e+00    3.071258e+00
  7.243418e+00    3.007393e+00
  7.259294e+00    3.061345e+00
  7.275169e+00    3.038258e+00
  7.291045e+00    3.075870e+00
  7.306920e+00    3.045577e+00
  7.322796e+00    3.059268e+00
  7.338671e+00    3.019935e+00
  7.354547e+00    3.034051e+00
  7.370423e+00    3.060461e+00
  7.386298e+00    3.039135e+00
  7.402174e+00    3.101457e+00
  7.418049e+00    3.068951e+00
  7.433925e+00    3.013949e+00
  7.449800e+00    2.964030e+00
  7.465676e+00    2.973420e+00
  7.481552e+00    2.988885e+00
  7.497427e+00    3.041120e+00
  7.513303e+00    3.038530e+00
  7.529178e+00    3.017384e+00
  7.545054e+00    3.026735e+00
  7.560929e+00    3.018266e+00
  7.576805e+00    3.012030e+00
  7.592681e+00    3.077080e+00
  7.608556e+00    3.050968e+00
  7.624432e+00    3.017507e+00
  7.640307e+00    2.956621e+00
  7.656183e+00    2.998034e+00
  7.672058e+00    2.995315e+00
  7.687934e+00    2.999390e+00
  7.703810e+00    3.058488e+00
  7.719685e+00    3.056334e+00
  7.735561e+00    2.958678e+00
  7.751436e+00    2.936663e+00
  7.767312e+00    2.910817e+00
  7.783187e+00    3.005215e+00
  7.799063e+00    3.030302e+00
  7.814939e+00    3.010868e+00
  7.830814e+00    2.935132e+00
  7.846690e+00    2.903943e+00
  7.862565e+00    2.915229e+00
  7.878441e+00    2.985562e+00
  7.894317e+00    2.986107e+00
  7.910192e+00    2.943512e+00
  7.926068e+00    2.942769e+00
  7.941943e+00    2.978850e+00
  7.957819e+00    2.949167e+00
  7.973694e+00    2.923408e+00
  7.989570e+00    2.981465e+00
  8.005446e+00    2.947619e+00
  8.021321e+00    2.954358e+00
  8.037197e+00    2.932434e+00
  8.053072e+00    2.931196e+00
  8.068948e+00    2.958861e+00
  8.084823e+00    2.874022e+00
  8.100699e+00    2.925704e+00
  8.116575e+00    2.950191e+00
  8.132450e+00    2.961340e+00
  8.148326e+00    3.028111e+00
  8.164201e+00    3.007675e+00
  8.180077e+00    3.022410e+00
  8.195952e+00    2.992277e+00
  8.211828e+00    2.935985e+00
  8.227704e+00    2.907444e+00
  8.243579e+00    3.024250e+00
  8.259455e+00    2.960731e+00
  8.275330e+00    2.906706e+00
  8.291206e+00    2.899923e+00
  8.307081e+00    2.961228e+00
  8.322957e+00    2.949779e+00
  8.338833e+00    2.906875e+00
  8.354708e+00    2.890560e+00
  8.370584e+00    2.861942e+00
  8.386459e+00    2.832752e+00
  8.402335e+00    2.852626e+00
  8.418210e+00    2.855075e+00
  8.434086e+00    2.878967e+00
  8.449962e+00    2.881658e+00
  8.465837e+00    2.893426e+00
  8.481713e+00    2.873851e+00
  8.497588e+00    2.883868e+00
  8.513464e+00    2.928550e+00
  8.529339e+00    2.889058e+00
  8.545215e+00    2.889323e+00
  8.561091e+00    2.910039e+00
  8.576966e+00    2.918275e+00
  8.592842e+00    2.923494e+00
  8.608717e+00    2.897171e+00
  8.624593e+00    2.826933e+00
  8.640468e+00    2.823170e+00
  8.656344e+00    2.862589e+00
  8.672220e+00    2.890916e+00
  8.688095e+00    2.869254e+00
  8.703971e+00    2.857450e+00
  8.719846e+00    2.919456e+00
  8.735722e+00    2.864438e+00
  8.751598e+00    2.892028e+00
  8.767473e+00    2.873846e+00
  8.783349e+00    2.880571e+00
  8.799224e+00    2.923256e+00
  8.815100e+00    2.893487e+00
  8.830975e+00    2.870209e+00
  8.846851e+00    2.892674e+00
  8.862727e+00    2.858123e+00
  8.878602e+00    2.817367e+00
  8.894478e+00    2.910453e+00
  8.910353e+00    2.871952e+00
  8.926229e+00    2.859225e+00
  8.942104e+00    2.855467e+00
  8.957980e+00    2.852838e+00
  8.973856e+00    2.782394e+00
  8.989731e+00    2.748550e+00
  9.005607e+00    2.852517e+00
  9.021482e+00    2.865201e+00
  9.037358e+00    2.859508e+00
  9.053233e+00    2.811066e+00
  9.069109e+00    2.799117e+00
  9.084985e+00    2.810789e+00
  9.100860e+00    2.806606e+00
  9.116736e+00    2.823562e+00
  9.132611e+00    2.794326e+00
  9.148487e+00    2.803144e+00
  9.164362e+00    2.813381e+00
  9.180238e+00    2.818413e+00
  9.196114e+00    2.811136e+00
  9.211989e+00    2.821421e+00
  9.227865e+00    2.864460e+00
  9.243740e+00    2.778175e+00
  9.259616e+00    2.781278e+00
  9.275491e+00    2.767859e+00
  9.291367e+00    2.800555e+00
  9.307243e+00    2.811600e+00
  9.323118e+00    2.783615e+00
  9.338994e+00    2.793883e+00
  9.354869e+00    2.816876e+00
  9.370745e+00    2.772625e+00
  9.386620e+00    2.767643e+00
  9.402496e+00    2.755167e+00
  9.418372e+00    2.794719e+00
  9.434247e+00    2.781499e+00
  9.450123e+00    2.794374e+00
  9.465998e+00    2.812503e+00
  9.481874e+00    2.728543e+00
  9.497749e+00    2.742440e+00
  9.513625e+00    2.799607e+00
  9.529501e+00    2.805712e+00
  9.545376e+00    2.758826e+00
  9.561252e+00    2.790138e+00
  9.577127e+00    2.784875e+00
  9.593003e+00    2.759796e+00
  9.608878e+00    2.773292e+00
  9.624754e+00    2.825447e+00
  9.640630e+00    2.800328e+00
  9.656505e+00    2.720708e+00
  9.672381e+00    2.761370e+00
  9.688256e+00    2.772921e+00
  9.704132e+00    2.737669e+00
  9.720008e+00    2.735896e+00
  9.735883e+00    2.709287e+00
  9.751759e+00    2.750972e+00
  9.767634e+00    2.712965e+00
  9.783510e+00    2.686941e+00
  9.799385e+00    2.698542e+00
  9.815261e+00    2.694430e+00
  9.831137e+00    2.696552e+00
  9.847012e+00    2.726010e+00
  9.862888e+00    2.713400e+00
  9.878763e+00    2.700158e+00
  9.894639e+00    2.723901e+00
  9.910514e+00    2.704706e+00
  9.926390e+00    2.665999e+00
  9.942266e+00    2.725085e+00
  9.958141e+00    2.693405e+00
  9.974017e+00    2.688377e+00
  9.989892e+00    2.658034e+00
  1.000577e+01    2.691170e+00
  1.002164e+01    2.705407e+00
  1.003752e+01    2.659343e+00
  1.005339e+01    2.693079e+00
  1.006927e+01    2.668302e+00
  1.008515e+01    2.694025e+00
  1.010102e+01    2.694745e+00
  1.011690e+01    2.635061e+00
  1.013277e+01    2.617086e+00
  1.014865e+01    2.614077e+00
  1.016452e+01    2.631207e+00
  1.018040e+01    2.647645e+00
  1.019627e+01    2.583650e+00
  1.021215e+01    2.624730e+00
  1.022803e+01    2.646615e+00
  1.024390e+01    2.644327e+00
  1.025978e+01    2.654363e+00
  1.027565e+01    2.654119e+00
  1.029153e+01    2.645892e+00
  1.030740e+01    2.624294e+00
  1.032328e+01    2.601198e+00
  1.033915e+01    2.652710e+00
  1.035503e+01    2.637374e+00
  1.037091e+01    2.592595e+00
  1.038678e+01    2.551244e+00
  1.040266e+01    2.574265e+00
  1.041853e+01    2.601968e+00
  1.043441e+01    2.632661e+00
  1.045028e+01    2.612136e+00
  1.046616e+01    2.589475e+00
  1.048204e+01    2.634449e+00
  1.049791e+01    2.646043e+00
  1.051379e+01    2.653903e+00
  1.052966e+01    2.617026e+00
  1.054554e+01    2.551289e+00
  1.056141e+01    2.579685e+00
  1.057729e+01    2.606172e+00
  1.059316e+01    2.594407e+00
  1.060904e+01    2.644472e+00
  1.062492e+01    2.574893e+00
  1.064079e+01    2.557527e+00
  1.065667e+01    2.567352e+00
  1.067254e+01    2.617786e+00
  1.068842e+01    2.623609e+00
  1.070429e+01    2.618056e+00
  1.072017e+01    2.558625e+00
  1.073604e+01    2.540586e+00
  1.075192e+01    2.555388e+00
  1.076780e+01    2.570597e+00
  1.078367e+01    2.530446e+00
  1.079955e+01    2.525884e+00
  1.081542e+01    2.558045e+00
  1.083130e+01    2.548981e+00
  1.084717e+01    2.526104e+00
  1.086305e+01    2.533251e+00
  1.087892e+01    2.532440e+00
  1.089480e+01    2.577958e+00
  1.091068e+01    2.540604e+00
  1.092655e+01    2.532604e+00
  1.094243e+01    2.515040e+00
  1.095830e+01    2.515506e+00
  1.097418e+01    2.518295e+00
  1.099005e+01    2.523185e+00
  1.100593e+01    2.537445e+00
  1.102180e+01    2.497984e+00
  1.103768e+01    2.506547e+00
  1.105356e+01    2.517831e+00
  1.106943e+01    2.488220e+00
  1.108531e+01    2.486646e+00
  1.110118e+01    2.462502e+00
  1.111706e+01    2.453641e+00
  1.113293e+01    2.488287e+00
  1.114881e+01    2.480221e+00
  1.116468e+01    2.468102e+00
  1.118056e+01    2.465270e+00
  1.119644e+01    2.432625e+00
  1.121231e+01    2.444839e+00
  1.122819e+01    2.514282e+00
  1.124406e+01    2.539735e+00
  1.125994e+01    2.508075e+00
  1.127581e+01    2.498471e+00
  1.129169e+01    2.466183e+00
  1.130756e+01    2.427508e+00
  1.132344e+01    2.446048e+00
  1.133932e+01    2.487586e+00
  1.135519e+01    2.512273e+00
  1.137107e+01    2.475349e+00
  1.138694e+01    2.425306e+00
  1.140282e+01    2.446427e+00
  1.141869e+01    2.443892e+00
  1.143457e+01    2.419567e+00
  1.145045e+01    2.394087e+00
  1.146632e+01    2.398037e+00
  1.148220e+01    2.405610e+00
  1.149807e+01    2.414602e+00
  1.151395e+01    2.401747e+00
  1.152982e+01    2.438653e+00
  1.154570e+01    2.417204e+00
  1.156157e+01    2.367780e+00
  1.157745e+01    2.391663e+00
  1.159333e+01    2.422135e+00
  1.160920e+01    2.375970e+00
  1.162508e+01    2.403864e+00
  1.164095e+01    2.417107e+00
  1.165683e+01    2.390202e+00
  1.167270e+01    2.386185e+00
  1.168858e+01    2.378419e+00
  1.170445e+01    2.346300e+00
  1.172033e+01    2.337519e+00
  1.173621e+01    2.333258e+00
  1.175208e+01    2.398996e+00
  1.176796e+01    2.434829e+00
  1.178383e+01    2.403777e+00
  1.179971e+01    2.405548e+00
  1.181558e+01    2.380193e+00
  1.183146e+01    2.344599e+00
  1.184733e+01    2.346176e+00
  1.186321e+01    2.330890e+00
  1.187909e+01    2.357911e+00
  1.189496e+01    2.395452e+00
  1.191084e+01    2.399346e+00
  1.192671e+01    2.374962e+00
  1.194259e+01    2.383594e+00
  1.195846e+01    2.366315e+00
  1.197434e+01    2.318820e+00
  1.199021e+01    2.320336e+00
  1.200609e+01    2.329530e+00
  1.202197e+01    2.338390e+00
  1.203784e+01    2.378529e+00
  1.205372e+01    2.317643e+00
  1.206959e+01    2.337427e+00
  1.208547e+01    2.346162e+00
  1.210134e+01    2.353177e+00
  1.211722e+01    2.343385e+00
  1.213309e+01    2.347457e+00
  1.214897e+01    2.343289e+00
  1.216485e+01    2.303509e+00
  1.218072e+01    2.368048e+00
  1.219660e+01    2.383412e+00
  1.221247e+01    2.360627e+00
  1.222835e+01    2.366646e+00
  1.224422e+01    2.364982e+00
  1.226010e+01    2.336519e+00
  1.227597e+01    2.301557e+00
  1.229185e+01    2.309966e+00
  1.230773e+01    2.355390e+00
  1.232360e+01    2.351079e+00
  1.233948e+01    2.322480e+00
  1.235535e+01    2.305588e+00
  1.237123e+01    2.364240e+00
  1.238710e+01    2.354151e+00
  1.240298e+01    2.331496e+00
  1.241886e+01    2.377140e+00
  1.243473e+01    2.333913e+00
  1.245061e+01    2.367017e+00
  1.246648e+01    2.339510e+00
  1.248236e+01    2.336114e+00
  1.249823e+01    2.327653e+00
  1.251411e+01    2.367159e+00
  1.252998e+01    2.367392e+00
  1.254586e+01    2.396347e+00
  1.256174e+01    2.429155e+00
  1.257761e+01    2.402398e+00
  1.259349e+01    2.414698e+00
  1.260936e+01    2.384372e+00
  1.262524e+01    2.400455e+00
  1.264111e+01    2.432685e+00
  1.265699e+01    2.453070e+00
  1.267286e+01    2.467996e+00
  1.268874e+01    2.462395e+00
  1.270462e+01    2.472324e+00
  1.272049e+01    2.517457e+00
  1.273637e+01    2.555819e+00
  1.275224e+01    2.537025e+00
  1.276812e+01    2.523651e+00
  1.278399e+01    2.597737e+00
  1.279987e+01    2.717818e+00
  1.281574e+01    2.766713e+00
  1.283162e+01    2.799542e+00
  1.284750e+01    2.863521e+00
  1.286337e+01    2.929661e+00
  1.287925e+01    3.055189e+00
  1.289512e+01    3.133803e+00
  1.291100e+01    3.286038e+00
  1.292687e+01    3.529414e+00
  1.294275e+01    3.755562e+00
  1.295862e+01    4.084331e+00
  1.297450e+01    4.465403e+00
  1.299038e+01    4.928629e+00
  1.300625e+01    5.500546e+00
  1.302213e+01    6.256727e+00
  1.303800e+01    7.186192e+00
  1.305388e+01    8.250408e+00
  1.306975e+01    9.512096e+00
  1.308563e+01    1.085500e+01
  1.310150e+01    1.213538e+01
  1.311738e+01    1.327859e+01
  1.313326e+01    1.449415e+01
  1.314913e+01    1.565271e+01
  1.316501e+01    1.640261e+01
  1.318088e+01    1.663609e+01
  1.319676e+01    1.625095e+01
  1.321263e+01    1.512001e+01
  1.322851e+01    1.329672e+01
  1.324438e+01    1.129907e+01
  1.326026e+01    9.475774e+00
  1.327614e+01    8.015631e+00
  1.329201e+01    6.831166e+00
  1.330789e+01    5.933512e+00
  1.332376e+01    5.218477e+00
  1.333964e+01    4.700853e+00
  1.335551e+01    4.232138e+00
  1.337139e+01    3.960114e+00
  1.338727e+01    3.619251e+00
  1.340314e+01    3.341753e+00
  1.341902e+01    3.244872e+00
  1.343489e+01    3.138216e+00
  1.345077e+01    2.974744e+00
  1.346664e+01    2.887472e+00
  1.348252e+01    2.749756e+00
  1.349839e+01    2.681528e+00
  1.351427e+01    2.620685e+00
  1.353015e+01    2.556710e+00
  1.354602e+01    2.484632e+00
  1.356190e+01    2.476650e+00
  1.357777e+01    2.440584e+00
  1.359365e+01    2.362115e+00
  1.360952e+01    2.361502e+00
  1.362540e+01    2.340962e+00
  1.364127e+01    2.321248e+00
  1.365715e+01    2.292500e+00
  1.367303e+01    2.290908e+00
  1.368890e+01    2.254842e+00
  1.370478e+01    2.253081e+00
  1.372065e+01    2.209105e+00
  1.373653e+01    2.197392e+00
  1.375240e+01    2.180969e+00
  1.376828e+01    2.211355e+00
  1.378415e+01    2.212579e+00
  1.380003e+01    2.160415e+00
  1.381591e+01    2.110831e+00
  1.383178e+01    2.128664e+00
  1.384766e+01    2.116676e+00
  1.386353e+01    2.140348e+00
  1.387941e+01    2.122874e+00
  1.389528e+01    2.112670e+00
  1.391116e+01    2.128598e+00
  1.392703e+01    2.133181e+00
  1.394291e+01    2.070250e+00
  1.395879e+01    2.081160e+00
  1.397466e+01    2.048559e+00
  1.399054e+01    2.056553e+00
  1.400641e+01    2.054560e+00
  1.402229e+01    2.068760e+00
  1.403816e+01    2.065735e+00
  1.405404e+01    2.052616e+00
  1.406991e+01    2.055493e+00
  1.408579e+01    2.009537e+00
  1.410167e+01    2.006765e+00
  1.411754e+01    2.038151e+00
  1.413342e+01    2.003491e+00
  1.414929e+01    1.987010e+00
  1.416517e+01    1.983813e+00
  1.418104e+01    2.007160e+00
  1.419692e+01    1.998747e+00
  1.421279e+01    1.976692e+00
  1.422867e+01    1.994510e+00
  1.424455e+01    1.995849e+00
  1.426042e+01    1.972407e+00
  1.427630e+01    1.980319e+00
  1.429217e+01    1.964713e+00
  1.430805e+01    1.952405e+00
  1.432392e+01    1.968708e+00
  1.433980e+01    1.956779e+00
  1.435568e+01    1.956468e+00
  1.437155e+01    1.924276e+00
  1.438743e+01    1.980225e+00
  1.440330e+01    1.974281e+00
  1.441918e+01    1.933379e+00
  1.443505e+01    1.937451e+00
  1.445093e+01    1.966933e+00
  1.446680e+01    1.964953e+00
  1.448268e+01    1.936810e+00
  1.449856e+01    1.921796e+00
  1.451443e+01    1.932805e+00
  1.453031e+01    1.916057e+00
  1.454618e+01    1.898385e+00
  1.456206e+01    1.894459e+00
  1.457793e+01    1.935722e+00
  1.459381e+01    1.934839e+00
  1.460968e+01    1.903765e+00
  1.462556e+01    1.895980e+00
  1.464144e+01    1.908503e+00
  1.465731e+01    1.892377e+00
  1.467319e+01    1.906774e+00
  1.468906e+01    1.898258e+00
  1.470494e+01    1.889779e+00
  1.472081e+01    1.932697e+00
  1.473669e+01    1.961171e+00
  1.475256e+01    1.928930e+00
  1.476844e+01    1.914129e+00
  1.478432e+01    1.926362e+00
  1.480019e+01    1.933129e+00
  1.481607e+01    1.939335e+00
  1.483194e+01    1.932016e+00
  1.484782e+01    1.909624e+00
  1.486369e+01    1.946624e+00
  1.487957e+01    1.975210e+00
  1.489544e+01    1.984901e+00
  1.491132e+01    1.982515e+00
  1.492720e+01    1.953931e+00
  1.494307e+01    1.976104e+00
  1.495895e+01    2.053330e+00
  1.497482e+01    2.073072e+00
  1.499070e+01    2.145723e+00
  1.500657e+01    2.178408e+00
  1.502245e+01    2.243121e+00
  1.503832e+01    2.310733e+00
  1.505420e+01    2.441470e+00
  1.507008e+01    2.554113e+00
  1.508595e+01    2.705759e+00
  1.510183e+01    2.915001e+00
  1.511770e+01    3.156604e+00
  1.513358e+01    3.470095e+00
  1.514945e+01    3.843750e+00
  1.516533e+01    4.204807e+00
  1.518120e+01    4.584960e+00
  1.519708e+01    4.900750e+00
  1.521296e+01    5.139325e+00
  1.522883e+01    5.320473e+00
  1.524471e+01    5.540757e+00
  1.526058e+01    5.768384e+00
  1.527646e+01    5.787273e+00
  1.529233e+01    5.522431e+00
  1.530821e+01    5.199677e+00
  1.532409e+01    4.737651e+00
  1.533996e+01    4.237722e+00
  1.535584e+01    3.701235e+00
  1.537171e+01    3.272715e+00
  1.538759e+01    2.980867e+00
  1.540346e+01    2.793610e+00
  1.541934e+01    2.595482e+00
  1.543521e+01    2.432224e+00
  1.545109e+01    2.336404e+00
  1.546697e+01    2.206050e+00
  1.548284e+01    2.093345e+00
  1.549872e+01    2.043226e+00
  1.551459e+01    1.979358e+00
  1.553047e+01    1.920800e+00
  1.554634e+01    1.897519e+00
  1.556222e+01    1.869175e+00
  1.557809e+01    1.812681e+00
  1.559397e+01    1.810650e+00
  1.560985e+01    1.820633e+00
  1.562572e+01    1.788485e+00
  1.564160e+01    1.791228e+00
  1.565747e+01    1.786418e+00
  1.567335e+01    1.773132e+00
  1.568922e+01    1.789243e+00
  1.570510e+01    1.754848e+00
  1.572097e+01    1.754713e+00
  1.573685e+01    1.724797e+00
  1.575273e+01    1.717821e+00
  1.576860e+01    1.715103e+00
  1.578448e+01    1.729576e+00
  1.580035e+01    1.696560e+00
  1.581623e+01    1.683034e+00
  1.583210e+01    1.690265e+00
  1.584798e+01    1.702843e+00
  1.586385e+01    1.690821e+00
  1.587973e+01    1.704190e+00
  1.589561e+01    1.670853e+00
  1.591148e+01    1.646464e+00
  1.592736e+01    1.651658e+00
  1.594323e+01    1.634679e+00
  1.595911e+01    1.635868e+00
  1.597498e+01    1.642354e+00
  1.599086e+01    1.643763e+00
  1.600673e+01    1.626894e+00
  1.602261e+01    1.629908e+00
  1.603849e+01    1.621444e+00
  1.605436e+01    1.598761e+00
  1.607024e+01    1.586695e+00
  1.608611e+01    1.590907e+00
  1.610199e+01    1.598939e+00
  1.611786e+01    1.630996e+00
  1.613374e+01    1.612776e+00
  1.614961e+01    1.563307e+00
  1.616549e+01    1.584113e+00
  1.618137e+01    1.650607e+00
  1.619724e+01    1.618388e+00
  1.621312e+01    1.553735e+00
  1.622899e+01    1.550732e+00
  1.624487e+01    1.589951e+00
  1.626074e+01    1.559306e+00
  1.627662e+01    1.573946e+00
  1.629250e+01    1.578804e+00
  1.630837e+01    1.552994e+00
  1.632425e+01    1.568779e+00
  1.634012e+01    1.541052e+00
  1.635600e+01    1.524220e+00
  1.637187e+01    1.515538e+00
  1.638775e+01    1.504046e+00
  1.640362e+01    1.518211e+00
  1.641950e+01    1.523220e+00
  1.643538e+01    1.548719e+00
  1.645125e+01    1.516796e+00
  1.646713e+01    1.481300e+00
  1.648300e+01    1.531735e+00
  1.649888e+01    1.575365e+00
  1.651475e+01    1.531076e+00
  1.653063e+01    1.533582e+00
  1.654650e+01    1.497256e+00
  1.656238e+01    1.522457e+00
  1.657826e+01    1.533648e+00
  1.659413e+01    1.529727e+00
  1.661001e+01    1.499202e+00
  1.662588e+01    1.508297e+00
  1.664176e+01    1.488593e+00
  1.665763e+01    1.483975e+00
  1.667351e+01    1.495156e+00
  1.668938e+01    1.474906e+00
  1.670526e+01    1.501858e+00
  1.672114e+01    1.468595e+00
  1.673701e+01    1.487258e+00
  1.675289e+01    1.457886e+00
  1.676876e+01    1.497647e+00
  1.678464e+01    1.501092e+00
  1.680051e+01    1.472207e+00
  1.681639e+01    1.451585e+00
  1.683226e+01    1.446449e+00
  1.684814e+01    1.440733e+00
  1.686402e+01    1.472320e+00
  1.687989e+01    1.459433e+00
  1.689577e+01    1.453622e+00
  1.691164e+01    1.419841e+00
  1.692752e+01    1.460463e+00
  1.694339e+01    1.462227e+00
  1.695927e+01    1.432670e+00
  1.697514e+01    1.447685e+00
  1.699102e+01    1.447373e+00
  1.700690e+01    1.433430e+00
  1.702277e+01    1.408706e+00
  1.703865e+01    1.452012e+00
  1.705452e+01    1.453116e+00
  1.707040e+01    1.426626e+00
  1.708627e+01    1.435068e+00
  1.710215e+01    1.443670e+00
  1.711802e+01    1.434878e+00
  1.713390e+01    1.457677e+00
  1.714978e+01    1.450159e+00
  1.716565e+01    1.425644e+00
  1.718153e+01    1.421710e+00
  1.719740e+01    1.410409e+00
  1.721328e+01    1.405027e+00
  1.722915e+01    1.422606e+00
  1.724503e+01    1.428986e+00
  1.726091e+01    1.444321e+00
  1.727678e+01    1.447885e+00
  1.729266e+01    1.421254e+00
  1.730853e+01    1.403058e+00
  1.732441e+01    1.400871e+00
  1.734028e+01    1.430544e+00
  1.735616e+01    1.430808e+00
  1.737203e+01    1.416002e+00
  1.738791e+01    1.397385e+00
  1.740379e+01    1.389772e+00
  1.741966e+01    1.378782e+00
  1.743554e+01    1.369408e+00
  1.745141e+01    1.385310e+00
  1.746729e+01    1.397331e+00
  1.748316e+01    1.393615e+00
  1.749904e+01    1.367351e+00
  1.751491e+01    1.354095e+00
  1.753079e+01    1.362246e+00
  1.754667e+01    1.393079e+00
  1.756254e+01    1.387621e+00
  1.757842e+01    1.347851e+00
  1.759429e+01    1.350910e+00
  1.761017e+01    1.363640e+00
  1.762604e+01    1.371687e+00
  1.764192e+01    1.354833e+00
  1.765779e+01    1.353865e+00
  1.767367e+01    1.335331e+00
  1.768955e+01    1.364730e+00
  1.770542e+01    1.330521e+00
  1.772130e+01    1.322178e+00
  1.773717e+01    1.327089e+00
  1.775305e+01    1.338464e+00
  1.776892e+01    1.338209e+00
  1.778480e+01    1.319234e+00
  1.780067e+01    1.327408e+00
  1.781655e+01    1.340778e+00
  1.783243e+01    1.348300e+00
  1.784830e+01    1.336416e+00
  1.786418e+01    1.324328e+00
  1.788005e+01    1.327973e+00
  1.789593e+01    1.317857e+00
  1.791180e+01    1.341186e+00
  1.792768e+01    1.305652e+00
  1.794355e+01    1.326255e+00
  1.795943e+01    1.287945e+00
  1.797531e+01    1.318885e+00
  1.799118e+01    1.354027e+00
  1.800706e+01    1.296551e+00
  1.802293e+01    1.308435e+00
  1.803881e+01    1.282284e+00
  1.805468e+01    1.301849e+00
  1.807056e+01    1.276494e+00
  1.808643e+01    1.276105e+00
  1.810231e+01    1.282052e+00
  1.811819e+01    1.296364e+00
  1.813406e+01    1.315832e+00
  1.814994e+01    1.288523e+00
  1.816581e+01    1.296627e+00
  1.818169e+01    1.304293e+00
  1.819756e+01    1.282800e+00
  1.821344e+01    1.286596e+00
  1.822932e+01    1.296875e+00
  1.824519e+01    1.276409e+00
  1.826107e+01    1.264629e+00
  1.827694e+01    1.267369e+00
  1.829282e+01    1.272243e+00
  1.830869e+01    1.266614e+00
  1.832457e+01    1.282939e+00
  1.834044e+01    1.265678e+00
  1.835632e+01    1.275244e+00
  1.837220e+01    1.284544e+00
  1.838807e+01    1.281906e+00
  1.840395e+01    1.270030e+00
  1.841982e+01    1.255767e+00
  1.843570e+01    1.250908e+00
  1.845157e+01    1.243749e+00
  1.846745e+01    1.259018e+00
  1.848332e+01    1.263318e+00
  1.849920e+01    1.250237e+00
  1.851508e+01    1.261820e+00
  1.853095e+01    1.241094e+00
  1.854683e+01    1.258450e+00
  1.856270e+01    1.235834e+00
  1.857858e+01    1.217264e+00
  1.859445e+01    1.248317e+00
  1.861033e+01    1.250582e+00
  1.862620e+01    1.228702e+00
  1.864208e+01    1.240252e+00
  1.865796e+01    1.256505e+00
  1.867383e+01    1.240574e+00
  1.868971e+01    1.229103e+00
  1.870558e+01    1.261322e+00
  1.872146e+01    1.261469e+00
  1.873733e+01    1.237093e+00
  1.875321e+01    1.220589e+00
  1.876908e+01    1.227110e+00
  1.878496e+01    1.244532e+00
  1.880084e+01    1.244290e+00
  1.881671e+01    1.216442e+00
  1.883259e+01    1.233835e+00
  1.884846e+01    1.226932e+00
  1.886434e+01    1.206488e+00
  1.888021e+01    1.221487e+00
  1.889609e+01    1.243014e+00
  1.891196e+01    1.230536e+00
  1.892784e+01    1.228103e+00
  1.894372e+01    1.233835e+00
  1.895959e+01    1.231123e+00
  1.897547e+01    1.201765e+00
  1.899134e+01    1.194043e+00
  1.900722e+01    1.215264e+00
  1.902309e+01    1.227933e+00
  1.903897e+01    1.207477e+00
  1.905484e+01    1.207676e+00
  1.907072e+01    1.213439e+00
  1.908660e+01    1.201854e+00
  1.910247e+01    1.194168e+00
  1.911835e+01    1.179621e+00
  1.913422e+01    1.190363e+00
  1.915010e+01    1.200888e+00
  1.916597e+01    1.206135e+00
  1.918185e+01    1.203207e+00
  1.919773e+01    1.184157e+00
  1.921360e+01    1.193484e+00
  1.922948e+01    1.211492e+00
  1.924535e+01    1.216256e+00
  1.926123e+01    1.171030e+00
  1.927710e+01    1.165521e+00
  1.929298e+01    1.185207e+00
  1.930885e+01    1.202446e+00
  1.932473e+01    1.185413e+00
  1.934061e+01    1.193975e+00
  1.935648e+01    1.205319e+00
  1.937236e+01    1.184893e+00
  1.938823e+01    1.167684e+00
  1.940411e+01    1.174545e+00
  1.941998e+01    1.194922e+00
  1.943586e+01    1.195081e+00
  1.945173e+01    1.175312e+00
  1.946761e+01    1.155580e+00
  1.948349e+01    1.165963e+00
  1.949936e+01    1.157622e+00
  1.951524e+01    1.165959e+00
  1.953111e+01    1.171368e+00
  1.954699e+01    1.138888e+00
  1.956286e+01    1.163061e+00
  1.957874e+01    1.166312e+00
  1.959461e+01    1.153996e+00
  1.961049e+01    1.156638e+00
  1.962637e+01    1.158164e+00
  1.964224e+01    1.149078e+00
  1.965812e+01    1.152819e+00
  1.967399e+01    1.171486e+00
  1.968987e+01    1.171172e+00
  1.970574e+01    1.173533e+00
  1.972162e+01    1.146825e+00
  1.973749e+01    1.139365e+00
  1.975337e+01    1.137763e+00
  1.976925e+01    1.152877e+00
  1.978512e+01    1.140183e+00
  1.980100e+01    1.136407e+00
  1.981687e+01    1.154570e+00
  1.983275e+01    1.152084e+00
  1.984862e+01    1.123784e+00
  1.986450e+01    1.126004e+00
  1.988037e+01    1.153009e+00
  1.989625e+01    1.127949e+00
  1.991213e+01    1.102298e+00
  1.992800e+01    1.118115e+00
  1.994388e+01    1.121027e+00
  1.995975e+01    1.150559e+00
  1.997563e+01    1.108572e+00
  1.999150e+01    1.086766e+00
  2.000738e+01    1.100982e+00
  2.002325e+01    1.107572e+00
  2.003913e+01    1.090930e+00
  2.005501e+01    1.113129e+00
  2.007088e+01    1.099476e+00
  2.008676e+01    1.117760e+00
  2.010263e+01    1.125299e+00
  2.011851e+01    1.129767e+00
  2.013438e+01    1.116862e+00
  2.015026e+01    1.100365e+00
  2.016614e+01    1.122895e+00
  2.018201e+01    1.142633e+00
  2.019789e+01    1.136417e+00
  2.021376e+01    1.112388e+00
  2.022964e+01    1.101217e+00
  2.024551e+01    1.093217e+00
  2.026139e+01    1.112438e+00
  2.027726e+01    1.095396e+00
  2.029314e+01    1.096162e+00
  2.030902e+01    1.105825e+00
  2.032489e+01    1.118660e+00
  2.034077e+01    1.096683e+00
  2.035664e+01    1.092664e+00
  2.037252e+01    1.107602e+00
  2.038839e+01    1.099770e+00
  2.040427e+01    1.090133e+00
  2.042014e+01    1.082321e+00
  2.043602e+01    1.096627e+00
  2.045190e+01    1.087577e+00
  2.046777e+01    1.078312e+00
  2.048365e+01    1.080520e+00
  2.049952e+01    1.101829e+00
  2.051540e+01    1.106201e+00
  2.053127e+01    1.086825e+00
  2.054715e+01    1.085331e+00
  2.056302e+01    1.081690e+00
  2.057890e+01    1.108643e+00
  2.059478e+01    1.097587e+00
  2.061065e+01    1.085805e+00
  2.062653e+01    1.095724e+00
  2.064240e+01    1.118276e+00
  2.065828e+01    1.099952e+00
  2.067415e+01    1.083682e+00
  2.069003e+01    1.077753e+00
  2.070590e+01    1.077825e+00
  2.072178e+01    1.088619e+00
  2.073766e+01    1.097963e+00
  2.075353e+01    1.105163e+00
  2.076941e+01    1.106451e+00
  2.078528e+01    1.078162e+00
  2.080116e+01    1.066454e+00
  2.081703e+01    1.068099e+00
  2.083291e+01    1.081728e+00
  2.084878e+01    1.094672e+00
  2.086466e+01    1.102425e+00
  2.088054e+01    1.089318e+00
  2.089641e+01    1.090225e+00
  2.091229e+01    1.087190e+00
  2.092816e+01    1.085414e+00
  2.094404e+01    1.082314e+00
  2.095991e+01    1.066066e+00
  2.097579e+01    1.072889e+00
  2.099166e+01    1.068772e+00
  2.100754e+01    1.082324e+00
  2.102342e+01    1.069812e+00
  2.103929e+01    1.074682e+00
  2.105517e+01    1.067385e+00
  2.107104e+01    1.069006e+00
  2.108692e+01    1.100398e+00
  2.110279e+01    1.091933e+00
  2.111867e+01    1.099903e+00
  2.113455e+01    1.112598e+00
  2.115042e+01    1.079400e+00
  2.116630e+01    1.083855e+00
  2.118217e+01    1.109286e+00
  2.119805e+01    1.096473e+00
  2.121392e+01    1.103617e+00
  2.122980e+01    1.123343e+00
  2.124567e+01    1.110855e+00
  2.126155e+01    1.108890e+00
  2.127743e+01    1.119586e+00
  2.129330e+01    1.126696e+00
  2.130918e+01    1.135424e+00
  2.132505e+01    1.129260e+00
  2.134093e+01    1.108428e+00
  2.135680e+01    1.142217e+00
  2.137268e+01    1.181332e+00
  2.138855e+01    1.163949e+00
  2.140443e+01    1.188387e+00
  2.142031e+01    1.174837e+00
  2.143618e+01    1.189977e+00
  2.145206e+01    1.231339e+00
  2.146793e+01    1.247985e+00
  2.148381e+01    1.261874e+00
  2.149968e+01    1.290939e+00
  2.151556e+01    1.311347e+00
  2.153143e+01    1.353986e+00
  2.154731e+01    1.379929e+00
  2.156319e+01    1.410143e+00
  2.157906e+01    1.472581e+00
  2.159494e+01    1.519934e+00
  2.161081e+01    1.623441e+00
  2.162669e+01    1.735581e+00
  2.164256e+01    1.835325e+00
  2.165844e+01    1.949663e+00
  2.167431e+01    2.155338e+00
  2.169019e+01    2.375407e+00
  2.170607e+01    2.637012e+00
  2.172194e+01    2.922445e+00
  2.173782e+01    3.297632e+00
  2.175369e+01    3.821221e+00
  2.176957e+01    4.361040e+00
  2.178544e+01    4.964116e+00
  2.180132e+01    5.586592e+00
  2.181719e+01    6.235679e+00
  2.183307e+01    6.940251e+00
  2.184895e+01    7.620364e+00
  2.186482e+01    8.288801e+00
  2.188070e+01    8.838520e+00
  2.189657e+01    9.166720e+00
  2.191245e+01    9.157150e+00
  2.192832e+01    8.659225e+00
  2.194420e+01    7.961244e+00
  2.196007e+01    6.973858e+00
  2.197595e+01    6.028316e+00
  2.199183e+01    5.111485e+00
  2.200770e+01    4.309718e+00
  2.202358e+01    3.668201e+00
  2.203945e+01    3.163562e+00
  2.205533e+01    2.801768e+00
  2.207120e+01    2.506664e+00
  2.208708e+01    2.258333e+00
  2.210296e+01    2.112280e+00
  2.211883e+01    1.925394e+00
  2.213471e+01    1.778014e+00
  2.215058e+01    1.665025e+00
  2.216646e+01    1.576316e+00
  2.218233e+01    1.515711e+00
  2.219821e+01    1.452590e+00
  2.221408e+01    1.381231e+00
  2.222996e+01    1.350826e+00
  2.224584e+01    1.303606e+00
  2.226171e+01    1.269368e+00
  2.227759e+01    1.217719e+00
  2.229346e+01    1.196834e+00
  2.230934e+01    1.182231e+00
  2.232521e+01    1.153012e+00
  2.234109e+01    1.155553e+00
  2.235696e+01    1.136277e+00
  2.237284e+01    1.098723e+00
  2.238872e+01    1.093357e+00
  2.240459e+01    1.057981e+00
  2.242047e+01    1.053993e+00
  2.243634e+01    1.063768e+00
  2.245222e+01    1.036782e+00
  2.246809e+01    1.044368e+00
  2.248397e+01    1.012021e+00
  2.249984e+01    1.014176e+00
  2.251572e+01    1.020842e+00
  2.253160e+01    1.038478e+00
  2.254747e+01    1.020649e+00
  2.256335e+01    1.012423e+00
  2.257922e+01    1.002607e+00
  2.259510e+01    9.870526e-01
  2.261097e+01    9.824994e-01
  2.262685e+01    9.777614e-01
  2.264272e+01    9.676765e-01
  2.265860e+01    9.698760e-01
  2.267448e+01    9.817982e-01
  2.269035e+01    9.436307e-01
  2.270623e+01    9.355812e-01
  2.272210e+01    9.468812e-01
  2.273798e+01    9.464212e-01
  2.275385e+01    9.396275e-01
  2.276973e+01    9.448684e-01
  2.278560e+01    9.220089e-01
  2.280148e+01    9.333766e-01
  2.281736e+01    9.154568e-01
  2.283323e+01    9.308608e-01
  2.284911e+01    9.275665e-01
  2.286498e+01    9.317048e-01
  2.288086e+01    9.199187e-01
  2.289673e+01    9.372445e-01
  2.291261e+01    9.299798e-01
  2.292848e+01    9.249526e-01
  2.294436e+01    9.128774e-01
  2.296024e+01    8.881993e-01
  2.297611e+01    8.867229e-01
  2.299199e+01    8.953685e-01
  2.300786e+01    9.259206e-01
  2.302374e+01    9.156554e-01
  2.303961e+01    9.071938e-01
  2.305549e+01    9.065191e-01
  2.307137e+01    9.072363e-01
  2.308724e+01    8.899351e-01
  2.310312e+01    8.748818e-01
  2.311899e+01    8.896857e-01
  2.313487e+01    8.822427e-01
  2.315074e+01    8.950704e-01
  2.316662e+01    8.663602e-01
  2.318249e+01    8.671172e-01
  2.319837e+01    8.715250e-01
  2.321425e+01    8.912526e-01
  2.323012e+01    8.797603e-01
  2.324600e+01    8.913295e-01
  2.326187e+01    8.881565e-01
  2.327775e+01    8.924474e-01
  2.329362e+01    8.569112e-01
  2.330950e+01    8.550827e-01
  2.332537e+01    8.795921e-01
  2.334125e+01    8.689843e-01
  2.335713e+01    8.625875e-01
  2.337300e+01    8.435512e-01
  2.338888e+01    8.392438e-01
  2.340475e+01    8.562134e-01
  2.342063e+01    8.348140e-01
  2.343650e+01    8.524387e-01
  2.345238e+01    8.586363e-01
  2.346825e+01    8.448983e-01
  2.348413e+01    8.544748e-01
  2.350001e+01    8.807995e-01
  2.351588e+01    8.730825e-01
  2.353176e+01    8.596326e-01
  2.354763e+01    8.436925e-01
  2.356351e+01    8.486385e-01
  2.357938e+01    8.656395e-01
  2.359526e+01    8.458658e-01
  2.361113e+01    8.289780e-01
  2.362701e+01    8.335541e-01
  2.364289e+01    8.407060e-01
  2.365876e+01    8.360300e-01
  2.367464e+01    8.287182e-01
  2.369051e+01    8.351358e-01
  2.370639e+01    8.344038e-01
  2.372226e+01    8.495348e-01
  2.373814e+01    8.450468e-01
  2.375401e+01    8.287786e-01
  2.376989e+01    8.106600e-01
  2.378577e+01    8.328650e-01
  2.380164e+01    8.247114e-01
  2.381752e+01    8.068557e-01
  2.383339e+01    8.180987e-01
  2.384927e+01    8.097001e-01
  2.386514e+01    7.891553e-01
  2.388102e+01    8.015370e-01
  2.389689e+01    7.964402e-01
  2.391277e+01    8.110468e-01
  2.392865e+01    8.148208e-01
  2.394452e+01    8.250911e-01
  2.396040e+01    8.204489e-01
  2.397627e+01    7.814735e-01
  2.399215e+01    7.878894e-01
  2.400802e+01    7.878235e-01
  2.402390e+01    7.914923e-01
  2.403978e+01    7.990655e-01
  2.405565e+01    8.007051e-01
  2.407153e+01    8.058405e-01
  2.408740e+01    7.971881e-01
  2.410328e+01    7.873424e-01
  2.411915e+01    7.747472e-01
  2.413503e+01    7.900231e-01
  2.415090e+01    7.853091e-01
  2.416678e+01    7.849656e-01
  2.418266e+01    7.839710e-01
  2.419853e+01    7.754905e-01
  2.421441e+01    7.790580e-01
  2.423028e+01    7.899194e-01
  2.424616e+01    7.884303e-01
  2.426203e+01    7.832382e-01
  2.427791e+01    7.994668e-01
  2.429378e+01    7.987532e-01
  2.430966e+01    7.822837e-01
  2.432554e+01    7.794317e-01
  2.434141e+01    7.857543e-01
  2.435729e+01    7.830743e-01
  2.437316e+01    7.756704e-01
  2.438904e+01    7.768942e-01
  2.440491e+01    8.028530e-01
  2.442079e+01    8.077179e-01
  2.443666e+01    7.878198e-01
  2.445254e+01    7.859988e-01
  2.446842e+01    7.966585e-01
  2.448429e+01    8.028378e-01
  2.450017e+01    7.951557e-01
  2.451604e+01    7.975844e-01
  2.453192e+01    7.821948e-01
  2.454779e+01    7.686033e-01
  2.456367e+01    7.812400e-01
  2.457954e+01    7.734209e-01
  2.459542e+01    7.819476e-01
  2.461130e+01    7.849130e-01
  2.462717e+01    8.044756e-01
  2.464305e+01    8.155585e-01
  2.465892e+01    7.835681e-01
  2.467480e+01    7.821918e-01
  2.469067e+01    7.865784e-01
  2.470655e+01    8.066833e-01
  2.472242e+01    7.994161e-01
  2.473830e+01    7.900711e-01
  2.475418e+01    8.021544e-01
  2.477005e+01    7.835578e-01
  2.478593e+01    7.994453e-01
  2.480180e+01    7.999871e-01
  2.481768e+01    8.004758e-01
  2.483355e+01    8.105874e-01
  2.484943e+01    8.041469e-01
  2.486530e+01    8.077447e-01
  2.488118e+01    7.980081e-01
  2.489706e+01    8.056717e-01
  2.491293e+01    7.950135e-01
  2.492881e+01    7.760545e-01
  2.494468e+01    7.913213e-01
  2.496056e+01    7.965702e-01
  2.497643e+01    7.941091e-01
  2.499231e+01    8.097664e-01
  2.500819e+01    8.032225e-01
  2.502406e+01    8.029032e-01
  2.503994e+01    8.300188e-01
  2.505581e+01    8.247881e-01
  2.507169e+01    8.068218e-01
  2.508756e+01    8.065549e-01
  2.510344e+01    8.049760e-01
  2.511931e+01    8.127213e-01
  2.513519e+01    8.197546e-01
  2.515107e+01    8.121409e-01
  2.516694e+01    8.115662e-01
  2.518282e+01    8.307825e-01
  2.519869e+01    8.225786e-01
  2.521457e+01    8.396924e-01
  2.523044e+01    8.379396e-01
  2.524632e+01    8.511555e-01
  2.526219e+01    8.682512e-01
  2.527807e+01    8.525646e-01
  2.529395e+01    8.657393e-01
  2.530982e+01    8.493269e-01
  2.532570e+01    8.626316e-01
  2.534157e+01    8.709655e-01
  2.535745e+01    8.747898e-01
  2.537332e+01    8.759227e-01
  2.538920e+01    8.880727e-01
  2.540507e+01    8.923762e-01
  2.542095e+01    9.107456e-01
  2.543683e+01    9.156454e-01
  2.545270e+01    9.369040e-01
  2.546858e+01    9.614053e-01
  2.548445e+01    9.688352e-01
  2.550033e+01    9.396929e-01
  2.551620e+01    9.866543e-01
  2.553208e+01    1.007459e+00
  2.554795e+01    1.028347e+00
  2.556383e+01    1.044617e+00
  2.557971e+01    1.058091e+00
  2.559558e+01    1.100037e+00
  2.561146e+01    1.151693e+00
  2.562733e+01    1.179604e+00
  2.564321e+01    1.224098e+00
  2.565908e+01    1.274808e+00
  2.567496e+01    1.335644e+00
  2.569083e+01    1.412827e+00
  2.570671e+01    1.481253e+00
  2.572259e+01    1.619957e+00
  2.573846e+01    1.770593e+00
  2.575434e+01    1.941714e+00
  2.577021e+01    2.120107e+00
  2.578609e+01    2.339287e+00
  2.580196e+01    2.671475e+00
  2.581784e+01    3.017231e+00
  2.583371e+01    3.432568e+00
  2.584959e+01    3.920768e+00
  2.586547e+01    4.496259e+00
  2.588134e+01    5.060834e+00
  2.589722e+01    5.699732e+00
  2.591309e+01    6.311520e+00
  2.592897e+01    6.835024e+00
  2.594484e+01    7.278507e+00
  2.596072e+01    7.525949e+00
  2.597660e+01    7.468045e+00
  2.599247e+01    7.108765e+00
  2.600835e+01    6.573165e+00
  2.602422e+01    5.850698e+00
  2.604010e+01    5.078947e+00
  2.605597e+01    4.320744e+00
  2.607185e+01    3.695860e+00
  2.608772e+01    3.202556e+00
  2.610360e+01    2.775431e+00
  2.611948e+01    2.447362e+00
  2.613535e+01    2.174589e+00
  2.615123e+01    1.945318e+00
  2.616710e+01    1.791512e+00
  2.618298e+01    1.655967e+00
  2.619885e+01    1.538919e+00
  2.621473e+01    1.444562e+00
  2.623060e+01    1.378334e+00
  2.624648e+01    1.313462e+00
  2.626236e+01    1.234242e+00
  2.627823e+01    1.163882e+00
  2.629411e+01    1.160311e+00
  2.630998e+01    1.138592e+00
  2.632586e+01    1.083166e+00
  2.634173e+01    1.071784e+00
  2.635761e+01    1.041497e+00
  2.637348e+01    1.026024e+00
  2.638936e+01    9.896446e-01
  2.640524e+01    9.803061e-01
  2.642111e+01    9.807988e-01
  2.643699e+01    9.538311e-01
  2.645286e+01    9.490432e-01
  2.646874e+01    9.287737e-01
  2.648461e+01    9.101172e-01
  2.650049e+01    9.257065e-01
  2.651636e+01    9.441952e-01
  2.653224e+01    9.303139e-01
  2.654812e+01    9.161541e-01
  2.656399e+01    9.160694e-01
  2.657987e+01    9.099298e-01
  2.659574e+01    8.892504e-01
  2.661162e+01    8.823049e-01
  2.662749e+01    9.063063e-01
  2.664337e+01    8.934109e-01
  2.665924e+01    9.005411e-01
  2.667512e+01    9.010081e-01
  2.669100e+01    9.084920e-01
  2.670687e+01    8.974889e-01
  2.672275e+01    8.944053e-01
  2.673862e+01    8.707516e-01
  2.675450e+01    8.678483e-01
  2.677037e+01    8.811573e-01
  2.678625e+01    8.848612e-01
  2.680212e+01    8.961678e-01
  2.681800e+01    8.918197e-01
  2.683388e+01    9.151708e-01
  2.684975e+01    9.188654e-01
  2.686563e+01    9.050441e-01
  2.688150e+01    9.241933e-01
  2.689738e+01    9.204263e-01
  2.691325e+01    8.970215e-01
  2.692913e+01    9.373929e-01
  2.694501e+01    9.668806e-01
  2.696088e+01    9.778915e-01
  2.697676e+01    9.849949e-01
  2.699263e+01    1.021705e+00
  2.700851e+01    1.040895e+00
  2.702438e+01    1.043636e+00
  2.704026e+01    1.091664e+00
  2.705613e+01    1.145565e+00
  2.707201e+01    1.237152e+00
  2.708789e+01    1.309705e+00
  2.710376e+01    1.376945e+00
  2.711964e+01    1.498568e+00
  2.713551e+01    1.635571e+00
  2.715139e+01    1.779392e+00
  2.716726e+01    1.933830e+00
  2.718314e+01    2.037909e+00
  2.719901e+01    2.162413e+00
  2.721489e+01    2.250528e+00
  2.723077e+01    2.244679e+00
  2.724664e+01    2.189374e+00
  2.726252e+01    2.050118e+00
  2.727839e+01    1.906803e+00
  2.729427e+01    1.775333e+00
  2.731014e+01    1.610879e+00
  2.732602e+01    1.473717e+00
  2.734189e+01    1.361396e+00
  2.735777e+01    1.265297e+00
  2.737365e+01    1.179642e+00
  2.738952e+01    1.143111e+00
  2.740540e+01    1.094107e+00
  2.742127e+01    1.035451e+00
  2.743715e+01    1.010314e+00
  2.745302e+01    9.696544e-01
  2.746890e+01    9.439363e-01
  2.748477e+01    9.336744e-01
  2.750065e+01    9.140704e-01
  2.751653e+01    9.057662e-01
  2.753240e+01    9.082123e-01
  2.754828e+01    8.781081e-01
  2.756415e+01    8.722315e-01
  2.758003e+01    8.585956e-01
  2.759590e+01    8.546240e-01
  2.761178e+01    8.644782e-01
  2.762765e+01    8.478427e-01
  2.764353e+01    8.288988e-01
  2.765941e+01    8.369400e-01
  2.767528e+01    8.469320e-01
  2.769116e+01    8.399736e-01
  2.770703e+01    8.465956e-01
  2.772291e+01    8.370132e-01
  2.773878e+01    8.275204e-01
  2.775466e+01    8.263507e-01
  2.777054e+01    8.246759e-01
  2.778641e+01    8.136254e-01
  2.780229e+01    8.225024e-01
  2.781816e+01    8.145862e-01
  2.783404e+01    7.976038e-01
  2.784991e+01    7.746740e-01
  2.786579e+01    7.997894e-01
  2.788166e+01    7.974623e-01
  2.789754e+01    8.131007e-01
  2.791342e+01    8.187218e-01
  2.792929e+01    8.072366e-01
  2.794517e+01    7.993207e-01
  2.796104e+01    7.961755e-01
  2.797692e+01    7.781668e-01
  2.799279e+01    7.945291e-01
  2.800867e+01    7.880258e-01
  2.802454e+01    7.993240e-01
  2.804042e+01    8.013562e-01
  2.805630e+01    7.852532e-01
  2.807217e+01    7.739531e-01
  2.808805e+01    7.481894e-01
  2.810392e+01    7.666714e-01
  2.811980e+01    7.848490e-01
  2.813567e+01    7.722556e-01
  2.815155e+01    7.653755e-01
  2.816742e+01    7.663053e-01
  2.818330e+01    7.594804e-01
  2.819918e+01    7.605553e-01
  2.821505e+01    7.864850e-01
  2.823093e+01    7.733136e-01
  2.824680e+01    7.740675e-01
  2.826268e+01    7.795196e-01
  2.827855e+01    7.878367e-01
  2.829443e+01    7.710288e-01
  2.831030e+01    7.565871e-01
  2.832618e+01    7.576109e-01
  2.834206e+01    7.638711e-01
  2.835793e+01    7.628480e-01
  2.837381e+01    7.704995e-01
  2.838968e+01    7.793260e-01
  2.840556e+01    7.713559e-01
  2.842143e+01    7.686021e-01
  2.843731e+01    7.687136e-01
  2.845318e+01    7.686625e-01
  2.846906e+01    7.685537e-01
  2.848494e+01    7.628058e-01
  2.850081e+01    7.366060e-01
  2.851669e+01    7.384079e-01
  2.853256e+01    7.411728e-01
  2.854844e+01    7.588196e-01
  2.856431e+01    7.496502e-01
  2.858019e+01    7.680583e-01
  2.859606e+01    7.973815e-01
  2.861194e+01    7.634001e-01
  2.862782e+01    7.631528e-01
  2.864369e+01    7.613438e-01
  2.865957e+01    7.716848e-01
  2.867544e+01    7.414531e-01
  2.869132e+01    7.387457e-01
  2.870719e+01    7.696420e-01
  2.872307e+01    7.529463e-01
  2.873895e+01    7.409584e-01
  2.875482e+01    7.527761e-01
  2.877070e+01    7.312954e-01
  2.878657e+01    7.488728e-01
  2.880245e+01    7.510589e-01
  2.881832e+01    7.354329e-01
  2.883420e+01    7.167010e-01
  2.885007e+01    7.338635e-01
  2.886595e+01    7.264137e-01
  2.888183e+01    7.378225e-01
  2.889770e+01    7.449533e-01
  2.891358e+01    7.489477e-01
  2.892945e+01    7.613615e-01
  2.894533e+01    7.332789e-01
  2.896120e+01    7.523981e-01
  2.897708e+01    7.582228e-01
  2.899295e+01    7.402468e-01
  2.900883e+01    7.429056e-01
  2.902471e+01    7.467842e-01
  2.904058e+01    7.305945e-01
  2.905646e+01    7.462146e-01
  2.907233e+01    7.655937e-01
  2.908821e+01    7.256311e-01
  2.910408e+01    7.328959e-01
  2.911996e+01    7.375035e-01
  2.913583e+01    7.262192e-01
  2.915171e+01    7.391515e-01
  2.916759e+01    7.602933e-01
  2.918346e+01    7.361721e-01
  2.919934e+01    7.406140e-01
  2.921521e+01    7.283568e-01
  2.923109e+01    7.191283e-01
  2.924696e+01    7.262298e-01
  2.926284e+01    7.291498e-01
  2.927871e+01    7.420726e-01
  2.929459e+01    7.467971e-01
  2.931047e+01    7.338473e-01
  2.932634e+01    7.357991e-01
  2.934222e+01    7.213691e-01
  2.935809e+01    7.291622e-01
  2.937397e+01    7.439865e-01
  2.938984e+01    7.390905e-01
  2.940572e+01    7.112219e-01
  2.942159e+01    7.178847e-01
  2.943747e+01    7.216784e-01
  2.945335e+01    7.146280e-01
  2.946922e+01    7.199980e-01
  2.948510e+01    7.175415e-01
  2.950097e+01    7.433801e-01
  2.951685e+01    7.252808e-01
  2.953272e+01    7.143642e-01
  2.954860e+01    7.184014e-01
  2.956447e+01    7.169586e-01
  2.958035e+01    7.119973e-01
  2.959623e+01    7.383795e-01
  2.961210e+01    7.486553e-01
  2.962798e+01    7.502934e-01
  2.964385e+01    7.412283e-01
  2.965973e+01    7.302583e-01
  2.967560e+01    7.192947e-01
  2.969148e+01    7.086745e-01
  2.970736e+01    7.282240e-01
  2.972323e+01    7.141466e-01
  2.973911e+01    7.028141e-01
  2.975498e+01    7.053978e-01
  2.977086e+01    7.292198e-01
  2.978673e+01    7.142134e-01
  2.980261e+01    7.242314e-01
  2.981848e+01    7.044180e-01
  2.983436e+01    7.081355e-01
  2.985024e+01    7.204766e-01
  2.986611e+01    7.104080e-01
  2.988199e+01    7.115384e-01
  2.989786e+01    7.260175e-01
  2.991374e+01    7.234637e-01
  2.992961e+01    7.316266e-01
  2.994549e+01    7.314935e-01
  2.996136e+01    7.147991e-01
  2.997724e+01    7.312245e-01
  2.999312e+01    7.162326e-01
  3.000899e+01    7.260558e-01
  3.002487e+01    7.446748e-01
  3.004074e+01    7.473841e-01
  3.005662e+01    7.659675e-01
  3.007249e+01    7.441774e-01
  3.008837e+01    7.534074e-01
  3.010424e+01    7.432991e-01
  3.012012e+01    7.195795e-01
  3.013600e+01    7.172388e-01
  3.015187e+01    7.205405e-01
  3.016775e+01    7.049438e-01
  3.018362e+01    7.160782e-01
  3.019950e+01    7.060623e-01
  3.021537e+01    7.293621e-01
  3.023125e+01    7.176346e-01
  3.024712e+01    7.014455e-01
  3.026300e+01    7.273000e-01
  3.027888e+01    7.172903e-01
  3.029475e+01    7.133384e-01
  3.031063e+01    7.147059e-01
  3.032650e+01    7.110397e-01
  3.034238e+01    7.160594e-01
  3.035825e+01    7.199724e-01
  3.037413e+01    7.079303e-01
  3.039000e+01    7.254255e-01
  3.040588e+01    7.306524e-01
  3.042176e+01    7.223197e-01
  3.043763e+01    7.328570e-01
  3.045351e+01    7.096207e-01
  3.046938e+01    7.067671e-01
  3.048526e+01    7.058047e-01
  3.050113e+01    7.244074e-01
  3.051701e+01    7.276262e-01
  3.053288e+01    7.171937e-01
  3.054876e+01    7.167727e-01
  3.056464e+01    7.124643e-01
  3.058051e+01    7.017315e-01
  3.059639e+01    7.064399e-01
  3.061226e+01    7.067351e-01
  3.062814e+01    7.266462e-01
  3.064401e+01    7.264832e-01
  3.065989e+01    7.061900e-01
  3.067577e+01    7.046938e-01
  3.069164e+01    6.909990e-01
  3.070752e+01    7.031547e-01
  3.072339e+01    7.205896e-01
  3.073927e+01    7.228212e-01
  3.075514e+01    7.096244e-01
  3.077102e+01    7.015415e-01
  3.078689e+01    6.954536e-01
  3.080277e+01    7.148818e-01
  3.081865e+01    7.336429e-01
  3.083452e+01    7.127805e-01
  3.085040e+01    7.301794e-01
  3.086627e+01    7.272865e-01
  3.088215e+01    7.236308e-01
  3.089802e+01    7.294530e-01
  3.091390e+01    7.259237e-01
  3.092977e+01    7.235367e-01
  3.094565e+01    7.297454e-01
  3.096153e+01    7.260621e-01
  3.097740e+01    7.214248e-01
  3.099328e+01    7.070420e-01
  3.100915e+01    7.357437e-01
  3.102503e+01    7.071123e-01
  3.104090e+01    7.087758e-01
  3.105678e+01    6.987441e-01
  3.107265e+01    7.091397e-01
  3.108853e+01    7.250835e-01
  3.110441e+01    7.187849e-01
  3.112028e+01    7.259982e-01
  3.113616e+01    7.360603e-01
  3.115203e+01    7.293558e-01
  3.116791e+01    7.340524e-01
  3.118378e+01    7.265136e-01
  3.119966e+01    7.186670e-01
  3.121553e+01    7.047661e-01
  3.123141e+01    7.210000e-01
  3.124729e+01    7.173113e-01
  3.126316e+01    7.094955e-01
  3.127904e+01    7.316833e-01
  3.129491e+01    7.354138e-01
  3.131079e+01    7.362173e-01
  3.132666e+01    7.739975e-01
  3.134254e+01    7.594807e-01
  3.135841e+01    7.479877e-01
  3.137429e+01    7.533892e-01
  3.139017e+01    7.493131e-01
  3.140604e+01    7.469995e-01
  3.142192e+01    7.432528e-01
  3.143779e+01    7.367556e-01
  3.145367e+01    7.578933e-01
  3.146954e+01    7.561923e-01
  3.148542e+01    7.759207e-01
  3.150129e+01    7.891013e-01
  3.151717e+01    7.766368e-01
  3.153305e+01    7.692668e-01
  3.154892e+01    7.765794e-01
  3.156480e+01    8.012542e-01
  3.158067e+01    8.270260e-01
  3.159655e+01    7.994096e-01
  3.161242e+01    8.333622e-01
  3.162830e+01    8.672139e-01
  3.164418e+01    8.931903e-01
  3.166005e+01    8.798409e-01
  3.167593e+01    9.312724e-01
  3.169180e+01    9.186469e-01
  3.170768e+01    9.491684e-01
  3.172355e+01    1.007045e+00
  3.173943e+01    1.082350e+00
  3.175530e+01    1.131677e+00
  3.177118e+01    1.225015e+00
  3.178706e+01    1.301855e+00
  3.180293e+01    1.381450e+00
  3.181881e+01    1.528802e+00
  3.183468e+01    1.688719e+00
  3.185056e+01    1.801770e+00
  3.186643e+01    1.956727e+00
  3.188231e+01    2.083564e+00
  3.189818e+01    2.156350e+00
  3.191406e+01    2.183935e+00
  3.192994e+01    2.189867e+00
  3.194581e+01    2.087617e+00
  3.196169e+01    1.974696e+00
  3.197756e+01    1.787475e+00
  3.199344e+01    1.633384e+00
  3.200931e+01    1.470394e+00
  3.202519e+01    1.357993e+00
  3.204106e+01    1.220910e+00
  3.205694e+01    1.149470e+00
  3.207282e+01    1.098594e+00
  3.208869e+01    1.031672e+00
  3.210457e+01    9.908916e-01
  3.212044e+01    9.624889e-01
  3.213632e+01    8.967114e-01
  3.215219e+01    8.675729e-01
  3.216807e+01    8.454978e-01
  3.218394e+01    8.251075e-01
  3.219982e+01    8.239351e-01
  3.221570e+01    8.200654e-01
  3.223157e+01    8.016785e-01
  3.224745e+01    7.943443e-01
  3.226332e+01    7.841122e-01
  3.227920e+01    7.711380e-01
  3.229507e+01    7.708152e-01
  3.231095e+01    7.265286e-01
  3.232682e+01    7.432463e-01
  3.234270e+01    7.268206e-01
  3.235858e+01    7.355378e-01
  3.237445e+01    7.559503e-01
  3.239033e+01    7.420686e-01
  3.240620e+01    7.135220e-01
  3.242208e+01    7.379831e-01
  3.243795e+01    7.024117e-01
  3.245383e+01    7.028346e-01
  3.246970e+01    7.428770e-01
  3.248558e+01    7.437496e-01
  3.250146e+01    7.404739e-01
  3.251733e+01    7.481511e-01
  3.253321e+01    7.200979e-01
  3.254908e+01    7.068998e-01
