# == pyFAI calibration ==
# Distance Sample to Detector: 0.3999999939076516 m
# PONI: 9.750e-02, 1.135e-01 m
# Rotations: -0.000175 0.000000 -0.000000 rad
# 
# == Fit2d calibration ==
# Distance Sample-beamCenter: 400.000 mm
# Center: x=1514.000, y=1300.000 pix
# Tilt: 0.010 deg  TiltPlanRot: 0.010 deg
# 
# Detector Detector	 Spline= None	 PixelSize= 7.500e-05, 7.500e-05 m
#    Detector has a mask: False 
#    Detector has a dark current: False 
#    detector has a flat field: False 
# 
# Wavelength: 6.888e-11 m
# Mask applied: user provided
# Dark current applied: False
# Flat field applied: False
# Polarization factor: 0.99
# Normalization factor: 1.0
# --> /home/myspot/data/2024_07_Rosario/Ru-CGO-ex/2024-07-27_002_Ru-CGO-ex_Activtation_ramp_000002_data_000091.dat
#       q_nm^-1             I 
  2.003187e-02    0.000000e+00
  3.590745e-02    0.000000e+00
  5.178302e-02    5.340691e-02
  6.765859e-02    1.588071e-01
  8.353417e-02    7.164730e-02
  9.940974e-02    7.378236e-02
  1.152853e-01    4.256608e-02
  1.311609e-01    5.237543e-02
  1.470365e-01    7.785992e-04
  1.629120e-01    5.491113e-02
  1.787876e-01    1.634708e-01
  1.946632e-01    7.018501e-02
  2.105388e-01    2.725936e-02
  2.264143e-01    2.167900e-02
  2.422899e-01    5.581939e-03
  2.581655e-01    4.018082e-02
  2.740411e-01    7.374534e-02
  2.899166e-01    8.381078e-02
  3.057922e-01    8.684531e-02
  3.216678e-01    5.833282e-02
  3.375433e-01    9.710085e-03
  3.534189e-01    2.855854e-02
  3.692945e-01    4.509205e-02
  3.851701e-01    2.606114e-02
  4.010456e-01    3.069239e-02
  4.169212e-01    5.220838e-02
  4.327968e-01    4.243865e-02
  4.486724e-01    4.246370e-02
  4.645479e-01    3.413008e-02
  4.804235e-01    3.663547e-02
  4.962991e-01    6.049754e-02
  5.121747e-01    3.946270e-02
  5.280502e-01    3.516886e-02
  5.439258e-01    2.273317e-02
  5.598014e-01    2.948177e-02
  5.756770e-01    3.281309e-02
  5.915525e-01    3.088659e-02
  6.074281e-01    2.867335e-02
  6.233037e-01    1.096439e-02
  6.391793e-01    2.676702e-02
  6.550548e-01    5.100757e-02
  6.709304e-01    3.439296e-02
  6.868060e-01    2.325657e-02
  7.026815e-01    3.002481e-02
  7.185571e-01    6.230032e-02
  7.344327e-01    4.941370e-02
  7.503083e-01    4.807816e-02
  7.661838e-01    9.365217e-02
  7.820594e-01    1.430026e-01
  7.979350e-01    1.712815e-01
  8.138106e-01    1.652202e-01
  8.296861e-01    2.034087e-01
  8.455617e-01    3.062113e-01
  8.614373e-01    3.250376e-01
  8.773129e-01    4.231095e-01
  8.931884e-01    4.706220e-01
  9.090640e-01    5.117890e-01
  9.249396e-01    6.386783e-01
  9.408152e-01    7.610282e-01
  9.566907e-01    8.272192e-01
  9.725663e-01    9.775459e-01
  9.884419e-01    1.039387e+00
  1.004317e+00    1.050392e+00
  1.020193e+00    1.179260e+00
  1.036069e+00    1.178543e+00
  1.051944e+00    1.233819e+00
  1.067820e+00    1.278560e+00
  1.083695e+00    1.353865e+00
  1.099571e+00    1.373145e+00
  1.115446e+00    1.406778e+00
  1.131322e+00    1.375768e+00
  1.147198e+00    1.344602e+00
  1.163073e+00    1.515020e+00
  1.178949e+00    1.515789e+00
  1.194824e+00    1.602693e+00
  1.210700e+00    1.783583e+00
  1.226575e+00    1.993970e+00
  1.242451e+00    2.193176e+00
  1.258327e+00    2.275491e+00
  1.274202e+00    2.264683e+00
  1.290078e+00    2.462748e+00
  1.305953e+00    2.437031e+00
  1.321829e+00    2.360205e+00
  1.337705e+00    2.542618e+00
  1.353580e+00    2.648374e+00
  1.369456e+00    2.583339e+00
  1.385331e+00    2.589122e+00
  1.401207e+00    2.511582e+00
  1.417082e+00    2.579018e+00
  1.432958e+00    2.652894e+00
  1.448834e+00    2.704084e+00
  1.464709e+00    2.775284e+00
  1.480585e+00    2.865829e+00
  1.496460e+00    2.861468e+00
  1.512336e+00    2.948445e+00
  1.528211e+00    2.965137e+00
  1.544087e+00    2.903282e+00
  1.559963e+00    2.945591e+00
  1.575838e+00    2.822246e+00
  1.591714e+00    2.912514e+00
  1.607589e+00    2.909142e+00
  1.623465e+00    2.929954e+00
  1.639340e+00    2.983682e+00
  1.655216e+00    2.879364e+00
  1.671092e+00    2.895119e+00
  1.686967e+00    2.824634e+00
  1.702843e+00    2.748679e+00
  1.718718e+00    2.840979e+00
  1.734594e+00    2.854792e+00
  1.750469e+00    2.788072e+00
  1.766345e+00    2.839932e+00
  1.782221e+00    2.851164e+00
  1.798096e+00    2.732326e+00
  1.813972e+00    2.704278e+00
  1.829847e+00    2.597796e+00
  1.845723e+00    2.569619e+00
  1.861598e+00    2.594956e+00
  1.877474e+00    2.725766e+00
  1.893350e+00    2.754131e+00
  1.909225e+00    2.782342e+00
  1.925101e+00    2.635038e+00
  1.940976e+00    2.650881e+00
  1.956852e+00    2.764207e+00
  1.972727e+00    2.768539e+00
  1.988603e+00    2.723560e+00
  2.004479e+00    2.671929e+00
  2.020354e+00    2.724485e+00
  2.036230e+00    2.712852e+00
  2.052105e+00    2.815641e+00
  2.067981e+00    2.710136e+00
  2.083856e+00    2.685909e+00
  2.099732e+00    2.718700e+00
  2.115608e+00    2.696486e+00
  2.131483e+00    2.716705e+00
  2.147359e+00    2.666246e+00
  2.163234e+00    2.658174e+00
  2.179110e+00    2.794871e+00
  2.194985e+00    2.715990e+00
  2.210861e+00    2.705089e+00
  2.226737e+00    2.715426e+00
  2.242612e+00    2.681648e+00
  2.258488e+00    2.670731e+00
  2.274363e+00    2.670810e+00
  2.290239e+00    2.658556e+00
  2.306115e+00    2.606150e+00
  2.321990e+00    2.585211e+00
  2.337866e+00    2.561173e+00
  2.353741e+00    2.711721e+00
  2.369617e+00    2.786011e+00
  2.385492e+00    2.786602e+00
  2.401368e+00    2.899182e+00
  2.417244e+00    2.809012e+00
  2.433119e+00    2.719703e+00
  2.448995e+00    2.701623e+00
  2.464870e+00    2.701021e+00
  2.480746e+00    2.803614e+00
  2.496621e+00    2.851944e+00
  2.512497e+00    2.841372e+00
  2.528373e+00    2.843513e+00
  2.544248e+00    2.836011e+00
  2.560124e+00    2.824847e+00
  2.575999e+00    2.622444e+00
  2.591875e+00    2.753260e+00
  2.607750e+00    2.797988e+00
  2.623626e+00    2.840051e+00
  2.639502e+00    2.778327e+00
  2.655377e+00    2.708338e+00
  2.671253e+00    2.832297e+00
  2.687128e+00    2.766090e+00
  2.703004e+00    2.801389e+00
  2.718879e+00    2.844655e+00
  2.734755e+00    2.798343e+00
  2.750631e+00    2.735297e+00
  2.766506e+00    2.721920e+00
  2.782382e+00    2.724690e+00
  2.798257e+00    2.753328e+00
  2.814133e+00    2.839530e+00
  2.830008e+00    2.882748e+00
  2.845884e+00    2.767858e+00
  2.861760e+00    2.828791e+00
  2.877635e+00    2.856610e+00
  2.893511e+00    2.781901e+00
  2.909386e+00    2.735054e+00
  2.925262e+00    2.809084e+00
  2.941137e+00    2.839756e+00
  2.957013e+00    2.833105e+00
  2.972889e+00    2.809528e+00
  2.988764e+00    2.839852e+00
  3.004640e+00    2.881125e+00
  3.020515e+00    2.938148e+00
  3.036391e+00    2.807906e+00
  3.052266e+00    2.867325e+00
  3.068142e+00    2.894846e+00
  3.084018e+00    2.866587e+00
  3.099893e+00    2.881104e+00
  3.115769e+00    2.846904e+00
  3.131644e+00    2.843350e+00
  3.147520e+00    2.818901e+00
  3.163395e+00    2.886620e+00
  3.179271e+00    2.885944e+00
  3.195147e+00    2.997522e+00
  3.211022e+00    2.900072e+00
  3.226898e+00    2.840706e+00
  3.242773e+00    2.784850e+00
  3.258649e+00    2.902425e+00
  3.274525e+00    2.915523e+00
  3.290400e+00    2.826762e+00
  3.306276e+00    2.882733e+00
  3.322151e+00    2.801958e+00
  3.338027e+00    2.848855e+00
  3.353902e+00    2.822007e+00
  3.369778e+00    2.787122e+00
  3.385654e+00    2.948777e+00
  3.401529e+00    2.881548e+00
  3.417405e+00    2.857375e+00
  3.433280e+00    2.836512e+00
  3.449156e+00    2.837783e+00
  3.465031e+00    2.877853e+00
  3.480907e+00    2.934441e+00
  3.496783e+00    2.955136e+00
  3.512658e+00    3.029029e+00
  3.528534e+00    2.955885e+00
  3.544409e+00    2.927312e+00
  3.560285e+00    2.820758e+00
  3.576160e+00    2.824946e+00
  3.592036e+00    2.936092e+00
  3.607912e+00    2.973458e+00
  3.623787e+00    2.965087e+00
  3.639663e+00    3.038010e+00
  3.655538e+00    2.903486e+00
  3.671414e+00    2.909665e+00
  3.687289e+00    2.910509e+00
  3.703165e+00    2.969438e+00
  3.719041e+00    2.966716e+00
  3.734916e+00    2.980221e+00
  3.750792e+00    2.935176e+00
  3.766667e+00    2.913623e+00
  3.782543e+00    2.895100e+00
  3.798418e+00    2.873833e+00
  3.814294e+00    2.908557e+00
  3.830170e+00    2.988423e+00
  3.846045e+00    2.902550e+00
  3.861921e+00    2.905199e+00
  3.877796e+00    2.957303e+00
  3.893672e+00    2.924405e+00
  3.909547e+00    2.897712e+00
  3.925423e+00    2.936347e+00
  3.941299e+00    2.998812e+00
  3.957174e+00    2.904620e+00
  3.973050e+00    2.979978e+00
  3.988925e+00    2.958633e+00
  4.004801e+00    2.915853e+00
  4.020676e+00    2.948907e+00
  4.036552e+00    3.007232e+00
  4.052428e+00    2.959654e+00
  4.068303e+00    2.957150e+00
  4.084179e+00    2.916761e+00
  4.100054e+00    2.826633e+00
  4.115930e+00    2.872213e+00
  4.131806e+00    2.967038e+00
  4.147681e+00    2.981099e+00
  4.163557e+00    3.028031e+00
  4.179432e+00    2.966774e+00
  4.195308e+00    2.930508e+00
  4.211183e+00    2.930854e+00
  4.227059e+00    2.981246e+00
  4.242935e+00    3.053457e+00
  4.258810e+00    3.028652e+00
  4.274686e+00    3.053604e+00
  4.290561e+00    3.110520e+00
  4.306437e+00    3.040761e+00
  4.322312e+00    2.964995e+00
  4.338188e+00    2.854596e+00
  4.354064e+00    2.974847e+00
  4.369939e+00    3.024047e+00
  4.385815e+00    2.994780e+00
  4.401690e+00    3.011872e+00
  4.417566e+00    3.051631e+00
  4.433441e+00    3.026007e+00
  4.449317e+00    2.997216e+00
  4.465193e+00    2.961337e+00
  4.481068e+00    3.016119e+00
  4.496944e+00    3.007831e+00
  4.512819e+00    2.997828e+00
  4.528695e+00    3.058742e+00
  4.544570e+00    2.988773e+00
  4.560446e+00    2.966794e+00
  4.576322e+00    3.042314e+00
  4.592197e+00    3.078582e+00
  4.608073e+00    3.060129e+00
  4.623948e+00    3.034939e+00
  4.639824e+00    2.993787e+00
  4.655699e+00    3.082513e+00
  4.671575e+00    3.103031e+00
  4.687451e+00    3.014531e+00
  4.703326e+00    3.003079e+00
  4.719202e+00    3.029876e+00
  4.735077e+00    3.003222e+00
  4.750953e+00    3.061873e+00
  4.766828e+00    3.129483e+00
  4.782704e+00    3.081312e+00
  4.798580e+00    3.068873e+00
  4.814455e+00    3.062812e+00
  4.830331e+00    3.112198e+00
  4.846206e+00    3.069671e+00
  4.862082e+00    3.023512e+00
  4.877957e+00    3.091996e+00
  4.893833e+00    3.098752e+00
  4.909709e+00    3.130967e+00
  4.925584e+00    3.020752e+00
  4.941460e+00    3.010982e+00
  4.957335e+00    3.047264e+00
  4.973211e+00    3.092219e+00
  4.989086e+00    3.087262e+00
  5.004962e+00    3.034142e+00
  5.020838e+00    3.083273e+00
  5.036713e+00    3.134687e+00
  5.052589e+00    3.040210e+00
  5.068464e+00    3.042696e+00
  5.084340e+00    3.124537e+00
  5.100216e+00    3.153787e+00
  5.116091e+00    3.113106e+00
  5.131967e+00    3.052598e+00
  5.147842e+00    3.065859e+00
  5.163718e+00    3.053729e+00
  5.179593e+00    3.118993e+00
  5.195469e+00    3.087543e+00
  5.211345e+00    3.048720e+00
  5.227220e+00    3.123065e+00
  5.243096e+00    3.112411e+00
  5.258971e+00    3.062676e+00
  5.274847e+00    3.056422e+00
  5.290722e+00    3.047091e+00
  5.306598e+00    3.057134e+00
  5.322474e+00    2.986923e+00
  5.338349e+00    3.053429e+00
  5.354225e+00    3.105769e+00
  5.370100e+00    3.147384e+00
  5.385976e+00    3.172698e+00
  5.401851e+00    3.143918e+00
  5.417727e+00    3.075985e+00
  5.433603e+00    2.998915e+00
  5.449478e+00    3.021557e+00
  5.465354e+00    3.152526e+00
  5.481229e+00    2.999248e+00
  5.497105e+00    3.009027e+00
  5.512980e+00    2.996632e+00
  5.528856e+00    2.993604e+00
  5.544732e+00    2.975871e+00
  5.560607e+00    2.988748e+00
  5.576483e+00    3.000934e+00
  5.592358e+00    2.960766e+00
  5.608234e+00    2.901087e+00
  5.624109e+00    2.922717e+00
  5.639985e+00    2.935229e+00
  5.655861e+00    2.999755e+00
  5.671736e+00    3.032166e+00
  5.687612e+00    3.047097e+00
  5.703487e+00    3.007953e+00
  5.719363e+00    2.955123e+00
  5.735238e+00    2.914240e+00
  5.751114e+00    2.982571e+00
  5.766990e+00    2.969173e+00
  5.782865e+00    3.009183e+00
  5.798741e+00    3.035814e+00
  5.814616e+00    2.987669e+00
  5.830492e+00    2.987112e+00
  5.846367e+00    3.022917e+00
  5.862243e+00    3.027218e+00
  5.878119e+00    3.021891e+00
  5.893994e+00    3.018008e+00
  5.909870e+00    3.002328e+00
  5.925745e+00    2.957374e+00
  5.941621e+00    2.926103e+00
  5.957497e+00    2.980177e+00
  5.973372e+00    2.977593e+00
  5.989248e+00    2.952005e+00
  6.005123e+00    2.855649e+00
  6.020999e+00    2.926829e+00
  6.036874e+00    2.983639e+00
  6.052750e+00    3.030396e+00
  6.068626e+00    3.024333e+00
  6.084501e+00    3.074504e+00
  6.100377e+00    3.031228e+00
  6.116252e+00    3.112831e+00
  6.132128e+00    3.005481e+00
  6.148003e+00    2.956850e+00
  6.163879e+00    3.046852e+00
  6.179755e+00    3.077687e+00
  6.195630e+00    3.051749e+00
  6.211506e+00    3.031365e+00
  6.227381e+00    2.995367e+00
  6.243257e+00    3.002320e+00
  6.259132e+00    2.978571e+00
  6.275008e+00    2.995987e+00
  6.290884e+00    2.996511e+00
  6.306759e+00    2.989117e+00
  6.322635e+00    2.945539e+00
  6.338510e+00    2.971771e+00
  6.354386e+00    3.004626e+00
  6.370261e+00    3.026494e+00
  6.386137e+00    2.977555e+00
  6.402013e+00    2.965086e+00
  6.417888e+00    2.991938e+00
  6.433764e+00    2.978001e+00
  6.449639e+00    2.980658e+00
  6.465515e+00    3.007814e+00
  6.481390e+00    2.938257e+00
  6.497266e+00    2.980788e+00
  6.513142e+00    3.021737e+00
  6.529017e+00    3.005311e+00
  6.544893e+00    2.947128e+00
  6.560768e+00    2.894138e+00
  6.576644e+00    2.960019e+00
  6.592519e+00    2.990611e+00
  6.608395e+00    3.002533e+00
  6.624271e+00    2.995356e+00
  6.640146e+00    2.934070e+00
  6.656022e+00    2.951820e+00
  6.671897e+00    3.037965e+00
  6.687773e+00    2.996235e+00
  6.703648e+00    2.933526e+00
  6.719524e+00    2.968912e+00
  6.735400e+00    2.971792e+00
  6.751275e+00    2.966257e+00
  6.767151e+00    2.951363e+00
  6.783026e+00    2.970967e+00
  6.798902e+00    2.987007e+00
  6.814777e+00    3.070320e+00
  6.830653e+00    2.988354e+00
  6.846529e+00    2.992566e+00
  6.862404e+00    3.032902e+00
  6.878280e+00    3.008982e+00
  6.894155e+00    2.967941e+00
  6.910031e+00    2.948654e+00
  6.925907e+00    2.967541e+00
  6.941782e+00    2.905273e+00
  6.957658e+00    2.961210e+00
  6.973533e+00    3.021292e+00
  6.989409e+00    2.939723e+00
  7.005284e+00    2.901814e+00
  7.021160e+00    2.942084e+00
  7.037036e+00    2.943249e+00
  7.052911e+00    2.881273e+00
  7.068787e+00    2.932697e+00
  7.084662e+00    2.941465e+00
  7.100538e+00    2.958624e+00
  7.116413e+00    2.997396e+00
  7.132289e+00    2.968682e+00
  7.148165e+00    2.963634e+00
  7.164040e+00    2.961113e+00
  7.179916e+00    2.947480e+00
  7.195791e+00    2.960229e+00
  7.211667e+00    2.966244e+00
  7.227542e+00    2.965913e+00
  7.243418e+00    2.898600e+00
  7.259294e+00    2.906680e+00
  7.275169e+00    2.958470e+00
  7.291045e+00    2.895725e+00
  7.306920e+00    2.889416e+00
  7.322796e+00    2.928426e+00
  7.338671e+00    2.880440e+00
  7.354547e+00    2.901013e+00
  7.370423e+00    2.945689e+00
  7.386298e+00    2.909324e+00
  7.402174e+00    2.929842e+00
  7.418049e+00    2.938599e+00
  7.433925e+00    2.952591e+00
  7.449800e+00    2.916774e+00
  7.465676e+00    2.927114e+00
  7.481552e+00    2.965372e+00
  7.497427e+00    2.958852e+00
  7.513303e+00    2.915567e+00
  7.529178e+00    2.926145e+00
  7.545054e+00    2.960137e+00
  7.560929e+00    2.926260e+00
  7.576805e+00    2.907487e+00
  7.592681e+00    2.892831e+00
  7.608556e+00    2.909364e+00
  7.624432e+00    2.917365e+00
  7.640307e+00    2.880712e+00
  7.656183e+00    2.846263e+00
  7.672058e+00    2.832531e+00
  7.687934e+00    2.918208e+00
  7.703810e+00    2.869831e+00
  7.719685e+00    2.839273e+00
  7.735561e+00    2.917723e+00
  7.751436e+00    2.902290e+00
  7.767312e+00    2.938759e+00
  7.783187e+00    2.876217e+00
  7.799063e+00    2.898899e+00
  7.814939e+00    2.913800e+00
  7.830814e+00    2.878319e+00
  7.846690e+00    2.888715e+00
  7.862565e+00    2.861571e+00
  7.878441e+00    2.903432e+00
  7.894317e+00    2.880920e+00
  7.910192e+00    2.867390e+00
  7.926068e+00    2.857644e+00
  7.941943e+00    2.924566e+00
  7.957819e+00    2.949586e+00
  7.973694e+00    2.923927e+00
  7.989570e+00    2.946140e+00
  8.005446e+00    2.919147e+00
  8.021321e+00    2.860959e+00
  8.037197e+00    2.819801e+00
  8.053072e+00    2.824750e+00
  8.068948e+00    2.856983e+00
  8.084823e+00    2.825919e+00
  8.100699e+00    2.872247e+00
  8.116575e+00    2.894318e+00
  8.132450e+00    2.886923e+00
  8.148326e+00    2.919261e+00
  8.164201e+00    2.953680e+00
  8.180077e+00    2.892770e+00
  8.195952e+00    2.891907e+00
  8.211828e+00    2.864609e+00
  8.227704e+00    2.892198e+00
  8.243579e+00    2.948708e+00
  8.259455e+00    2.925057e+00
  8.275330e+00    2.853075e+00
  8.291206e+00    2.842470e+00
  8.307081e+00    2.796566e+00
  8.322957e+00    2.847863e+00
  8.338833e+00    2.905604e+00
  8.354708e+00    2.833874e+00
  8.370584e+00    2.844540e+00
  8.386459e+00    2.843816e+00
  8.402335e+00    2.825912e+00
  8.418210e+00    2.835542e+00
  8.434086e+00    2.863422e+00
  8.449962e+00    2.881708e+00
  8.465837e+00    2.867025e+00
  8.481713e+00    2.863159e+00
  8.497588e+00    2.834916e+00
  8.513464e+00    2.859978e+00
  8.529339e+00    2.891575e+00
  8.545215e+00    2.837160e+00
  8.561091e+00    2.862912e+00
  8.576966e+00    2.876376e+00
  8.592842e+00    2.827171e+00
  8.608717e+00    2.780810e+00
  8.624593e+00    2.794226e+00
  8.640468e+00    2.794688e+00
  8.656344e+00    2.775553e+00
  8.672220e+00    2.801641e+00
  8.688095e+00    2.799831e+00
  8.703971e+00    2.801284e+00
  8.719846e+00    2.834761e+00
  8.735722e+00    2.814326e+00
  8.751598e+00    2.790237e+00
  8.767473e+00    2.836312e+00
  8.783349e+00    2.838932e+00
  8.799224e+00    2.831108e+00
  8.815100e+00    2.815857e+00
  8.830975e+00    2.744722e+00
  8.846851e+00    2.765439e+00
  8.862727e+00    2.797345e+00
  8.878602e+00    2.772110e+00
  8.894478e+00    2.800655e+00
  8.910353e+00    2.836287e+00
  8.926229e+00    2.785535e+00
  8.942104e+00    2.809935e+00
  8.957980e+00    2.814373e+00
  8.973856e+00    2.761629e+00
  8.989731e+00    2.774554e+00
  9.005607e+00    2.770061e+00
  9.021482e+00    2.790272e+00
  9.037358e+00    2.803293e+00
  9.053233e+00    2.793513e+00
  9.069109e+00    2.754270e+00
  9.084985e+00    2.782467e+00
  9.100860e+00    2.775854e+00
  9.116736e+00    2.737988e+00
  9.132611e+00    2.777413e+00
  9.148487e+00    2.744326e+00
  9.164362e+00    2.747633e+00
  9.180238e+00    2.747868e+00
  9.196114e+00    2.779388e+00
  9.211989e+00    2.773587e+00
  9.227865e+00    2.687832e+00
  9.243740e+00    2.716218e+00
  9.259616e+00    2.775502e+00
  9.275491e+00    2.748466e+00
  9.291367e+00    2.723118e+00
  9.307243e+00    2.752592e+00
  9.323118e+00    2.711220e+00
  9.338994e+00    2.697582e+00
  9.354869e+00    2.761044e+00
  9.370745e+00    2.756128e+00
  9.386620e+00    2.742516e+00
  9.402496e+00    2.754640e+00
  9.418372e+00    2.792088e+00
  9.434247e+00    2.756279e+00
  9.450123e+00    2.661327e+00
  9.465998e+00    2.723055e+00
  9.481874e+00    2.793871e+00
  9.497749e+00    2.759977e+00
  9.513625e+00    2.721239e+00
  9.529501e+00    2.701812e+00
  9.545376e+00    2.681963e+00
  9.561252e+00    2.700604e+00
  9.577127e+00    2.688837e+00
  9.593003e+00    2.686411e+00
  9.608878e+00    2.718905e+00
  9.624754e+00    2.751861e+00
  9.640630e+00    2.722331e+00
  9.656505e+00    2.713342e+00
  9.672381e+00    2.660079e+00
  9.688256e+00    2.725530e+00
  9.704132e+00    2.718282e+00
  9.720008e+00    2.683520e+00
  9.735883e+00    2.649622e+00
  9.751759e+00    2.624445e+00
  9.767634e+00    2.656882e+00
  9.783510e+00    2.670545e+00
  9.799385e+00    2.682018e+00
  9.815261e+00    2.657808e+00
  9.831137e+00    2.634889e+00
  9.847012e+00    2.680377e+00
  9.862888e+00    2.662787e+00
  9.878763e+00    2.690724e+00
  9.894639e+00    2.664218e+00
  9.910514e+00    2.618278e+00
  9.926390e+00    2.655949e+00
  9.942266e+00    2.609818e+00
  9.958141e+00    2.629955e+00
  9.974017e+00    2.636531e+00
  9.989892e+00    2.611183e+00
  1.000577e+01    2.644128e+00
  1.002164e+01    2.636534e+00
  1.003752e+01    2.545464e+00
  1.005339e+01    2.556897e+00
  1.006927e+01    2.666774e+00
  1.008515e+01    2.662446e+00
  1.010102e+01    2.608593e+00
  1.011690e+01    2.572459e+00
  1.013277e+01    2.616025e+00
  1.014865e+01    2.692567e+00
  1.016452e+01    2.672087e+00
  1.018040e+01    2.656435e+00
  1.019627e+01    2.637942e+00
  1.021215e+01    2.605330e+00
  1.022803e+01    2.604189e+00
  1.024390e+01    2.587532e+00
  1.025978e+01    2.568423e+00
  1.027565e+01    2.593834e+00
  1.029153e+01    2.587099e+00
  1.030740e+01    2.583292e+00
  1.032328e+01    2.586061e+00
  1.033915e+01    2.598401e+00
  1.035503e+01    2.554881e+00
  1.037091e+01    2.523588e+00
  1.038678e+01    2.606814e+00
  1.040266e+01    2.600727e+00
  1.041853e+01    2.573622e+00
  1.043441e+01    2.598741e+00
  1.045028e+01    2.603721e+00
  1.046616e+01    2.607206e+00
  1.048204e+01    2.513903e+00
  1.049791e+01    2.489105e+00
  1.051379e+01    2.548378e+00
  1.052966e+01    2.543451e+00
  1.054554e+01    2.518058e+00
  1.056141e+01    2.547282e+00
  1.057729e+01    2.535861e+00
  1.059316e+01    2.566061e+00
  1.060904e+01    2.554620e+00
  1.062492e+01    2.573802e+00
  1.064079e+01    2.587474e+00
  1.065667e+01    2.537492e+00
  1.067254e+01    2.502313e+00
  1.068842e+01    2.473440e+00
  1.070429e+01    2.459533e+00
  1.072017e+01    2.518184e+00
  1.073604e+01    2.513017e+00
  1.075192e+01    2.525643e+00
  1.076780e+01    2.529587e+00
  1.078367e+01    2.527163e+00
  1.079955e+01    2.531724e+00
  1.081542e+01    2.528659e+00
  1.083130e+01    2.473489e+00
  1.084717e+01    2.471243e+00
  1.086305e+01    2.443259e+00
  1.087892e+01    2.469280e+00
  1.089480e+01    2.463639e+00
  1.091068e+01    2.469250e+00
  1.092655e+01    2.439804e+00
  1.094243e+01    2.460828e+00
  1.095830e+01    2.445510e+00
  1.097418e+01    2.444681e+00
  1.099005e+01    2.415785e+00
  1.100593e+01    2.423845e+00
  1.102180e+01    2.413049e+00
  1.103768e+01    2.390938e+00
  1.105356e+01    2.446272e+00
  1.106943e+01    2.484842e+00
  1.108531e+01    2.463533e+00
  1.110118e+01    2.433824e+00
  1.111706e+01    2.430924e+00
  1.113293e+01    2.436109e+00
  1.114881e+01    2.408287e+00
  1.116468e+01    2.427046e+00
  1.118056e+01    2.440081e+00
  1.119644e+01    2.427931e+00
  1.121231e+01    2.442600e+00
  1.122819e+01    2.441943e+00
  1.124406e+01    2.441444e+00
  1.125994e+01    2.431942e+00
  1.127581e+01    2.397227e+00
  1.129169e+01    2.382381e+00
  1.130756e+01    2.354335e+00
  1.132344e+01    2.384393e+00
  1.133932e+01    2.429678e+00
  1.135519e+01    2.429878e+00
  1.137107e+01    2.335127e+00
  1.138694e+01    2.387102e+00
  1.140282e+01    2.398898e+00
  1.141869e+01    2.386976e+00
  1.143457e+01    2.351029e+00
  1.145045e+01    2.387265e+00
  1.146632e+01    2.383628e+00
  1.148220e+01    2.345317e+00
  1.149807e+01    2.348312e+00
  1.151395e+01    2.360769e+00
  1.152982e+01    2.305610e+00
  1.154570e+01    2.324615e+00
  1.156157e+01    2.329149e+00
  1.157745e+01    2.363413e+00
  1.159333e+01    2.332410e+00
  1.160920e+01    2.328340e+00
  1.162508e+01    2.318290e+00
  1.164095e+01    2.324551e+00
  1.165683e+01    2.332826e+00
  1.167270e+01    2.398755e+00
  1.168858e+01    2.329511e+00
  1.170445e+01    2.350026e+00
  1.172033e+01    2.373069e+00
  1.173621e+01    2.404434e+00
  1.175208e+01    2.368169e+00
  1.176796e+01    2.331314e+00
  1.178383e+01    2.314566e+00
  1.179971e+01    2.288348e+00
  1.181558e+01    2.297405e+00
  1.183146e+01    2.329805e+00
  1.184733e+01    2.306736e+00
  1.186321e+01    2.292939e+00
  1.187909e+01    2.311239e+00
  1.189496e+01    2.284022e+00
  1.191084e+01    2.290080e+00
  1.192671e+01    2.277125e+00
  1.194259e+01    2.281064e+00
  1.195846e+01    2.271289e+00
  1.197434e+01    2.265401e+00
  1.199021e+01    2.283285e+00
  1.200609e+01    2.297034e+00
  1.202197e+01    2.305900e+00
  1.203784e+01    2.286912e+00
  1.205372e+01    2.293001e+00
  1.206959e+01    2.283054e+00
  1.208547e+01    2.246057e+00
  1.210134e+01    2.249634e+00
  1.211722e+01    2.262149e+00
  1.213309e+01    2.271792e+00
  1.214897e+01    2.304845e+00
  1.216485e+01    2.253512e+00
  1.218072e+01    2.326747e+00
  1.219660e+01    2.326854e+00
  1.221247e+01    2.280236e+00
  1.222835e+01    2.292525e+00
  1.224422e+01    2.316765e+00
  1.226010e+01    2.298378e+00
  1.227597e+01    2.296514e+00
  1.229185e+01    2.301270e+00
  1.230773e+01    2.307154e+00
  1.232360e+01    2.302789e+00
  1.233948e+01    2.275804e+00
  1.235535e+01    2.310125e+00
  1.237123e+01    2.313384e+00
  1.238710e+01    2.263345e+00
  1.240298e+01    2.270964e+00
  1.241886e+01    2.302568e+00
  1.243473e+01    2.342913e+00
  1.245061e+01    2.323941e+00
  1.246648e+01    2.326344e+00
  1.248236e+01    2.326545e+00
  1.249823e+01    2.295079e+00
  1.251411e+01    2.304501e+00
  1.252998e+01    2.274477e+00
  1.254586e+01    2.301080e+00
  1.256174e+01    2.329120e+00
  1.257761e+01    2.332818e+00
  1.259349e+01    2.358995e+00
  1.260936e+01    2.322699e+00
  1.262524e+01    2.320817e+00
  1.264111e+01    2.345915e+00
  1.265699e+01    2.378594e+00
  1.267286e+01    2.392482e+00
  1.268874e+01    2.401165e+00
  1.270462e+01    2.428100e+00
  1.272049e+01    2.500240e+00
  1.273637e+01    2.530366e+00
  1.275224e+01    2.534526e+00
  1.276812e+01    2.514418e+00
  1.278399e+01    2.523733e+00
  1.279987e+01    2.578529e+00
  1.281574e+01    2.618792e+00
  1.283162e+01    2.728356e+00
  1.284750e+01    2.814580e+00
  1.286337e+01    2.893598e+00
  1.287925e+01    3.001314e+00
  1.289512e+01    3.131331e+00
  1.291100e+01    3.246120e+00
  1.292687e+01    3.439764e+00
  1.294275e+01    3.660233e+00
  1.295862e+01    3.978167e+00
  1.297450e+01    4.317749e+00
  1.299038e+01    4.763040e+00
  1.300625e+01    5.321547e+00
  1.302213e+01    6.016112e+00
  1.303800e+01    6.883361e+00
  1.305388e+01    8.076934e+00
  1.306975e+01    9.312570e+00
  1.308563e+01    1.059507e+01
  1.310150e+01    1.197687e+01
  1.311738e+01    1.335592e+01
  1.313326e+01    1.460950e+01
  1.314913e+01    1.601399e+01
  1.316501e+01    1.720811e+01
  1.318088e+01    1.790840e+01
  1.319676e+01    1.796887e+01
  1.321263e+01    1.699485e+01
  1.322851e+01    1.533569e+01
  1.324438e+01    1.316725e+01
  1.326026e+01    1.100384e+01
  1.327614e+01    9.358130e+00
  1.329201e+01    7.898957e+00
  1.330789e+01    6.713238e+00
  1.332376e+01    5.869820e+00
  1.333964e+01    5.179524e+00
  1.335551e+01    4.631995e+00
  1.337139e+01    4.246762e+00
  1.338727e+01    3.905363e+00
  1.340314e+01    3.608653e+00
  1.341902e+01    3.366864e+00
  1.343489e+01    3.234149e+00
  1.345077e+01    3.089309e+00
  1.346664e+01    2.941493e+00
  1.348252e+01    2.842718e+00
  1.349839e+01    2.737425e+00
  1.351427e+01    2.610912e+00
  1.353015e+01    2.572293e+00
  1.354602e+01    2.553152e+00
  1.356190e+01    2.533620e+00
  1.357777e+01    2.428426e+00
  1.359365e+01    2.388539e+00
  1.360952e+01    2.354326e+00
  1.362540e+01    2.348115e+00
  1.364127e+01    2.289820e+00
  1.365715e+01    2.256071e+00
  1.367303e+01    2.255097e+00
  1.368890e+01    2.253244e+00
  1.370478e+01    2.238305e+00
  1.372065e+01    2.174216e+00
  1.373653e+01    2.178273e+00
  1.375240e+01    2.179636e+00
  1.376828e+01    2.193916e+00
  1.378415e+01    2.156277e+00
  1.380003e+01    2.147899e+00
  1.381591e+01    2.128878e+00
  1.383178e+01    2.104402e+00
  1.384766e+01    2.103105e+00
  1.386353e+01    2.107557e+00
  1.387941e+01    2.124555e+00
  1.389528e+01    2.084948e+00
  1.391116e+01    2.047052e+00
  1.392703e+01    2.055625e+00
  1.394291e+01    2.029829e+00
  1.395879e+01    2.086501e+00
  1.397466e+01    2.108035e+00
  1.399054e+01    2.085307e+00
  1.400641e+01    2.055292e+00
  1.402229e+01    2.019712e+00
  1.403816e+01    1.995462e+00
  1.405404e+01    1.980863e+00
  1.406991e+01    2.013986e+00
  1.408579e+01    1.981172e+00
  1.410167e+01    2.007432e+00
  1.411754e+01    1.967476e+00
  1.413342e+01    1.951655e+00
  1.414929e+01    1.969748e+00
  1.416517e+01    1.981365e+00
  1.418104e+01    1.946697e+00
  1.419692e+01    1.968596e+00
  1.421279e+01    1.982556e+00
  1.422867e+01    1.964860e+00
  1.424455e+01    1.957014e+00
  1.426042e+01    1.936910e+00
  1.427630e+01    1.937227e+00
  1.429217e+01    1.908672e+00
  1.430805e+01    1.938588e+00
  1.432392e+01    1.942013e+00
  1.433980e+01    1.907205e+00
  1.435568e+01    1.877430e+00
  1.437155e+01    1.899666e+00
  1.438743e+01    1.969504e+00
  1.440330e+01    1.954583e+00
  1.441918e+01    1.909220e+00
  1.443505e+01    1.910743e+00
  1.445093e+01    1.882486e+00
  1.446680e+01    1.911611e+00
  1.448268e+01    1.898871e+00
  1.449856e+01    1.904441e+00
  1.451443e+01    1.916283e+00
  1.453031e+01    1.869035e+00
  1.454618e+01    1.875771e+00
  1.456206e+01    1.890501e+00
  1.457793e+01    1.914189e+00
  1.459381e+01    1.877740e+00
  1.460968e+01    1.890699e+00
  1.462556e+01    1.895311e+00
  1.464144e+01    1.882286e+00
  1.465731e+01    1.909837e+00
  1.467319e+01    1.865949e+00
  1.468906e+01    1.878999e+00
  1.470494e+01    1.906688e+00
  1.472081e+01    1.894699e+00
  1.473669e+01    1.847979e+00
  1.475256e+01    1.849072e+00
  1.476844e+01    1.891777e+00
  1.478432e+01    1.884786e+00
  1.480019e+01    1.862828e+00
  1.481607e+01    1.871854e+00
  1.483194e+01    1.919373e+00
  1.484782e+01    1.888301e+00
  1.486369e+01    1.880424e+00
  1.487957e+01    1.884038e+00
  1.489544e+01    1.903815e+00
  1.491132e+01    1.914220e+00
  1.492720e+01    1.967886e+00
  1.494307e+01    1.971460e+00
  1.495895e+01    2.005856e+00
  1.497482e+01    2.007514e+00
  1.499070e+01    2.078822e+00
  1.500657e+01    2.167462e+00
  1.502245e+01    2.204353e+00
  1.503832e+01    2.223076e+00
  1.505420e+01    2.345331e+00
  1.507008e+01    2.426562e+00
  1.508595e+01    2.622823e+00
  1.510183e+01    2.814867e+00
  1.511770e+01    3.006259e+00
  1.513358e+01    3.299755e+00
  1.514945e+01    3.666129e+00
  1.516533e+01    4.060972e+00
  1.518120e+01    4.491055e+00
  1.519708e+01    4.857459e+00
  1.521296e+01    5.167897e+00
  1.522883e+01    5.504854e+00
  1.524471e+01    5.786597e+00
  1.526058e+01    5.966496e+00
  1.527646e+01    6.061719e+00
  1.529233e+01    5.979461e+00
  1.530821e+01    5.718204e+00
  1.532409e+01    5.270035e+00
  1.533996e+01    4.714744e+00
  1.535584e+01    4.160991e+00
  1.537171e+01    3.694531e+00
  1.538759e+01    3.289186e+00
  1.540346e+01    2.941984e+00
  1.541934e+01    2.758620e+00
  1.543521e+01    2.597040e+00
  1.545109e+01    2.441433e+00
  1.546697e+01    2.320541e+00
  1.548284e+01    2.159995e+00
  1.549872e+01    2.065056e+00
  1.551459e+01    2.012443e+00
  1.553047e+01    1.983741e+00
  1.554634e+01    1.940609e+00
  1.556222e+01    1.900663e+00
  1.557809e+01    1.863517e+00
  1.559397e+01    1.852652e+00
  1.560985e+01    1.811570e+00
  1.562572e+01    1.807136e+00
  1.564160e+01    1.778189e+00
  1.565747e+01    1.757102e+00
  1.567335e+01    1.729161e+00
  1.568922e+01    1.720723e+00
  1.570510e+01    1.744825e+00
  1.572097e+01    1.704939e+00
  1.573685e+01    1.656691e+00
  1.575273e+01    1.700151e+00
  1.576860e+01    1.688823e+00
  1.578448e+01    1.646086e+00
  1.580035e+01    1.666439e+00
  1.581623e+01    1.642168e+00
  1.583210e+01    1.636275e+00
  1.584798e+01    1.644099e+00
  1.586385e+01    1.635914e+00
  1.587973e+01    1.633758e+00
  1.589561e+01    1.640366e+00
  1.591148e+01    1.611242e+00
  1.592736e+01    1.610394e+00
  1.594323e+01    1.616750e+00
  1.595911e+01    1.610879e+00
  1.597498e+01    1.570986e+00
  1.599086e+01    1.579413e+00
  1.600673e+01    1.586029e+00
  1.602261e+01    1.588952e+00
  1.603849e+01    1.585622e+00
  1.605436e+01    1.568284e+00
  1.607024e+01    1.545073e+00
  1.608611e+01    1.542042e+00
  1.610199e+01    1.553748e+00
  1.611786e+01    1.567475e+00
  1.613374e+01    1.566931e+00
  1.614961e+01    1.554745e+00
  1.616549e+01    1.553046e+00
  1.618137e+01    1.558111e+00
  1.619724e+01    1.549806e+00
  1.621312e+01    1.536656e+00
  1.622899e+01    1.567608e+00
  1.624487e+01    1.557432e+00
  1.626074e+01    1.538491e+00
  1.627662e+01    1.532939e+00
  1.629250e+01    1.524362e+00
  1.630837e+01    1.559560e+00
  1.632425e+01    1.512027e+00
  1.634012e+01    1.529801e+00
  1.635600e+01    1.550066e+00
  1.637187e+01    1.533913e+00
  1.638775e+01    1.521883e+00
  1.640362e+01    1.524891e+00
  1.641950e+01    1.490639e+00
  1.643538e+01    1.500527e+00
  1.645125e+01    1.529597e+00
  1.646713e+01    1.503296e+00
  1.648300e+01    1.501408e+00
  1.649888e+01    1.504064e+00
  1.651475e+01    1.475984e+00
  1.653063e+01    1.479089e+00
  1.654650e+01    1.498871e+00
  1.656238e+01    1.476252e+00
  1.657826e+01    1.463002e+00
  1.659413e+01    1.491325e+00
  1.661001e+01    1.460467e+00
  1.662588e+01    1.408423e+00
  1.664176e+01    1.441206e+00
  1.665763e+01    1.468262e+00
  1.667351e+01    1.483756e+00
  1.668938e+01    1.430954e+00
  1.670526e+01    1.463493e+00
  1.672114e+01    1.474324e+00
  1.673701e+01    1.445299e+00
  1.675289e+01    1.447703e+00
  1.676876e+01    1.470060e+00
  1.678464e+01    1.447676e+00
  1.680051e+01    1.444386e+00
  1.681639e+01    1.448287e+00
  1.683226e+01    1.443775e+00
  1.684814e+01    1.429488e+00
  1.686402e+01    1.430847e+00
  1.687989e+01    1.428029e+00
  1.689577e+01    1.429341e+00
  1.691164e+01    1.417170e+00
  1.692752e+01    1.448703e+00
  1.694339e+01    1.414236e+00
  1.695927e+01    1.411762e+00
  1.697514e+01    1.414038e+00
  1.699102e+01    1.441115e+00
  1.700690e+01    1.421346e+00
  1.702277e+01    1.411911e+00
  1.703865e+01    1.412112e+00
  1.705452e+01    1.408669e+00
  1.707040e+01    1.406675e+00
  1.708627e+01    1.377344e+00
  1.710215e+01    1.410009e+00
  1.711802e+01    1.389051e+00
  1.713390e+01    1.395622e+00
  1.714978e+01    1.400695e+00
  1.716565e+01    1.397238e+00
  1.718153e+01    1.397249e+00
  1.719740e+01    1.420512e+00
  1.721328e+01    1.408588e+00
  1.722915e+01    1.394482e+00
  1.724503e+01    1.370694e+00
  1.726091e+01    1.399373e+00
  1.727678e+01    1.366837e+00
  1.729266e+01    1.354428e+00
  1.730853e+01    1.368121e+00
  1.732441e+01    1.382660e+00
  1.734028e+01    1.374827e+00
  1.735616e+01    1.360790e+00
  1.737203e+01    1.364341e+00
  1.738791e+01    1.369806e+00
  1.740379e+01    1.376934e+00
  1.741966e+01    1.364274e+00
  1.743554e+01    1.349478e+00
  1.745141e+01    1.392284e+00
  1.746729e+01    1.352677e+00
  1.748316e+01    1.337883e+00
  1.749904e+01    1.342500e+00
  1.751491e+01    1.336535e+00
  1.753079e+01    1.336323e+00
  1.754667e+01    1.337733e+00
  1.756254e+01    1.347646e+00
  1.757842e+01    1.323082e+00
  1.759429e+01    1.352506e+00
  1.761017e+01    1.328456e+00
  1.762604e+01    1.330248e+00
  1.764192e+01    1.336668e+00
  1.765779e+01    1.330405e+00
  1.767367e+01    1.316193e+00
  1.768955e+01    1.293440e+00
  1.770542e+01    1.332418e+00
  1.772130e+01    1.337803e+00
  1.773717e+01    1.322939e+00
  1.775305e+01    1.299877e+00
  1.776892e+01    1.286711e+00
  1.778480e+01    1.331128e+00
  1.780067e+01    1.329173e+00
  1.781655e+01    1.278116e+00
  1.783243e+01    1.286382e+00
  1.784830e+01    1.309849e+00
  1.786418e+01    1.340057e+00
  1.788005e+01    1.328714e+00
  1.789593e+01    1.300411e+00
  1.791180e+01    1.280567e+00
  1.792768e+01    1.263814e+00
  1.794355e+01    1.292732e+00
  1.795943e+01    1.313846e+00
  1.797531e+01    1.291440e+00
  1.799118e+01    1.284659e+00
  1.800706e+01    1.298462e+00
  1.802293e+01    1.261659e+00
  1.803881e+01    1.285584e+00
  1.805468e+01    1.255934e+00
  1.807056e+01    1.254291e+00
  1.808643e+01    1.278404e+00
  1.810231e+01    1.275378e+00
  1.811819e+01    1.262465e+00
  1.813406e+01    1.273519e+00
  1.814994e+01    1.283931e+00
  1.816581e+01    1.287699e+00
  1.818169e+01    1.272722e+00
  1.819756e+01    1.253100e+00
  1.821344e+01    1.258918e+00
  1.822932e+01    1.252165e+00
  1.824519e+01    1.256527e+00
  1.826107e+01    1.256910e+00
  1.827694e+01    1.255245e+00
  1.829282e+01    1.235873e+00
  1.830869e+01    1.246725e+00
  1.832457e+01    1.228222e+00
  1.834044e+01    1.234480e+00
  1.835632e+01    1.245334e+00
  1.837220e+01    1.234210e+00
  1.838807e+01    1.233464e+00
  1.840395e+01    1.239304e+00
  1.841982e+01    1.242319e+00
  1.843570e+01    1.242690e+00
  1.845157e+01    1.252687e+00
  1.846745e+01    1.237607e+00
  1.848332e+01    1.210437e+00
  1.849920e+01    1.236123e+00
  1.851508e+01    1.246518e+00
  1.853095e+01    1.258823e+00
  1.854683e+01    1.215427e+00
  1.856270e+01    1.210894e+00
  1.857858e+01    1.226792e+00
  1.859445e+01    1.213207e+00
  1.861033e+01    1.227651e+00
  1.862620e+01    1.247149e+00
  1.864208e+01    1.240396e+00
  1.865796e+01    1.224838e+00
  1.867383e+01    1.209273e+00
  1.868971e+01    1.200132e+00
  1.870558e+01    1.194824e+00
  1.872146e+01    1.217450e+00
  1.873733e+01    1.241869e+00
  1.875321e+01    1.230399e+00
  1.876908e+01    1.219501e+00
  1.878496e+01    1.203338e+00
  1.880084e+01    1.203808e+00
  1.881671e+01    1.184002e+00
  1.883259e+01    1.190726e+00
  1.884846e+01    1.188380e+00
  1.886434e+01    1.189407e+00
  1.888021e+01    1.188362e+00
  1.889609e+01    1.198066e+00
  1.891196e+01    1.208113e+00
  1.892784e+01    1.177804e+00
  1.894372e+01    1.184604e+00
  1.895959e+01    1.177870e+00
  1.897547e+01    1.190964e+00
  1.899134e+01    1.176193e+00
  1.900722e+01    1.182312e+00
  1.902309e+01    1.163350e+00
  1.903897e+01    1.163118e+00
  1.905484e+01    1.195018e+00
  1.907072e+01    1.193152e+00
  1.908660e+01    1.172836e+00
  1.910247e+01    1.165572e+00
  1.911835e+01    1.175348e+00
  1.913422e+01    1.181878e+00
  1.915010e+01    1.177716e+00
  1.916597e+01    1.182715e+00
  1.918185e+01    1.168195e+00
  1.919773e+01    1.157282e+00
  1.921360e+01    1.168813e+00
  1.922948e+01    1.170852e+00
  1.924535e+01    1.155069e+00
  1.926123e+01    1.150971e+00
  1.927710e+01    1.156429e+00
  1.929298e+01    1.162106e+00
  1.930885e+01    1.182986e+00
  1.932473e+01    1.167470e+00
  1.934061e+01    1.155553e+00
  1.935648e+01    1.152659e+00
  1.937236e+01    1.171940e+00
  1.938823e+01    1.136047e+00
  1.940411e+01    1.168990e+00
  1.941998e+01    1.174089e+00
  1.943586e+01    1.163912e+00
  1.945173e+01    1.129174e+00
  1.946761e+01    1.129302e+00
  1.948349e+01    1.132531e+00
  1.949936e+01    1.153094e+00
  1.951524e+01    1.154806e+00
  1.953111e+01    1.152822e+00
  1.954699e+01    1.146677e+00
  1.956286e+01    1.169223e+00
  1.957874e+01    1.161138e+00
  1.959461e+01    1.142552e+00
  1.961049e+01    1.140182e+00
  1.962637e+01    1.128685e+00
  1.964224e+01    1.131020e+00
  1.965812e+01    1.114266e+00
  1.967399e+01    1.128221e+00
  1.968987e+01    1.137113e+00
  1.970574e+01    1.120124e+00
  1.972162e+01    1.108598e+00
  1.973749e+01    1.125296e+00
  1.975337e+01    1.141595e+00
  1.976925e+01    1.133560e+00
  1.978512e+01    1.123768e+00
  1.980100e+01    1.127564e+00
  1.981687e+01    1.117476e+00
  1.983275e+01    1.096355e+00
  1.984862e+01    1.091553e+00
  1.986450e+01    1.109874e+00
  1.988037e+01    1.112409e+00
  1.989625e+01    1.126076e+00
  1.991213e+01    1.120488e+00
  1.992800e+01    1.127089e+00
  1.994388e+01    1.107621e+00
  1.995975e+01    1.111996e+00
  1.997563e+01    1.098699e+00
  1.999150e+01    1.099601e+00
  2.000738e+01    1.112677e+00
  2.002325e+01    1.119851e+00
  2.003913e+01    1.117276e+00
  2.005501e+01    1.107709e+00
  2.007088e+01    1.101728e+00
  2.008676e+01    1.100890e+00
  2.010263e+01    1.085074e+00
  2.011851e+01    1.102954e+00
  2.013438e+01    1.104740e+00
  2.015026e+01    1.114673e+00
  2.016614e+01    1.104091e+00
  2.018201e+01    1.094525e+00
  2.019789e+01    1.101543e+00
  2.021376e+01    1.100888e+00
  2.022964e+01    1.099096e+00
  2.024551e+01    1.094194e+00
  2.026139e+01    1.115785e+00
  2.027726e+01    1.096090e+00
  2.029314e+01    1.058926e+00
  2.030902e+01    1.092180e+00
  2.032489e+01    1.099424e+00
  2.034077e+01    1.089565e+00
  2.035664e+01    1.064516e+00
  2.037252e+01    1.062648e+00
  2.038839e+01    1.078199e+00
  2.040427e+01    1.071862e+00
  2.042014e+01    1.080876e+00
  2.043602e+01    1.075519e+00
  2.045190e+01    1.058756e+00
  2.046777e+01    1.067975e+00
  2.048365e+01    1.063110e+00
  2.049952e+01    1.068866e+00
  2.051540e+01    1.067794e+00
  2.053127e+01    1.079335e+00
  2.054715e+01    1.067130e+00
  2.056302e+01    1.067710e+00
  2.057890e+01    1.065615e+00
  2.059478e+01    1.062066e+00
  2.061065e+01    1.068483e+00
  2.062653e+01    1.081992e+00
  2.064240e+01    1.063246e+00
  2.065828e+01    1.049195e+00
  2.067415e+01    1.054779e+00
  2.069003e+01    1.036105e+00
  2.070590e+01    1.048849e+00
  2.072178e+01    1.044187e+00
  2.073766e+01    1.064846e+00
  2.075353e+01    1.043150e+00
  2.076941e+01    1.055160e+00
  2.078528e+01    1.055743e+00
  2.080116e+01    1.049068e+00
  2.081703e+01    1.048787e+00
  2.083291e+01    1.045176e+00
  2.084878e+01    1.081691e+00
  2.086466e+01    1.083486e+00
  2.088054e+01    1.056401e+00
  2.089641e+01    1.065813e+00
  2.091229e+01    1.069926e+00
  2.092816e+01    1.069237e+00
  2.094404e+01    1.043336e+00
  2.095991e+01    1.068105e+00
  2.097579e+01    1.072080e+00
  2.099166e+01    1.077417e+00
  2.100754e+01    1.068700e+00
  2.102342e+01    1.080462e+00
  2.103929e+01    1.081922e+00
  2.105517e+01    1.081944e+00
  2.107104e+01    1.084938e+00
  2.108692e+01    1.062642e+00
  2.110279e+01    1.072274e+00
  2.111867e+01    1.083763e+00
  2.113455e+01    1.064376e+00
  2.115042e+01    1.048960e+00
  2.116630e+01    1.047193e+00
  2.118217e+01    1.058872e+00
  2.119805e+01    1.079328e+00
  2.121392e+01    1.084282e+00
  2.122980e+01    1.070406e+00
  2.124567e+01    1.104212e+00
  2.126155e+01    1.106213e+00
  2.127743e+01    1.106094e+00
  2.129330e+01    1.100600e+00
  2.130918e+01    1.113679e+00
  2.132505e+01    1.143344e+00
  2.134093e+01    1.113553e+00
  2.135680e+01    1.122925e+00
  2.137268e+01    1.145238e+00
  2.138855e+01    1.155496e+00
  2.140443e+01    1.152402e+00
  2.142031e+01    1.220286e+00
  2.143618e+01    1.232814e+00
  2.145206e+01    1.196651e+00
  2.146793e+01    1.215480e+00
  2.148381e+01    1.246596e+00
  2.149968e+01    1.255753e+00
  2.151556e+01    1.297550e+00
  2.153143e+01    1.322589e+00
  2.154731e+01    1.362262e+00
  2.156319e+01    1.406928e+00
  2.157906e+01    1.469242e+00
  2.159494e+01    1.529382e+00
  2.161081e+01    1.548763e+00
  2.162669e+01    1.654384e+00
  2.164256e+01    1.751145e+00
  2.165844e+01    1.880337e+00
  2.167431e+01    2.008969e+00
  2.169019e+01    2.200477e+00
  2.170607e+01    2.415612e+00
  2.172194e+01    2.681403e+00
  2.173782e+01    3.042997e+00
  2.175369e+01    3.536183e+00
  2.176957e+01    4.034286e+00
  2.178544e+01    4.615699e+00
  2.180132e+01    5.230208e+00
  2.181719e+01    5.919920e+00
  2.183307e+01    6.681341e+00
  2.184895e+01    7.431867e+00
  2.186482e+01    8.280214e+00
  2.188070e+01    9.053854e+00
  2.189657e+01    9.633121e+00
  2.191245e+01    9.877680e+00
  2.192832e+01    9.776956e+00
  2.194420e+01    9.221399e+00
  2.196007e+01    8.480182e+00
  2.197595e+01    7.399399e+00
  2.199183e+01    6.341200e+00
  2.200770e+01    5.308515e+00
  2.202358e+01    4.516786e+00
  2.203945e+01    3.844284e+00
  2.205533e+01    3.326202e+00
  2.207120e+01    2.911601e+00
  2.208708e+01    2.626395e+00
  2.210296e+01    2.368639e+00
  2.211883e+01    2.140337e+00
  2.213471e+01    1.931935e+00
  2.215058e+01    1.788501e+00
  2.216646e+01    1.697275e+00
  2.218233e+01    1.592983e+00
  2.219821e+01    1.536156e+00
  2.221408e+01    1.442929e+00
  2.222996e+01    1.375702e+00
  2.224584e+01    1.328278e+00
  2.226171e+01    1.283022e+00
  2.227759e+01    1.265794e+00
  2.229346e+01    1.246879e+00
  2.230934e+01    1.216586e+00
  2.232521e+01    1.167870e+00
  2.234109e+01    1.147703e+00
  2.235696e+01    1.121314e+00
  2.237284e+01    1.105640e+00
  2.238872e+01    1.094142e+00
  2.240459e+01    1.086926e+00
  2.242047e+01    1.082098e+00
  2.243634e+01    1.085106e+00
  2.245222e+01    1.056380e+00
  2.246809e+01    1.053167e+00
  2.248397e+01    1.039110e+00
  2.249984e+01    1.052439e+00
  2.251572e+01    1.026017e+00
  2.253160e+01    1.004358e+00
  2.254747e+01    1.010661e+00
  2.256335e+01    1.001747e+00
  2.257922e+01    9.983559e-01
  2.259510e+01    9.666812e-01
  2.261097e+01    9.885693e-01
  2.262685e+01    9.697308e-01
  2.264272e+01    9.529701e-01
  2.265860e+01    9.454692e-01
  2.267448e+01    9.412367e-01
  2.269035e+01    9.474969e-01
  2.270623e+01    9.625158e-01
  2.272210e+01    9.416144e-01
  2.273798e+01    9.348736e-01
  2.275385e+01    9.451930e-01
  2.276973e+01    9.327445e-01
  2.278560e+01    9.226705e-01
  2.280148e+01    9.234045e-01
  2.281736e+01    9.285656e-01
  2.283323e+01    9.110563e-01
  2.284911e+01    9.216985e-01
  2.286498e+01    9.089257e-01
  2.288086e+01    9.216154e-01
  2.289673e+01    9.210910e-01
  2.291261e+01    9.040514e-01
  2.292848e+01    9.069301e-01
  2.294436e+01    9.029086e-01
  2.296024e+01    8.971431e-01
  2.297611e+01    8.964497e-01
  2.299199e+01    8.921856e-01
  2.300786e+01    8.787378e-01
  2.302374e+01    8.666280e-01
  2.303961e+01    8.758755e-01
  2.305549e+01    8.705003e-01
  2.307137e+01    8.741882e-01
  2.308724e+01    8.853617e-01
  2.310312e+01    8.719010e-01
  2.311899e+01    8.770427e-01
  2.313487e+01    8.933914e-01
  2.315074e+01    8.733528e-01
  2.316662e+01    8.575838e-01
  2.318249e+01    8.729023e-01
  2.319837e+01    8.778639e-01
  2.321425e+01    8.679091e-01
  2.323012e+01    8.628522e-01
  2.324600e+01    8.673722e-01
  2.326187e+01    8.504731e-01
  2.327775e+01    8.559768e-01
  2.329362e+01    8.523213e-01
  2.330950e+01    8.673385e-01
  2.332537e+01    8.509784e-01
  2.334125e+01    8.539407e-01
  2.335713e+01    8.649539e-01
  2.337300e+01    8.637399e-01
  2.338888e+01    8.442250e-01
  2.340475e+01    8.474693e-01
  2.342063e+01    8.544901e-01
  2.343650e+01    8.320249e-01
  2.345238e+01    8.338538e-01
  2.346825e+01    8.265236e-01
  2.348413e+01    8.113267e-01
  2.350001e+01    8.329735e-01
  2.351588e+01    8.129667e-01
  2.353176e+01    8.184854e-01
  2.354763e+01    8.314948e-01
  2.356351e+01    8.328987e-01
  2.357938e+01    8.294728e-01
  2.359526e+01    8.228868e-01
  2.361113e+01    8.315301e-01
  2.362701e+01    8.406870e-01
  2.364289e+01    8.429971e-01
  2.365876e+01    8.358488e-01
  2.367464e+01    8.150263e-01
  2.369051e+01    8.019081e-01
  2.370639e+01    7.921277e-01
  2.372226e+01    8.157118e-01
  2.373814e+01    8.147253e-01
  2.375401e+01    8.117608e-01
  2.376989e+01    8.462166e-01
  2.378577e+01    8.145963e-01
  2.380164e+01    8.040938e-01
  2.381752e+01    8.069578e-01
  2.383339e+01    7.923874e-01
  2.384927e+01    8.010221e-01
  2.386514e+01    8.010316e-01
  2.388102e+01    7.931617e-01
  2.389689e+01    7.837389e-01
  2.391277e+01    7.882664e-01
  2.392865e+01    7.924972e-01
  2.394452e+01    7.763368e-01
  2.396040e+01    8.022759e-01
  2.397627e+01    8.045423e-01
  2.399215e+01    7.936034e-01
  2.400802e+01    7.790073e-01
  2.402390e+01    7.891999e-01
  2.403978e+01    7.881447e-01
  2.405565e+01    7.699133e-01
  2.407153e+01    7.633617e-01
  2.408740e+01    7.827360e-01
  2.410328e+01    7.898617e-01
  2.411915e+01    7.975125e-01
  2.413503e+01    7.693634e-01
  2.415090e+01    7.815655e-01
  2.416678e+01    7.656546e-01
  2.418266e+01    7.691619e-01
  2.419853e+01    7.685829e-01
  2.421441e+01    7.778840e-01
  2.423028e+01    7.679852e-01
  2.424616e+01    7.791507e-01
  2.426203e+01    7.829943e-01
  2.427791e+01    7.670880e-01
  2.429378e+01    7.613897e-01
  2.430966e+01    7.904181e-01
  2.432554e+01    7.786880e-01
  2.434141e+01    7.966452e-01
  2.435729e+01    7.730873e-01
  2.437316e+01    7.821664e-01
  2.438904e+01    7.737544e-01
  2.440491e+01    7.837645e-01
  2.442079e+01    7.902732e-01
  2.443666e+01    7.792647e-01
  2.445254e+01    7.851090e-01
  2.446842e+01    7.935497e-01
  2.448429e+01    7.840885e-01
  2.450017e+01    7.824568e-01
  2.451604e+01    7.963896e-01
  2.453192e+01    7.907867e-01
  2.454779e+01    7.769898e-01
  2.456367e+01    7.639842e-01
  2.457954e+01    7.689555e-01
  2.459542e+01    7.850009e-01
  2.461130e+01    7.818266e-01
  2.462717e+01    7.640681e-01
  2.464305e+01    7.931701e-01
  2.465892e+01    8.088201e-01
  2.467480e+01    7.964953e-01
  2.469067e+01    8.028788e-01
  2.470655e+01    7.990236e-01
  2.472242e+01    7.778198e-01
  2.473830e+01    7.692258e-01
  2.475418e+01    7.801811e-01
  2.477005e+01    7.992010e-01
  2.478593e+01    7.830467e-01
  2.480180e+01    7.767077e-01
  2.481768e+01    7.730119e-01
  2.483355e+01    7.860563e-01
  2.484943e+01    7.948655e-01
  2.486530e+01    7.919888e-01
  2.488118e+01    7.902346e-01
  2.489706e+01    7.778819e-01
  2.491293e+01    8.000343e-01
  2.492881e+01    7.917939e-01
  2.494468e+01    7.818093e-01
  2.496056e+01    8.025636e-01
  2.497643e+01    7.972295e-01
  2.499231e+01    7.938334e-01
  2.500819e+01    7.934431e-01
  2.502406e+01    7.664917e-01
  2.503994e+01    7.792189e-01
  2.505581e+01    7.878934e-01
  2.507169e+01    8.001586e-01
  2.508756e+01    8.044744e-01
  2.510344e+01    8.113063e-01
  2.511931e+01    8.056215e-01
  2.513519e+01    7.942262e-01
  2.515107e+01    8.013357e-01
  2.516694e+01    8.311153e-01
  2.518282e+01    8.159661e-01
  2.519869e+01    8.173644e-01
  2.521457e+01    8.171624e-01
  2.523044e+01    8.255234e-01
  2.524632e+01    8.448467e-01
  2.526219e+01    8.572972e-01
  2.527807e+01    8.825125e-01
  2.529395e+01    8.554136e-01
  2.530982e+01    8.263489e-01
  2.532570e+01    8.571545e-01
  2.534157e+01    8.895477e-01
  2.535745e+01    8.651445e-01
  2.537332e+01    8.674337e-01
  2.538920e+01    8.872912e-01
  2.540507e+01    8.898815e-01
  2.542095e+01    8.993330e-01
  2.543683e+01    9.273846e-01
  2.545270e+01    9.288031e-01
  2.546858e+01    9.218162e-01
  2.548445e+01    9.297485e-01
  2.550033e+01    9.404685e-01
  2.551620e+01    9.545068e-01
  2.553208e+01    9.965753e-01
  2.554795e+01    1.017668e+00
  2.556383e+01    1.032369e+00
  2.557971e+01    1.056025e+00
  2.559558e+01    1.087911e+00
  2.561146e+01    1.089606e+00
  2.562733e+01    1.133239e+00
  2.564321e+01    1.201314e+00
  2.565908e+01    1.216901e+00
  2.567496e+01    1.294732e+00
  2.569083e+01    1.390713e+00
  2.570671e+01    1.458400e+00
  2.572259e+01    1.549554e+00
  2.573846e+01    1.642872e+00
  2.575434e+01    1.768192e+00
  2.577021e+01    1.937459e+00
  2.578609e+01    2.155029e+00
  2.580196e+01    2.439941e+00
  2.581784e+01    2.735819e+00
  2.583371e+01    3.101966e+00
  2.584959e+01    3.555347e+00
  2.586547e+01    4.078003e+00
  2.588134e+01    4.647617e+00
  2.589722e+01    5.332204e+00
  2.591309e+01    6.090257e+00
  2.592897e+01    6.783123e+00
  2.594484e+01    7.369094e+00
  2.596072e+01    7.857835e+00
  2.597660e+01    8.160280e+00
  2.599247e+01    8.140234e+00
  2.600835e+01    7.713539e+00
  2.602422e+01    7.167850e+00
  2.604010e+01    6.403590e+00
  2.605597e+01    5.547337e+00
  2.607185e+01    4.751565e+00
  2.608772e+01    4.007787e+00
  2.610360e+01    3.484271e+00
  2.611948e+01    3.003208e+00
  2.613535e+01    2.668844e+00
  2.615123e+01    2.347768e+00
  2.616710e+01    2.106593e+00
  2.618298e+01    1.931861e+00
  2.619885e+01    1.766505e+00
  2.621473e+01    1.591758e+00
  2.623060e+01    1.516901e+00
  2.624648e+01    1.429281e+00
  2.626236e+01    1.341596e+00
  2.627823e+01    1.283113e+00
  2.629411e+01    1.191061e+00
  2.630998e+01    1.139254e+00
  2.632586e+01    1.125071e+00
  2.634173e+01    1.092920e+00
  2.635761e+01    1.066379e+00
  2.637348e+01    1.050853e+00
  2.638936e+01    1.058053e+00
  2.640524e+01    9.994068e-01
  2.642111e+01    9.879481e-01
  2.643699e+01    9.859059e-01
  2.645286e+01    9.761196e-01
  2.646874e+01    9.657628e-01
  2.648461e+01    9.535083e-01
  2.650049e+01    9.638869e-01
  2.651636e+01    9.294500e-01
  2.653224e+01    9.409507e-01
  2.654812e+01    9.421530e-01
  2.656399e+01    9.034804e-01
  2.657987e+01    8.954473e-01
  2.659574e+01    9.072467e-01
  2.661162e+01    9.045234e-01
  2.662749e+01    8.943712e-01
  2.664337e+01    8.990752e-01
  2.665924e+01    8.751889e-01
  2.667512e+01    8.719847e-01
  2.669100e+01    8.796288e-01
  2.670687e+01    8.916970e-01
  2.672275e+01    9.043193e-01
  2.673862e+01    8.831540e-01
  2.675450e+01    8.805347e-01
  2.677037e+01    8.931847e-01
  2.678625e+01    8.851596e-01
  2.680212e+01    8.932103e-01
  2.681800e+01    9.000854e-01
  2.683388e+01    8.882808e-01
  2.684975e+01    8.874010e-01
  2.686563e+01    8.908875e-01
  2.688150e+01    8.979121e-01
  2.689738e+01    9.068371e-01
  2.691325e+01    9.319285e-01
  2.692913e+01    9.238788e-01
  2.694501e+01    9.441082e-01
  2.696088e+01    9.577416e-01
  2.697676e+01    9.527718e-01
  2.699263e+01    9.773083e-01
  2.700851e+01    1.006474e+00
  2.702438e+01    1.018025e+00
  2.704026e+01    1.078093e+00
  2.705613e+01    1.121995e+00
  2.707201e+01    1.165672e+00
  2.708789e+01    1.244743e+00
  2.710376e+01    1.321316e+00
  2.711964e+01    1.452954e+00
  2.713551e+01    1.568610e+00
  2.715139e+01    1.708267e+00
  2.716726e+01    1.811664e+00
  2.718314e+01    1.936010e+00
  2.719901e+01    2.128722e+00
  2.721489e+01    2.240189e+00
  2.723077e+01    2.345405e+00
  2.724664e+01    2.373889e+00
  2.726252e+01    2.297696e+00
  2.727839e+01    2.214103e+00
  2.729427e+01    2.061739e+00
  2.731014e+01    1.876843e+00
  2.732602e+01    1.716881e+00
  2.734189e+01    1.572455e+00
  2.735777e+01    1.444576e+00
  2.737365e+01    1.323390e+00
  2.738952e+01    1.210177e+00
  2.740540e+01    1.141173e+00
  2.742127e+01    1.111279e+00
  2.743715e+01    1.069253e+00
  2.745302e+01    1.011543e+00
  2.746890e+01    9.700414e-01
  2.748477e+01    9.890902e-01
  2.750065e+01    9.616540e-01
  2.751653e+01    9.249970e-01
  2.753240e+01    9.028404e-01
  2.754828e+01    8.890002e-01
  2.756415e+01    8.823062e-01
  2.758003e+01    8.962007e-01
  2.759590e+01    8.571688e-01
  2.761178e+01    8.342161e-01
  2.762765e+01    8.333817e-01
  2.764353e+01    8.508624e-01
  2.765941e+01    8.282081e-01
  2.767528e+01    8.392143e-01
  2.769116e+01    8.499517e-01
  2.770703e+01    8.336349e-01
  2.772291e+01    8.375793e-01
  2.773878e+01    8.196329e-01
  2.775466e+01    8.193010e-01
  2.777054e+01    8.138312e-01
  2.778641e+01    8.007981e-01
  2.780229e+01    8.049217e-01
  2.781816e+01    8.059346e-01
  2.783404e+01    8.071490e-01
  2.784991e+01    7.892628e-01
  2.786579e+01    8.029596e-01
  2.788166e+01    7.899483e-01
  2.789754e+01    7.865533e-01
  2.791342e+01    7.964397e-01
  2.792929e+01    7.917317e-01
  2.794517e+01    8.042824e-01
  2.796104e+01    7.769040e-01
  2.797692e+01    7.798359e-01
  2.799279e+01    8.022755e-01
  2.800867e+01    7.844279e-01
  2.802454e+01    7.780591e-01
  2.804042e+01    7.756343e-01
  2.805630e+01    8.073655e-01
  2.807217e+01    7.663032e-01
  2.808805e+01    7.753100e-01
  2.810392e+01    7.675367e-01
  2.811980e+01    7.550995e-01
  2.813567e+01    7.974492e-01
  2.815155e+01    7.763577e-01
  2.816742e+01    7.788272e-01
  2.818330e+01    7.575891e-01
  2.819918e+01    7.640762e-01
  2.821505e+01    7.669796e-01
  2.823093e+01    7.607092e-01
  2.824680e+01    7.796252e-01
  2.826268e+01    7.739655e-01
  2.827855e+01    7.633611e-01
  2.829443e+01    7.612712e-01
  2.831030e+01    7.667772e-01
  2.832618e+01    7.651133e-01
  2.834206e+01    7.738687e-01
  2.835793e+01    7.537705e-01
  2.837381e+01    7.578416e-01
  2.838968e+01    7.618561e-01
  2.840556e+01    7.655604e-01
  2.842143e+01    7.527755e-01
  2.843731e+01    7.456337e-01
  2.845318e+01    7.467850e-01
  2.846906e+01    7.405677e-01
  2.848494e+01    7.538447e-01
  2.850081e+01    7.685230e-01
  2.851669e+01    7.822051e-01
  2.853256e+01    7.714896e-01
  2.854844e+01    7.444118e-01
  2.856431e+01    7.539685e-01
  2.858019e+01    7.538877e-01
  2.859606e+01    7.475132e-01
  2.861194e+01    7.441213e-01
  2.862782e+01    7.416664e-01
  2.864369e+01    7.527933e-01
  2.865957e+01    7.440817e-01
  2.867544e+01    7.521139e-01
  2.869132e+01    7.577516e-01
  2.870719e+01    7.564230e-01
  2.872307e+01    7.324388e-01
  2.873895e+01    7.298889e-01
  2.875482e+01    7.368289e-01
  2.877070e+01    7.405710e-01
  2.878657e+01    7.403717e-01
  2.880245e+01    7.465372e-01
  2.881832e+01    7.344258e-01
  2.883420e+01    7.436894e-01
  2.885007e+01    7.340519e-01
  2.886595e+01    7.556629e-01
  2.888183e+01    7.562072e-01
  2.889770e+01    7.544461e-01
  2.891358e+01    7.592441e-01
  2.892945e+01    7.600377e-01
  2.894533e+01    7.311666e-01
  2.896120e+01    7.475962e-01
  2.897708e+01    7.235939e-01
  2.899295e+01    7.286183e-01
  2.900883e+01    7.506185e-01
  2.902471e+01    7.444176e-01
  2.904058e+01    7.251866e-01
  2.905646e+01    7.252684e-01
  2.907233e+01    7.161333e-01
  2.908821e+01    7.012208e-01
  2.910408e+01    7.361454e-01
  2.911996e+01    7.275255e-01
  2.913583e+01    7.343639e-01
  2.915171e+01    7.524374e-01
  2.916759e+01    7.296758e-01
  2.918346e+01    7.554644e-01
  2.919934e+01    7.250320e-01
  2.921521e+01    7.137821e-01
  2.923109e+01    7.253847e-01
  2.924696e+01    7.091746e-01
  2.926284e+01    7.142760e-01
  2.927871e+01    7.020777e-01
  2.929459e+01    7.228509e-01
  2.931047e+01    7.461472e-01
  2.932634e+01    7.402481e-01
  2.934222e+01    7.459646e-01
  2.935809e+01    7.214048e-01
  2.937397e+01    7.232948e-01
  2.938984e+01    7.288101e-01
  2.940572e+01    7.375413e-01
  2.942159e+01    7.294410e-01
  2.943747e+01    7.229486e-01
  2.945335e+01    7.198657e-01
  2.946922e+01    7.013270e-01
  2.948510e+01    7.289578e-01
  2.950097e+01    7.292617e-01
  2.951685e+01    7.314930e-01
  2.953272e+01    7.172961e-01
  2.954860e+01    7.134299e-01
  2.956447e+01    7.087049e-01
  2.958035e+01    7.186542e-01
  2.959623e+01    7.298383e-01
  2.961210e+01    7.180070e-01
  2.962798e+01    7.228604e-01
  2.964385e+01    7.048022e-01
  2.965973e+01    6.968757e-01
  2.967560e+01    7.167849e-01
  2.969148e+01    7.362463e-01
  2.970736e+01    7.147397e-01
  2.972323e+01    6.888177e-01
  2.973911e+01    7.162899e-01
  2.975498e+01    7.329767e-01
  2.977086e+01    7.071127e-01
  2.978673e+01    7.030792e-01
  2.980261e+01    7.112799e-01
  2.981848e+01    7.313539e-01
  2.983436e+01    7.189384e-01
  2.985024e+01    6.842731e-01
  2.986611e+01    7.096399e-01
  2.988199e+01    7.081058e-01
  2.989786e+01    7.057769e-01
  2.991374e+01    6.996865e-01
  2.992961e+01    7.031757e-01
  2.994549e+01    7.122549e-01
  2.996136e+01    7.113176e-01
  2.997724e+01    7.139908e-01
  2.999312e+01    7.109416e-01
  3.000899e+01    7.337651e-01
  3.002487e+01    7.180521e-01
  3.004074e+01    7.250162e-01
  3.005662e+01    7.237422e-01
  3.007249e+01    7.176985e-01
  3.008837e+01    7.095426e-01
  3.010424e+01    7.162984e-01
  3.012012e+01    7.190402e-01
  3.013600e+01    7.049369e-01
  3.015187e+01    7.183484e-01
  3.016775e+01    7.017189e-01
  3.018362e+01    7.123994e-01
  3.019950e+01    7.053902e-01
  3.021537e+01    7.026632e-01
  3.023125e+01    7.117633e-01
  3.024712e+01    7.291220e-01
  3.026300e+01    7.210985e-01
  3.027888e+01    7.142460e-01
  3.029475e+01    7.185209e-01
  3.031063e+01    7.054563e-01
  3.032650e+01    7.136486e-01
  3.034238e+01    7.159679e-01
  3.035825e+01    7.044312e-01
  3.037413e+01    7.129006e-01
  3.039000e+01    7.115511e-01
  3.040588e+01    7.060671e-01
  3.042176e+01    7.055643e-01
  3.043763e+01    7.112119e-01
  3.045351e+01    6.934799e-01
  3.046938e+01    6.878924e-01
  3.048526e+01    6.934423e-01
  3.050113e+01    7.120498e-01
  3.051701e+01    7.157469e-01
  3.053288e+01    6.957990e-01
  3.054876e+01    6.842048e-01
  3.056464e+01    7.137629e-01
  3.058051e+01    7.310884e-01
  3.059639e+01    7.157208e-01
  3.061226e+01    7.035335e-01
  3.062814e+01    6.864049e-01
  3.064401e+01    6.984646e-01
  3.065989e+01    6.967532e-01
  3.067577e+01    6.941627e-01
  3.069164e+01    7.279856e-01
  3.070752e+01    7.198883e-01
  3.072339e+01    6.945192e-01
  3.073927e+01    7.053674e-01
  3.075514e+01    7.189533e-01
  3.077102e+01    7.020638e-01
  3.078689e+01    7.028083e-01
  3.080277e+01    6.909454e-01
  3.081865e+01    7.233351e-01
  3.083452e+01    7.418674e-01
  3.085040e+01    7.029313e-01
  3.086627e+01    7.080110e-01
  3.088215e+01    7.143866e-01
  3.089802e+01    7.051706e-01
  3.091390e+01    6.921272e-01
  3.092977e+01    7.070361e-01
  3.094565e+01    7.050220e-01
  3.096153e+01    6.989656e-01
  3.097740e+01    7.046399e-01
  3.099328e+01    7.282038e-01
  3.100915e+01    7.331920e-01
  3.102503e+01    7.116925e-01
  3.104090e+01    6.924065e-01
  3.105678e+01    7.206376e-01
  3.107265e+01    7.341102e-01
  3.108853e+01    7.008517e-01
  3.110441e+01    7.148850e-01
  3.112028e+01    7.204121e-01
  3.113616e+01    7.125072e-01
  3.115203e+01    7.262125e-01
  3.116791e+01    7.220830e-01
  3.118378e+01    7.235981e-01
  3.119966e+01    7.201281e-01
  3.121553e+01    7.317292e-01
  3.123141e+01    7.198417e-01
  3.124729e+01    7.055920e-01
  3.126316e+01    7.233937e-01
  3.127904e+01    7.329038e-01
  3.129491e+01    7.395566e-01
  3.131079e+01    7.340307e-01
  3.132666e+01    7.392135e-01
  3.134254e+01    7.325205e-01
  3.135841e+01    7.281799e-01
  3.137429e+01    7.425659e-01
  3.139017e+01    7.359021e-01
  3.140604e+01    7.359536e-01
  3.142192e+01    7.374072e-01
  3.143779e+01    7.517452e-01
  3.145367e+01    7.580433e-01
  3.146954e+01    7.411395e-01
  3.148542e+01    7.295340e-01
  3.150129e+01    7.511672e-01
  3.151717e+01    7.755347e-01
  3.153305e+01    7.769855e-01
  3.154892e+01    7.514251e-01
  3.156480e+01    7.722358e-01
  3.158067e+01    8.036394e-01
  3.159655e+01    8.173593e-01
  3.161242e+01    8.177723e-01
  3.162830e+01    8.390473e-01
  3.164418e+01    8.498835e-01
  3.166005e+01    8.773828e-01
  3.167593e+01    8.621062e-01
  3.169180e+01    9.035386e-01
  3.170768e+01    9.242573e-01
  3.172355e+01    9.569543e-01
  3.173943e+01    1.012536e+00
  3.175530e+01    1.047540e+00
  3.177118e+01    1.109769e+00
  3.178706e+01    1.213497e+00
  3.180293e+01    1.303077e+00
  3.181881e+01    1.418958e+00
  3.183468e+01    1.541428e+00
  3.185056e+01    1.693334e+00
  3.186643e+01    1.871674e+00
  3.188231e+01    2.007669e+00
  3.189818e+01    2.146725e+00
  3.191406e+01    2.306986e+00
  3.192994e+01    2.334945e+00
  3.194581e+01    2.312705e+00
  3.196169e+01    2.245845e+00
  3.197756e+01    2.140919e+00
  3.199344e+01    1.969328e+00
  3.200931e+01    1.787797e+00
  3.202519e+01    1.595604e+00
  3.204106e+01    1.460635e+00
  3.205694e+01    1.339160e+00
  3.207282e+01    1.243456e+00
  3.208869e+01    1.156295e+00
  3.210457e+01    1.083911e+00
  3.212044e+01    1.036028e+00
  3.213632e+01    9.759899e-01
  3.215219e+01    9.463809e-01
  3.216807e+01    9.133108e-01
  3.218394e+01    8.871619e-01
  3.219982e+01    8.641687e-01
  3.221570e+01    8.131791e-01
  3.223157e+01    8.267496e-01
  3.224745e+01    8.112525e-01
  3.226332e+01    7.936507e-01
  3.227920e+01    7.872105e-01
  3.229507e+01    7.747201e-01
  3.231095e+01    7.885894e-01
  3.232682e+01    7.620191e-01
  3.234270e+01    7.435148e-01
  3.235858e+01    7.301462e-01
  3.237445e+01    7.334474e-01
  3.239033e+01    7.337615e-01
  3.240620e+01    7.266786e-01
  3.242208e+01    7.327393e-01
  3.243795e+01    7.424895e-01
  3.245383e+01    7.504992e-01
  3.246970e+01    7.405865e-01
  3.248558e+01    7.403241e-01
  3.250146e+01    7.315227e-01
  3.251733e+01    7.416381e-01
  3.253321e+01    7.268712e-01
  3.254908e+01    7.261955e-01
