# == pyFAI calibration ==
# Distance Sample to Detector: 0.3999999939076516 m
# PONI: 9.750e-02, 1.135e-01 m
# Rotations: -0.000175 0.000000 -0.000000 rad
# 
# == Fit2d calibration ==
# Distance Sample-beamCenter: 400.000 mm
# Center: x=1514.000, y=1300.000 pix
# Tilt: 0.010 deg  TiltPlanRot: 0.010 deg
# 
# Detector Detector	 Spline= None	 PixelSize= 7.500e-05, 7.500e-05 m
#    Detector has a mask: False 
#    Detector has a dark current: False 
#    detector has a flat field: False 
# 
# Wavelength: 6.888e-11 m
# Mask applied: user provided
# Dark current applied: False
# Flat field applied: False
# Polarization factor: 0.99
# Normalization factor: 1.0
# --> /home/myspot/data/2024_07_Rosario/Ru-CGO-ex/2024-07-27_002_Ru-CGO-ex_Activtation_ramp_000002_data_000016.dat
#       q_nm^-1             I 
  2.003187e-02    0.000000e+00
  3.590745e-02    0.000000e+00
  5.178302e-02    0.000000e+00
  6.765859e-02    3.249338e-02
  8.353417e-02    3.919263e-02
  9.940974e-02    0.000000e+00
  1.152853e-01    5.549330e-02
  1.311609e-01    1.239762e-01
  1.470365e-01    5.332179e-02
  1.629120e-01    4.947558e-02
  1.787876e-01    1.023744e-01
  1.946632e-01    3.156886e-02
  2.105388e-01    1.930963e-02
  2.264143e-01    1.969233e-02
  2.422899e-01    2.208284e-02
  2.581655e-01    5.387165e-02
  2.740411e-01    7.096304e-02
  2.899166e-01    4.045362e-02
  3.057922e-01    3.667918e-02
  3.216678e-01    4.123167e-02
  3.375433e-01    1.064146e-02
  3.534189e-01    1.206304e-02
  3.692945e-01    4.698428e-02
  3.851701e-01    5.341593e-02
  4.010456e-01    3.811925e-02
  4.169212e-01    4.289487e-02
  4.327968e-01    1.120653e-02
  4.486724e-01    4.347099e-02
  4.645479e-01    5.009856e-02
  4.804235e-01    3.768986e-02
  4.962991e-01    3.254603e-02
  5.121747e-01    3.472163e-02
  5.280502e-01    5.900043e-02
  5.439258e-01    4.475942e-02
  5.598014e-01    4.755594e-02
  5.756770e-01    4.536398e-02
  5.915525e-01    4.522811e-02
  6.074281e-01    3.836310e-02
  6.233037e-01    4.188574e-02
  6.391793e-01    5.170554e-02
  6.550548e-01    4.792835e-02
  6.709304e-01    7.097198e-02
  6.868060e-01    5.842619e-02
  7.026815e-01    2.840370e-02
  7.185571e-01    6.350147e-02
  7.344327e-01    6.281107e-02
  7.503083e-01    5.873543e-02
  7.661838e-01    1.231635e-01
  7.820594e-01    1.352689e-01
  7.979350e-01    1.181897e-01
  8.138106e-01    1.787294e-01
  8.296861e-01    2.006136e-01
  8.455617e-01    2.691419e-01
  8.614373e-01    3.710556e-01
  8.773129e-01    4.004082e-01
  8.931884e-01    5.028349e-01
  9.090640e-01    6.392504e-01
  9.249396e-01    6.900379e-01
  9.408152e-01    7.077888e-01
  9.566907e-01    7.392894e-01
  9.725663e-01    8.359278e-01
  9.884419e-01    9.951627e-01
  1.004317e+00    1.081257e+00
  1.020193e+00    1.158201e+00
  1.036069e+00    1.207497e+00
  1.051944e+00    1.230834e+00
  1.067820e+00    1.370757e+00
  1.083695e+00    1.454546e+00
  1.099571e+00    1.432381e+00
  1.115446e+00    1.362241e+00
  1.131322e+00    1.389480e+00
  1.147198e+00    1.493325e+00
  1.163073e+00    1.519982e+00
  1.178949e+00    1.600994e+00
  1.194824e+00    1.646091e+00
  1.210700e+00    1.845722e+00
  1.226575e+00    2.160004e+00
  1.242451e+00    2.260834e+00
  1.258327e+00    2.289379e+00
  1.274202e+00    2.488733e+00
  1.290078e+00    2.600812e+00
  1.305953e+00    2.693651e+00
  1.321829e+00    2.677930e+00
  1.337705e+00    2.690238e+00
  1.353580e+00    2.528060e+00
  1.369456e+00    2.687235e+00
  1.385331e+00    2.664750e+00
  1.401207e+00    2.590163e+00
  1.417082e+00    2.711052e+00
  1.432958e+00    2.753393e+00
  1.448834e+00    2.833014e+00
  1.464709e+00    2.925781e+00
  1.480585e+00    2.847664e+00
  1.496460e+00    2.855222e+00
  1.512336e+00    2.747687e+00
  1.528211e+00    2.915035e+00
  1.544087e+00    3.056215e+00
  1.559963e+00    3.044808e+00
  1.575838e+00    2.997133e+00
  1.591714e+00    3.002258e+00
  1.607589e+00    3.095879e+00
  1.623465e+00    3.051778e+00
  1.639340e+00    3.023731e+00
  1.655216e+00    2.903186e+00
  1.671092e+00    3.012820e+00
  1.686967e+00    2.980209e+00
  1.702843e+00    2.921760e+00
  1.718718e+00    2.900432e+00
  1.734594e+00    2.995087e+00
  1.750469e+00    2.959346e+00
  1.766345e+00    2.940817e+00
  1.782221e+00    2.919267e+00
  1.798096e+00    2.823346e+00
  1.813972e+00    2.886154e+00
  1.829847e+00    2.874557e+00
  1.845723e+00    2.856731e+00
  1.861598e+00    2.938934e+00
  1.877474e+00    2.850392e+00
  1.893350e+00    2.780013e+00
  1.909225e+00    2.754064e+00
  1.925101e+00    2.833513e+00
  1.940976e+00    2.729634e+00
  1.956852e+00    2.793040e+00
  1.972727e+00    2.799687e+00
  1.988603e+00    2.868283e+00
  2.004479e+00    2.876199e+00
  2.020354e+00    2.967618e+00
  2.036230e+00    2.882299e+00
  2.052105e+00    2.739497e+00
  2.067981e+00    2.836297e+00
  2.083856e+00    2.845608e+00
  2.099732e+00    2.766500e+00
  2.115608e+00    2.751462e+00
  2.131483e+00    2.748830e+00
  2.147359e+00    2.856132e+00
  2.163234e+00    2.812009e+00
  2.179110e+00    2.713035e+00
  2.194985e+00    2.801021e+00
  2.210861e+00    2.863989e+00
  2.226737e+00    2.895062e+00
  2.242612e+00    2.928803e+00
  2.258488e+00    2.858454e+00
  2.274363e+00    2.820046e+00
  2.290239e+00    2.825476e+00
  2.306115e+00    2.763403e+00
  2.321990e+00    2.854253e+00
  2.337866e+00    2.846833e+00
  2.353741e+00    2.865261e+00
  2.369617e+00    2.800099e+00
  2.385492e+00    2.779375e+00
  2.401368e+00    2.801480e+00
  2.417244e+00    2.890494e+00
  2.433119e+00    2.893233e+00
  2.448995e+00    2.831053e+00
  2.464870e+00    2.884528e+00
  2.480746e+00    2.881391e+00
  2.496621e+00    2.892463e+00
  2.512497e+00    2.827665e+00
  2.528373e+00    2.881544e+00
  2.544248e+00    2.844356e+00
  2.560124e+00    2.973517e+00
  2.575999e+00    2.886422e+00
  2.591875e+00    2.787822e+00
  2.607750e+00    2.884415e+00
  2.623626e+00    2.888795e+00
  2.639502e+00    2.830754e+00
  2.655377e+00    2.874110e+00
  2.671253e+00    2.781931e+00
  2.687128e+00    2.755982e+00
  2.703004e+00    2.855797e+00
  2.718879e+00    2.834652e+00
  2.734755e+00    2.970347e+00
  2.750631e+00    2.949533e+00
  2.766506e+00    2.887883e+00
  2.782382e+00    2.845528e+00
  2.798257e+00    2.957284e+00
  2.814133e+00    2.914080e+00
  2.830008e+00    2.925151e+00
  2.845884e+00    2.799325e+00
  2.861760e+00    2.832155e+00
  2.877635e+00    2.975853e+00
  2.893511e+00    2.962468e+00
  2.909386e+00    2.884509e+00
  2.925262e+00    2.854770e+00
  2.941137e+00    2.830845e+00
  2.957013e+00    2.815292e+00
  2.972889e+00    2.891074e+00
  2.988764e+00    3.017608e+00
  3.004640e+00    2.938567e+00
  3.020515e+00    2.940471e+00
  3.036391e+00    2.925658e+00
  3.052266e+00    2.942953e+00
  3.068142e+00    2.945596e+00
  3.084018e+00    2.912785e+00
  3.099893e+00    2.919551e+00
  3.115769e+00    2.891112e+00
  3.131644e+00    2.899190e+00
  3.147520e+00    2.948612e+00
  3.163395e+00    2.942550e+00
  3.179271e+00    2.910890e+00
  3.195147e+00    2.996036e+00
  3.211022e+00    2.929416e+00
  3.226898e+00    2.887739e+00
  3.242773e+00    2.969919e+00
  3.258649e+00    2.981031e+00
  3.274525e+00    3.000236e+00
  3.290400e+00    2.914048e+00
  3.306276e+00    3.029401e+00
  3.322151e+00    2.992318e+00
  3.338027e+00    2.971440e+00
  3.353902e+00    2.982939e+00
  3.369778e+00    2.964986e+00
  3.385654e+00    2.967265e+00
  3.401529e+00    3.009583e+00
  3.417405e+00    3.018946e+00
  3.433280e+00    3.067028e+00
  3.449156e+00    3.043568e+00
  3.465031e+00    2.947136e+00
  3.480907e+00    2.863846e+00
  3.496783e+00    2.982556e+00
  3.512658e+00    2.972125e+00
  3.528534e+00    2.999386e+00
  3.544409e+00    2.894110e+00
  3.560285e+00    2.992874e+00
  3.576160e+00    3.063018e+00
  3.592036e+00    3.023585e+00
  3.607912e+00    3.021985e+00
  3.623787e+00    2.993399e+00
  3.639663e+00    2.933933e+00
  3.655538e+00    2.958693e+00
  3.671414e+00    3.004315e+00
  3.687289e+00    3.018601e+00
  3.703165e+00    2.962934e+00
  3.719041e+00    2.946020e+00
  3.734916e+00    3.019001e+00
  3.750792e+00    2.982027e+00
  3.766667e+00    2.956226e+00
  3.782543e+00    2.940052e+00
  3.798418e+00    2.991853e+00
  3.814294e+00    2.973445e+00
  3.830170e+00    2.960733e+00
  3.846045e+00    3.003600e+00
  3.861921e+00    3.054711e+00
  3.877796e+00    3.000133e+00
  3.893672e+00    3.055283e+00
  3.909547e+00    2.980609e+00
  3.925423e+00    3.044896e+00
  3.941299e+00    3.000288e+00
  3.957174e+00    3.034643e+00
  3.973050e+00    3.008099e+00
  3.988925e+00    3.055354e+00
  4.004801e+00    3.028279e+00
  4.020676e+00    2.950142e+00
  4.036552e+00    2.975080e+00
  4.052428e+00    3.066587e+00
  4.068303e+00    3.107551e+00
  4.084179e+00    3.115769e+00
  4.100054e+00    3.159228e+00
  4.115930e+00    3.121960e+00
  4.131806e+00    3.104890e+00
  4.147681e+00    3.085017e+00
  4.163557e+00    3.055073e+00
  4.179432e+00    3.041464e+00
  4.195308e+00    3.021619e+00
  4.211183e+00    3.039653e+00
  4.227059e+00    3.031743e+00
  4.242935e+00    3.069560e+00
  4.258810e+00    3.021902e+00
  4.274686e+00    3.045503e+00
  4.290561e+00    3.087779e+00
  4.306437e+00    3.119801e+00
  4.322312e+00    3.049337e+00
  4.338188e+00    3.009886e+00
  4.354064e+00    3.054507e+00
  4.369939e+00    3.062799e+00
  4.385815e+00    3.053067e+00
  4.401690e+00    3.014777e+00
  4.417566e+00    2.996226e+00
  4.433441e+00    3.112411e+00
  4.449317e+00    3.051528e+00
  4.465193e+00    3.017641e+00
  4.481068e+00    2.994649e+00
  4.496944e+00    3.078729e+00
  4.512819e+00    3.120630e+00
  4.528695e+00    3.175690e+00
  4.544570e+00    3.176088e+00
  4.560446e+00    3.075405e+00
  4.576322e+00    3.056427e+00
  4.592197e+00    3.118753e+00
  4.608073e+00    3.095070e+00
  4.623948e+00    3.061946e+00
  4.639824e+00    3.056397e+00
  4.655699e+00    3.121587e+00
  4.671575e+00    3.160692e+00
  4.687451e+00    3.101648e+00
  4.703326e+00    3.121697e+00
  4.719202e+00    3.070556e+00
  4.735077e+00    3.090461e+00
  4.750953e+00    3.184354e+00
  4.766828e+00    3.120107e+00
  4.782704e+00    3.084743e+00
  4.798580e+00    3.062663e+00
  4.814455e+00    3.037929e+00
  4.830331e+00    3.110519e+00
  4.846206e+00    3.165936e+00
  4.862082e+00    3.165356e+00
  4.877957e+00    3.117561e+00
  4.893833e+00    3.157143e+00
  4.909709e+00    3.168395e+00
  4.925584e+00    3.076883e+00
  4.941460e+00    3.095989e+00
  4.957335e+00    3.157098e+00
  4.973211e+00    3.134037e+00
  4.989086e+00    3.107287e+00
  5.004962e+00    3.169019e+00
  5.020838e+00    3.169787e+00
  5.036713e+00    3.077096e+00
  5.052589e+00    3.027511e+00
  5.068464e+00    3.097969e+00
  5.084340e+00    3.164187e+00
  5.100216e+00    3.157103e+00
  5.116091e+00    3.193239e+00
  5.131967e+00    3.215627e+00
  5.147842e+00    3.200133e+00
  5.163718e+00    3.173858e+00
  5.179593e+00    3.183709e+00
  5.195469e+00    3.097240e+00
  5.211345e+00    3.101804e+00
  5.227220e+00    3.141028e+00
  5.243096e+00    3.207762e+00
  5.258971e+00    3.166044e+00
  5.274847e+00    3.130473e+00
  5.290722e+00    3.094749e+00
  5.306598e+00    3.112474e+00
  5.322474e+00    3.105771e+00
  5.338349e+00    3.060021e+00
  5.354225e+00    3.073730e+00
  5.370100e+00    3.126812e+00
  5.385976e+00    3.118445e+00
  5.401851e+00    3.120491e+00
  5.417727e+00    3.072168e+00
  5.433603e+00    3.102839e+00
  5.449478e+00    3.091149e+00
  5.465354e+00    3.138399e+00
  5.481229e+00    3.118847e+00
  5.497105e+00    3.083120e+00
  5.512980e+00    3.136573e+00
  5.528856e+00    3.084508e+00
  5.544732e+00    3.027763e+00
  5.560607e+00    3.060749e+00
  5.576483e+00    3.137398e+00
  5.592358e+00    3.105639e+00
  5.608234e+00    3.062658e+00
  5.624109e+00    3.086932e+00
  5.639985e+00    3.078727e+00
  5.655861e+00    3.052914e+00
  5.671736e+00    3.015663e+00
  5.687612e+00    3.114565e+00
  5.703487e+00    3.098490e+00
  5.719363e+00    3.026335e+00
  5.735238e+00    3.040997e+00
  5.751114e+00    3.117903e+00
  5.766990e+00    3.133830e+00
  5.782865e+00    3.060151e+00
  5.798741e+00    3.032113e+00
  5.814616e+00    3.073652e+00
  5.830492e+00    3.060598e+00
  5.846367e+00    3.042749e+00
  5.862243e+00    3.048128e+00
  5.878119e+00    3.049892e+00
  5.893994e+00    3.041384e+00
  5.909870e+00    3.081903e+00
  5.925745e+00    3.042691e+00
  5.941621e+00    3.010361e+00
  5.957497e+00    3.003199e+00
  5.973372e+00    3.036068e+00
  5.989248e+00    3.002477e+00
  6.005123e+00    3.017741e+00
  6.020999e+00    3.024316e+00
  6.036874e+00    3.043933e+00
  6.052750e+00    3.036873e+00
  6.068626e+00    3.053259e+00
  6.084501e+00    3.028221e+00
  6.100377e+00    3.045459e+00
  6.116252e+00    3.093902e+00
  6.132128e+00    3.070101e+00
  6.148003e+00    3.078109e+00
  6.163879e+00    3.051504e+00
  6.179755e+00    3.082422e+00
  6.195630e+00    3.065264e+00
  6.211506e+00    3.076283e+00
  6.227381e+00    3.024995e+00
  6.243257e+00    3.078379e+00
  6.259132e+00    3.079511e+00
  6.275008e+00    3.110228e+00
  6.290884e+00    3.081189e+00
  6.306759e+00    3.093658e+00
  6.322635e+00    3.044211e+00
  6.338510e+00    3.070212e+00
  6.354386e+00    3.145452e+00
  6.370261e+00    3.152755e+00
  6.386137e+00    3.119936e+00
  6.402013e+00    3.045026e+00
  6.417888e+00    3.023373e+00
  6.433764e+00    3.143857e+00
  6.449639e+00    3.158948e+00
  6.465515e+00    3.092960e+00
  6.481390e+00    3.067379e+00
  6.497266e+00    3.029663e+00
  6.513142e+00    3.051654e+00
  6.529017e+00    3.038747e+00
  6.544893e+00    3.052687e+00
  6.560768e+00    3.084532e+00
  6.576644e+00    3.041043e+00
  6.592519e+00    3.045207e+00
  6.608395e+00    3.025740e+00
  6.624271e+00    3.071451e+00
  6.640146e+00    3.072765e+00
  6.656022e+00    3.044446e+00
  6.671897e+00    3.029065e+00
  6.687773e+00    3.084747e+00
  6.703648e+00    3.133694e+00
  6.719524e+00    3.073853e+00
  6.735400e+00    3.121027e+00
  6.751275e+00    3.116193e+00
  6.767151e+00    3.086686e+00
  6.783026e+00    3.082764e+00
  6.798902e+00    3.083791e+00
  6.814777e+00    3.046406e+00
  6.830653e+00    3.052026e+00
  6.846529e+00    3.046906e+00
  6.862404e+00    3.035605e+00
  6.878280e+00    3.039919e+00
  6.894155e+00    3.088439e+00
  6.910031e+00    3.023153e+00
  6.925907e+00    2.974783e+00
  6.941782e+00    3.044356e+00
  6.957658e+00    2.996668e+00
  6.973533e+00    2.997674e+00
  6.989409e+00    2.961962e+00
  7.005284e+00    3.019621e+00
  7.021160e+00    3.044150e+00
  7.037036e+00    2.969570e+00
  7.052911e+00    3.010498e+00
  7.068787e+00    3.087497e+00
  7.084662e+00    3.074190e+00
  7.100538e+00    3.064716e+00
  7.116413e+00    3.031254e+00
  7.132289e+00    3.001054e+00
  7.148165e+00    2.961085e+00
  7.164040e+00    2.979232e+00
  7.179916e+00    2.996688e+00
  7.195791e+00    3.041551e+00
  7.211667e+00    3.059231e+00
  7.227542e+00    2.967025e+00
  7.243418e+00    2.980580e+00
  7.259294e+00    3.046715e+00
  7.275169e+00    3.016148e+00
  7.291045e+00    3.042985e+00
  7.306920e+00    3.034654e+00
  7.322796e+00    3.013574e+00
  7.338671e+00    3.010969e+00
  7.354547e+00    3.034420e+00
  7.370423e+00    3.037907e+00
  7.386298e+00    3.023575e+00
  7.402174e+00    3.020652e+00
  7.418049e+00    2.991349e+00
  7.433925e+00    3.010217e+00
  7.449800e+00    2.997848e+00
  7.465676e+00    2.987285e+00
  7.481552e+00    2.963700e+00
  7.497427e+00    2.946241e+00
  7.513303e+00    2.962652e+00
  7.529178e+00    3.063441e+00
  7.545054e+00    3.070038e+00
  7.560929e+00    3.027379e+00
  7.576805e+00    2.970627e+00
  7.592681e+00    2.936173e+00
  7.608556e+00    3.003479e+00
  7.624432e+00    2.923988e+00
  7.640307e+00    2.932086e+00
  7.656183e+00    2.966698e+00
  7.672058e+00    2.972331e+00
  7.687934e+00    3.035742e+00
  7.703810e+00    3.005794e+00
  7.719685e+00    3.010283e+00
  7.735561e+00    3.023500e+00
  7.751436e+00    2.924423e+00
  7.767312e+00    2.890325e+00
  7.783187e+00    2.964744e+00
  7.799063e+00    2.974891e+00
  7.814939e+00    2.904991e+00
  7.830814e+00    2.962117e+00
  7.846690e+00    2.916635e+00
  7.862565e+00    2.908037e+00
  7.878441e+00    2.886511e+00
  7.894317e+00    2.916285e+00
  7.910192e+00    2.898990e+00
  7.926068e+00    2.868022e+00
  7.941943e+00    2.891265e+00
  7.957819e+00    2.935688e+00
  7.973694e+00    2.950741e+00
  7.989570e+00    2.928834e+00
  8.005446e+00    2.895216e+00
  8.021321e+00    2.911373e+00
  8.037197e+00    2.903877e+00
  8.053072e+00    2.878003e+00
  8.068948e+00    2.933223e+00
  8.084823e+00    2.950177e+00
  8.100699e+00    2.928297e+00
  8.116575e+00    2.910357e+00
  8.132450e+00    2.919902e+00
  8.148326e+00    2.947815e+00
  8.164201e+00    2.986211e+00
  8.180077e+00    2.995856e+00
  8.195952e+00    3.015956e+00
  8.211828e+00    3.010278e+00
  8.227704e+00    2.997500e+00
  8.243579e+00    2.923220e+00
  8.259455e+00    2.955085e+00
  8.275330e+00    2.968486e+00
  8.291206e+00    2.922826e+00
  8.307081e+00    2.896970e+00
  8.322957e+00    2.962070e+00
  8.338833e+00    2.965128e+00
  8.354708e+00    2.956300e+00
  8.370584e+00    2.910509e+00
  8.386459e+00    2.889165e+00
  8.402335e+00    2.916428e+00
  8.418210e+00    2.913613e+00
  8.434086e+00    2.908816e+00
  8.449962e+00    2.895382e+00
  8.465837e+00    2.896703e+00
  8.481713e+00    2.920893e+00
  8.497588e+00    2.882784e+00
  8.513464e+00    2.840657e+00
  8.529339e+00    2.892126e+00
  8.545215e+00    2.901177e+00
  8.561091e+00    2.882466e+00
  8.576966e+00    2.865414e+00
  8.592842e+00    2.928703e+00
  8.608717e+00    2.878926e+00
  8.624593e+00    2.897121e+00
  8.640468e+00    2.902256e+00
  8.656344e+00    2.877003e+00
  8.672220e+00    2.903660e+00
  8.688095e+00    2.933622e+00
  8.703971e+00    2.912165e+00
  8.719846e+00    2.926314e+00
  8.735722e+00    2.891247e+00
  8.751598e+00    2.879239e+00
  8.767473e+00    2.913971e+00
  8.783349e+00    2.851531e+00
  8.799224e+00    2.841118e+00
  8.815100e+00    2.828504e+00
  8.830975e+00    2.838299e+00
  8.846851e+00    2.833616e+00
  8.862727e+00    2.816209e+00
  8.878602e+00    2.871794e+00
  8.894478e+00    2.882249e+00
  8.910353e+00    2.892814e+00
  8.926229e+00    2.925179e+00
  8.942104e+00    2.850687e+00
  8.957980e+00    2.817064e+00
  8.973856e+00    2.897661e+00
  8.989731e+00    2.884109e+00
  9.005607e+00    2.840415e+00
  9.021482e+00    2.831021e+00
  9.037358e+00    2.818890e+00
  9.053233e+00    2.836081e+00
  9.069109e+00    2.807149e+00
  9.084985e+00    2.781411e+00
  9.100860e+00    2.821925e+00
  9.116736e+00    2.793117e+00
  9.132611e+00    2.783137e+00
  9.148487e+00    2.804069e+00
  9.164362e+00    2.814713e+00
  9.180238e+00    2.805375e+00
  9.196114e+00    2.861162e+00
  9.211989e+00    2.839719e+00
  9.227865e+00    2.873447e+00
  9.243740e+00    2.884838e+00
  9.259616e+00    2.780910e+00
  9.275491e+00    2.809397e+00
  9.291367e+00    2.828175e+00
  9.307243e+00    2.879770e+00
  9.323118e+00    2.859523e+00
  9.338994e+00    2.830830e+00
  9.354869e+00    2.791387e+00
  9.370745e+00    2.807544e+00
  9.386620e+00    2.798820e+00
  9.402496e+00    2.780659e+00
  9.418372e+00    2.767579e+00
  9.434247e+00    2.799742e+00
  9.450123e+00    2.809593e+00
  9.465998e+00    2.777028e+00
  9.481874e+00    2.804708e+00
  9.497749e+00    2.816296e+00
  9.513625e+00    2.817824e+00
  9.529501e+00    2.859255e+00
  9.545376e+00    2.883875e+00
  9.561252e+00    2.792727e+00
  9.577127e+00    2.766044e+00
  9.593003e+00    2.784461e+00
  9.608878e+00    2.770130e+00
  9.624754e+00    2.768098e+00
  9.640630e+00    2.746712e+00
  9.656505e+00    2.780396e+00
  9.672381e+00    2.751230e+00
  9.688256e+00    2.767299e+00
  9.704132e+00    2.765210e+00
  9.720008e+00    2.784188e+00
  9.735883e+00    2.787998e+00
  9.751759e+00    2.800716e+00
  9.767634e+00    2.739251e+00
  9.783510e+00    2.783983e+00
  9.799385e+00    2.750755e+00
  9.815261e+00    2.762275e+00
  9.831137e+00    2.687509e+00
  9.847012e+00    2.622211e+00
  9.862888e+00    2.692829e+00
  9.878763e+00    2.738134e+00
  9.894639e+00    2.711815e+00
  9.910514e+00    2.690982e+00
  9.926390e+00    2.754372e+00
  9.942266e+00    2.694079e+00
  9.958141e+00    2.720458e+00
  9.974017e+00    2.685422e+00
  9.989892e+00    2.662360e+00
  1.000577e+01    2.708895e+00
  1.002164e+01    2.718922e+00
  1.003752e+01    2.716403e+00
  1.005339e+01    2.730279e+00
  1.006927e+01    2.700582e+00
  1.008515e+01    2.649708e+00
  1.010102e+01    2.694193e+00
  1.011690e+01    2.691207e+00
  1.013277e+01    2.690989e+00
  1.014865e+01    2.670294e+00
  1.016452e+01    2.666894e+00
  1.018040e+01    2.653172e+00
  1.019627e+01    2.633566e+00
  1.021215e+01    2.624488e+00
  1.022803e+01    2.660518e+00
  1.024390e+01    2.670958e+00
  1.025978e+01    2.671149e+00
  1.027565e+01    2.645474e+00
  1.029153e+01    2.586987e+00
  1.030740e+01    2.637132e+00
  1.032328e+01    2.677952e+00
  1.033915e+01    2.667026e+00
  1.035503e+01    2.663746e+00
  1.037091e+01    2.649240e+00
  1.038678e+01    2.617988e+00
  1.040266e+01    2.601486e+00
  1.041853e+01    2.631117e+00
  1.043441e+01    2.663812e+00
  1.045028e+01    2.663203e+00
  1.046616e+01    2.655748e+00
  1.048204e+01    2.600792e+00
  1.049791e+01    2.574523e+00
  1.051379e+01    2.556780e+00
  1.052966e+01    2.549181e+00
  1.054554e+01    2.578717e+00
  1.056141e+01    2.554435e+00
  1.057729e+01    2.589143e+00
  1.059316e+01    2.581226e+00
  1.060904e+01    2.612318e+00
  1.062492e+01    2.638037e+00
  1.064079e+01    2.602509e+00
  1.065667e+01    2.536692e+00
  1.067254e+01    2.557240e+00
  1.068842e+01    2.554250e+00
  1.070429e+01    2.642659e+00
  1.072017e+01    2.618587e+00
  1.073604e+01    2.552586e+00
  1.075192e+01    2.549083e+00
  1.076780e+01    2.603881e+00
  1.078367e+01    2.582640e+00
  1.079955e+01    2.548205e+00
  1.081542e+01    2.558826e+00
  1.083130e+01    2.590928e+00
  1.084717e+01    2.542312e+00
  1.086305e+01    2.530951e+00
  1.087892e+01    2.527198e+00
  1.089480e+01    2.512008e+00
  1.091068e+01    2.558073e+00
  1.092655e+01    2.544260e+00
  1.094243e+01    2.534762e+00
  1.095830e+01    2.506826e+00
  1.097418e+01    2.539351e+00
  1.099005e+01    2.528675e+00
  1.100593e+01    2.514007e+00
  1.102180e+01    2.520512e+00
  1.103768e+01    2.515332e+00
  1.105356e+01    2.516718e+00
  1.106943e+01    2.545303e+00
  1.108531e+01    2.515589e+00
  1.110118e+01    2.499443e+00
  1.111706e+01    2.476222e+00
  1.113293e+01    2.478862e+00
  1.114881e+01    2.512836e+00
  1.116468e+01    2.517997e+00
  1.118056e+01    2.473570e+00
  1.119644e+01    2.487777e+00
  1.121231e+01    2.467156e+00
  1.122819e+01    2.477385e+00
  1.124406e+01    2.485370e+00
  1.125994e+01    2.449497e+00
  1.127581e+01    2.393629e+00
  1.129169e+01    2.391430e+00
  1.130756e+01    2.421216e+00
  1.132344e+01    2.458883e+00
  1.133932e+01    2.433542e+00
  1.135519e+01    2.447315e+00
  1.137107e+01    2.465141e+00
  1.138694e+01    2.458466e+00
  1.140282e+01    2.403982e+00
  1.141869e+01    2.380434e+00
  1.143457e+01    2.380163e+00
  1.145045e+01    2.402587e+00
  1.146632e+01    2.451277e+00
  1.148220e+01    2.437177e+00
  1.149807e+01    2.422971e+00
  1.151395e+01    2.419270e+00
  1.152982e+01    2.401474e+00
  1.154570e+01    2.424404e+00
  1.156157e+01    2.466067e+00
  1.157745e+01    2.426049e+00
  1.159333e+01    2.381708e+00
  1.160920e+01    2.423332e+00
  1.162508e+01    2.457078e+00
  1.164095e+01    2.365995e+00
  1.165683e+01    2.340836e+00
  1.167270e+01    2.370693e+00
  1.168858e+01    2.402620e+00
  1.170445e+01    2.387781e+00
  1.172033e+01    2.429223e+00
  1.173621e+01    2.357080e+00
  1.175208e+01    2.354584e+00
  1.176796e+01    2.388111e+00
  1.178383e+01    2.402547e+00
  1.179971e+01    2.357479e+00
  1.181558e+01    2.351035e+00
  1.183146e+01    2.391961e+00
  1.184733e+01    2.395384e+00
  1.186321e+01    2.341360e+00
  1.187909e+01    2.334728e+00
  1.189496e+01    2.370722e+00
  1.191084e+01    2.353125e+00
  1.192671e+01    2.339690e+00
  1.194259e+01    2.334485e+00
  1.195846e+01    2.416636e+00
  1.197434e+01    2.354334e+00
  1.199021e+01    2.324025e+00
  1.200609e+01    2.355890e+00
  1.202197e+01    2.393197e+00
  1.203784e+01    2.356733e+00
  1.205372e+01    2.363173e+00
  1.206959e+01    2.364634e+00
  1.208547e+01    2.330697e+00
  1.210134e+01    2.338223e+00
  1.211722e+01    2.380930e+00
  1.213309e+01    2.366070e+00
  1.214897e+01    2.307892e+00
  1.216485e+01    2.347678e+00
  1.218072e+01    2.315186e+00
  1.219660e+01    2.317141e+00
  1.221247e+01    2.308473e+00
  1.222835e+01    2.310208e+00
  1.224422e+01    2.331966e+00
  1.226010e+01    2.346963e+00
  1.227597e+01    2.338938e+00
  1.229185e+01    2.316090e+00
  1.230773e+01    2.345527e+00
  1.232360e+01    2.396769e+00
  1.233948e+01    2.377590e+00
  1.235535e+01    2.305785e+00
  1.237123e+01    2.328870e+00
  1.238710e+01    2.406971e+00
  1.240298e+01    2.344653e+00
  1.241886e+01    2.369919e+00
  1.243473e+01    2.393786e+00
  1.245061e+01    2.380531e+00
  1.246648e+01    2.391638e+00
  1.248236e+01    2.394266e+00
  1.249823e+01    2.331888e+00
  1.251411e+01    2.406795e+00
  1.252998e+01    2.355457e+00
  1.254586e+01    2.382557e+00
  1.256174e+01    2.379985e+00
  1.257761e+01    2.408109e+00
  1.259349e+01    2.432872e+00
  1.260936e+01    2.447766e+00
  1.262524e+01    2.439331e+00
  1.264111e+01    2.424053e+00
  1.265699e+01    2.447680e+00
  1.267286e+01    2.477877e+00
  1.268874e+01    2.506386e+00
  1.270462e+01    2.502247e+00
  1.272049e+01    2.504191e+00
  1.273637e+01    2.523520e+00
  1.275224e+01    2.515417e+00
  1.276812e+01    2.585298e+00
  1.278399e+01    2.653129e+00
  1.279987e+01    2.661023e+00
  1.281574e+01    2.724764e+00
  1.283162e+01    2.807812e+00
  1.284750e+01    2.847726e+00
  1.286337e+01    2.950600e+00
  1.287925e+01    3.066214e+00
  1.289512e+01    3.163740e+00
  1.291100e+01    3.262147e+00
  1.292687e+01    3.451415e+00
  1.294275e+01    3.701733e+00
  1.295862e+01    3.956551e+00
  1.297450e+01    4.278527e+00
  1.299038e+01    4.611327e+00
  1.300625e+01    5.109805e+00
  1.302213e+01    5.843397e+00
  1.303800e+01    6.654991e+00
  1.305388e+01    7.696227e+00
  1.306975e+01    9.008572e+00
  1.308563e+01    1.049330e+01
  1.310150e+01    1.209290e+01
  1.311738e+01    1.361362e+01
  1.313326e+01    1.502733e+01
  1.314913e+01    1.659390e+01
  1.316501e+01    1.802128e+01
  1.318088e+01    1.922907e+01
  1.319676e+01    1.994656e+01
  1.321263e+01    1.969296e+01
  1.322851e+01    1.856326e+01
  1.324438e+01    1.646351e+01
  1.326026e+01    1.404286e+01
  1.327614e+01    1.175411e+01
  1.329201e+01    9.878505e+00
  1.330789e+01    8.385457e+00
  1.332376e+01    7.221857e+00
  1.333964e+01    6.243763e+00
  1.335551e+01    5.515116e+00
  1.337139e+01    4.909786e+00
  1.338727e+01    4.481104e+00
  1.340314e+01    4.069478e+00
  1.341902e+01    3.779094e+00
  1.343489e+01    3.588274e+00
  1.345077e+01    3.372724e+00
  1.346664e+01    3.201793e+00
  1.348252e+01    3.066267e+00
  1.349839e+01    2.962004e+00
  1.351427e+01    2.843347e+00
  1.353015e+01    2.742691e+00
  1.354602e+01    2.709675e+00
  1.356190e+01    2.644336e+00
  1.357777e+01    2.586758e+00
  1.359365e+01    2.505669e+00
  1.360952e+01    2.438433e+00
  1.362540e+01    2.412066e+00
  1.364127e+01    2.422948e+00
  1.365715e+01    2.395655e+00
  1.367303e+01    2.364069e+00
  1.368890e+01    2.343518e+00
  1.370478e+01    2.319640e+00
  1.372065e+01    2.305633e+00
  1.373653e+01    2.300529e+00
  1.375240e+01    2.282637e+00
  1.376828e+01    2.225611e+00
  1.378415e+01    2.216175e+00
  1.380003e+01    2.229348e+00
  1.381591e+01    2.193624e+00
  1.383178e+01    2.168900e+00
  1.384766e+01    2.157684e+00
  1.386353e+01    2.181422e+00
  1.387941e+01    2.190551e+00
  1.389528e+01    2.171575e+00
  1.391116e+01    2.151318e+00
  1.392703e+01    2.163528e+00
  1.394291e+01    2.148672e+00
  1.395879e+01    2.129750e+00
  1.397466e+01    2.083497e+00
  1.399054e+01    2.115971e+00
  1.400641e+01    2.105302e+00
  1.402229e+01    2.092371e+00
  1.403816e+01    2.071398e+00
  1.405404e+01    2.094532e+00
  1.406991e+01    2.065623e+00
  1.408579e+01    2.034791e+00
  1.410167e+01    2.049606e+00
  1.411754e+01    2.063609e+00
  1.413342e+01    2.020753e+00
  1.414929e+01    2.021668e+00
  1.416517e+01    2.030433e+00
  1.418104e+01    2.036794e+00
  1.419692e+01    2.025549e+00
  1.421279e+01    1.999143e+00
  1.422867e+01    2.006977e+00
  1.424455e+01    1.995005e+00
  1.426042e+01    2.011875e+00
  1.427630e+01    2.011699e+00
  1.429217e+01    1.980008e+00
  1.430805e+01    1.979195e+00
  1.432392e+01    1.950676e+00
  1.433980e+01    1.948143e+00
  1.435568e+01    1.982342e+00
  1.437155e+01    1.977123e+00
  1.438743e+01    1.989155e+00
  1.440330e+01    1.949130e+00
  1.441918e+01    1.937471e+00
  1.443505e+01    1.956989e+00
  1.445093e+01    1.943421e+00
  1.446680e+01    1.928875e+00
  1.448268e+01    1.923433e+00
  1.449856e+01    1.978604e+00
  1.451443e+01    1.984655e+00
  1.453031e+01    1.967316e+00
  1.454618e+01    1.952266e+00
  1.456206e+01    1.943567e+00
  1.457793e+01    1.914937e+00
  1.459381e+01    1.907339e+00
  1.460968e+01    1.935934e+00
  1.462556e+01    1.976876e+00
  1.464144e+01    1.965179e+00
  1.465731e+01    1.925572e+00
  1.467319e+01    1.935660e+00
  1.468906e+01    1.937657e+00
  1.470494e+01    1.917896e+00
  1.472081e+01    1.906978e+00
  1.473669e+01    1.955819e+00
  1.475256e+01    1.935282e+00
  1.476844e+01    1.927685e+00
  1.478432e+01    1.938983e+00
  1.480019e+01    1.968536e+00
  1.481607e+01    1.926474e+00
  1.483194e+01    1.931633e+00
  1.484782e+01    1.962182e+00
  1.486369e+01    2.010046e+00
  1.487957e+01    1.972104e+00
  1.489544e+01    1.971642e+00
  1.491132e+01    1.959533e+00
  1.492720e+01    1.981418e+00
  1.494307e+01    2.023723e+00
  1.495895e+01    2.077145e+00
  1.497482e+01    2.134892e+00
  1.499070e+01    2.125284e+00
  1.500657e+01    2.158797e+00
  1.502245e+01    2.221579e+00
  1.503832e+01    2.273933e+00
  1.505420e+01    2.330049e+00
  1.507008e+01    2.446988e+00
  1.508595e+01    2.564310e+00
  1.510183e+01    2.768166e+00
  1.511770e+01    2.952902e+00
  1.513358e+01    3.176646e+00
  1.514945e+01    3.496601e+00
  1.516533e+01    3.976608e+00
  1.518120e+01    4.431966e+00
  1.519708e+01    4.903781e+00
  1.521296e+01    5.326482e+00
  1.522883e+01    5.655879e+00
  1.524471e+01    6.007783e+00
  1.526058e+01    6.316988e+00
  1.527646e+01    6.593270e+00
  1.529233e+01    6.707803e+00
  1.530821e+01    6.617194e+00
  1.532409e+01    6.273210e+00
  1.533996e+01    5.768724e+00
  1.535584e+01    5.083827e+00
  1.537171e+01    4.367622e+00
  1.538759e+01    3.883646e+00
  1.540346e+01    3.527031e+00
  1.541934e+01    3.139398e+00
  1.543521e+01    2.860827e+00
  1.545109e+01    2.681319e+00
  1.546697e+01    2.527330e+00
  1.548284e+01    2.387613e+00
  1.549872e+01    2.263533e+00
  1.551459e+01    2.171673e+00
  1.553047e+01    2.116117e+00
  1.554634e+01    2.058337e+00
  1.556222e+01    2.031143e+00
  1.557809e+01    1.990291e+00
  1.559397e+01    1.935125e+00
  1.560985e+01    1.925325e+00
  1.562572e+01    1.942047e+00
  1.564160e+01    1.907269e+00
  1.565747e+01    1.843794e+00
  1.567335e+01    1.811767e+00
  1.568922e+01    1.796795e+00
  1.570510e+01    1.755031e+00
  1.572097e+01    1.783810e+00
  1.573685e+01    1.802481e+00
  1.575273e+01    1.739899e+00
  1.576860e+01    1.750978e+00
  1.578448e+01    1.760641e+00
  1.580035e+01    1.737503e+00
  1.581623e+01    1.735306e+00
  1.583210e+01    1.706334e+00
  1.584798e+01    1.680915e+00
  1.586385e+01    1.689503e+00
  1.587973e+01    1.648246e+00
  1.589561e+01    1.670790e+00
  1.591148e+01    1.693127e+00
  1.592736e+01    1.664547e+00
  1.594323e+01    1.662544e+00
  1.595911e+01    1.640363e+00
  1.597498e+01    1.657630e+00
  1.599086e+01    1.626492e+00
  1.600673e+01    1.624870e+00
  1.602261e+01    1.660974e+00
  1.603849e+01    1.634148e+00
  1.605436e+01    1.606895e+00
  1.607024e+01    1.613608e+00
  1.608611e+01    1.610721e+00
  1.610199e+01    1.627283e+00
  1.611786e+01    1.607505e+00
  1.613374e+01    1.619857e+00
  1.614961e+01    1.605572e+00
  1.616549e+01    1.597349e+00
  1.618137e+01    1.608087e+00
  1.619724e+01    1.607840e+00
  1.621312e+01    1.604716e+00
  1.622899e+01    1.619500e+00
  1.624487e+01    1.608112e+00
  1.626074e+01    1.607237e+00
  1.627662e+01    1.614918e+00
  1.629250e+01    1.600851e+00
  1.630837e+01    1.564654e+00
  1.632425e+01    1.565327e+00
  1.634012e+01    1.558847e+00
  1.635600e+01    1.553171e+00
  1.637187e+01    1.573245e+00
  1.638775e+01    1.560140e+00
  1.640362e+01    1.522951e+00
  1.641950e+01    1.529595e+00
  1.643538e+01    1.536416e+00
  1.645125e+01    1.511785e+00
  1.646713e+01    1.515988e+00
  1.648300e+01    1.522305e+00
  1.649888e+01    1.529349e+00
  1.651475e+01    1.529237e+00
  1.653063e+01    1.541595e+00
  1.654650e+01    1.522862e+00
  1.656238e+01    1.489624e+00
  1.657826e+01    1.536213e+00
  1.659413e+01    1.545195e+00
  1.661001e+01    1.527365e+00
  1.662588e+01    1.530426e+00
  1.664176e+01    1.512400e+00
  1.665763e+01    1.527363e+00
  1.667351e+01    1.550614e+00
  1.668938e+01    1.472691e+00
  1.670526e+01    1.468865e+00
  1.672114e+01    1.451943e+00
  1.673701e+01    1.486896e+00
  1.675289e+01    1.479360e+00
  1.676876e+01    1.478156e+00
  1.678464e+01    1.496859e+00
  1.680051e+01    1.470997e+00
  1.681639e+01    1.482041e+00
  1.683226e+01    1.492815e+00
  1.684814e+01    1.507011e+00
  1.686402e+01    1.492212e+00
  1.687989e+01    1.485951e+00
  1.689577e+01    1.485316e+00
  1.691164e+01    1.478989e+00
  1.692752e+01    1.462836e+00
  1.694339e+01    1.491109e+00
  1.695927e+01    1.490403e+00
  1.697514e+01    1.480611e+00
  1.699102e+01    1.452425e+00
  1.700690e+01    1.443769e+00
  1.702277e+01    1.467029e+00
  1.703865e+01    1.513747e+00
  1.705452e+01    1.456035e+00
  1.707040e+01    1.453692e+00
  1.708627e+01    1.435500e+00
  1.710215e+01    1.404436e+00
  1.711802e+01    1.403272e+00
  1.713390e+01    1.411279e+00
  1.714978e+01    1.429061e+00
  1.716565e+01    1.444754e+00
  1.718153e+01    1.407589e+00
  1.719740e+01    1.393699e+00
  1.721328e+01    1.388185e+00
  1.722915e+01    1.409164e+00
  1.724503e+01    1.426669e+00
  1.726091e+01    1.426768e+00
  1.727678e+01    1.393930e+00
  1.729266e+01    1.418045e+00
  1.730853e+01    1.426583e+00
  1.732441e+01    1.380441e+00
  1.734028e+01    1.384158e+00
  1.735616e+01    1.394991e+00
  1.737203e+01    1.393795e+00
  1.738791e+01    1.429273e+00
  1.740379e+01    1.419625e+00
  1.741966e+01    1.377867e+00
  1.743554e+01    1.382803e+00
  1.745141e+01    1.399423e+00
  1.746729e+01    1.386297e+00
  1.748316e+01    1.385375e+00
  1.749904e+01    1.396701e+00
  1.751491e+01    1.379013e+00
  1.753079e+01    1.363433e+00
  1.754667e+01    1.397702e+00
  1.756254e+01    1.363245e+00
  1.757842e+01    1.357020e+00
  1.759429e+01    1.364856e+00
  1.761017e+01    1.378091e+00
  1.762604e+01    1.399462e+00
  1.764192e+01    1.391575e+00
  1.765779e+01    1.371033e+00
  1.767367e+01    1.358374e+00
  1.768955e+01    1.350638e+00
  1.770542e+01    1.352819e+00
  1.772130e+01    1.349499e+00
  1.773717e+01    1.328223e+00
  1.775305e+01    1.348157e+00
  1.776892e+01    1.369014e+00
  1.778480e+01    1.333119e+00
  1.780067e+01    1.346486e+00
  1.781655e+01    1.339815e+00
  1.783243e+01    1.338305e+00
  1.784830e+01    1.335951e+00
  1.786418e+01    1.349208e+00
  1.788005e+01    1.341241e+00
  1.789593e+01    1.358611e+00
  1.791180e+01    1.343011e+00
  1.792768e+01    1.337272e+00
  1.794355e+01    1.352589e+00
  1.795943e+01    1.346973e+00
  1.797531e+01    1.333178e+00
  1.799118e+01    1.338011e+00
  1.800706e+01    1.330318e+00
  1.802293e+01    1.335622e+00
  1.803881e+01    1.347799e+00
  1.805468e+01    1.308503e+00
  1.807056e+01    1.319748e+00
  1.808643e+01    1.325526e+00
  1.810231e+01    1.326284e+00
  1.811819e+01    1.323005e+00
  1.813406e+01    1.316912e+00
  1.814994e+01    1.302597e+00
  1.816581e+01    1.305302e+00
  1.818169e+01    1.311764e+00
  1.819756e+01    1.311762e+00
  1.821344e+01    1.287761e+00
  1.822932e+01    1.293069e+00
  1.824519e+01    1.299852e+00
  1.826107e+01    1.260535e+00
  1.827694e+01    1.267126e+00
  1.829282e+01    1.290461e+00
  1.830869e+01    1.287964e+00
  1.832457e+01    1.292731e+00
  1.834044e+01    1.265400e+00
  1.835632e+01    1.274509e+00
  1.837220e+01    1.288010e+00
  1.838807e+01    1.317963e+00
  1.840395e+01    1.289049e+00
  1.841982e+01    1.258785e+00
  1.843570e+01    1.258105e+00
  1.845157e+01    1.273850e+00
  1.846745e+01    1.276494e+00
  1.848332e+01    1.256680e+00
  1.849920e+01    1.252165e+00
  1.851508e+01    1.259779e+00
  1.853095e+01    1.281050e+00
  1.854683e+01    1.279666e+00
  1.856270e+01    1.263321e+00
  1.857858e+01    1.256983e+00
  1.859445e+01    1.250151e+00
  1.861033e+01    1.246872e+00
  1.862620e+01    1.234789e+00
  1.864208e+01    1.219526e+00
  1.865796e+01    1.222227e+00
  1.867383e+01    1.225100e+00
  1.868971e+01    1.239901e+00
  1.870558e+01    1.242771e+00
  1.872146e+01    1.245594e+00
  1.873733e+01    1.237042e+00
  1.875321e+01    1.248056e+00
  1.876908e+01    1.264948e+00
  1.878496e+01    1.265757e+00
  1.880084e+01    1.260290e+00
  1.881671e+01    1.251494e+00
  1.883259e+01    1.257832e+00
  1.884846e+01    1.230509e+00
  1.886434e+01    1.220004e+00
  1.888021e+01    1.239864e+00
  1.889609e+01    1.232033e+00
  1.891196e+01    1.216380e+00
  1.892784e+01    1.237438e+00
  1.894372e+01    1.222646e+00
  1.895959e+01    1.223349e+00
  1.897547e+01    1.205701e+00
  1.899134e+01    1.239940e+00
  1.900722e+01    1.247220e+00
  1.902309e+01    1.235236e+00
  1.903897e+01    1.217643e+00
  1.905484e+01    1.225557e+00
  1.907072e+01    1.241295e+00
  1.908660e+01    1.227567e+00
  1.910247e+01    1.201951e+00
  1.911835e+01    1.224448e+00
  1.913422e+01    1.212932e+00
  1.915010e+01    1.211382e+00
  1.916597e+01    1.185794e+00
  1.918185e+01    1.180966e+00
  1.919773e+01    1.192665e+00
  1.921360e+01    1.187124e+00
  1.922948e+01    1.205192e+00
  1.924535e+01    1.225307e+00
  1.926123e+01    1.225704e+00
  1.927710e+01    1.218418e+00
  1.929298e+01    1.196417e+00
  1.930885e+01    1.188920e+00
  1.932473e+01    1.224906e+00
  1.934061e+01    1.209753e+00
  1.935648e+01    1.207136e+00
  1.937236e+01    1.174665e+00
  1.938823e+01    1.168211e+00
  1.940411e+01    1.178566e+00
  1.941998e+01    1.182253e+00
  1.943586e+01    1.193692e+00
  1.945173e+01    1.207298e+00
  1.946761e+01    1.204335e+00
  1.948349e+01    1.175634e+00
  1.949936e+01    1.159945e+00
  1.951524e+01    1.167189e+00
  1.953111e+01    1.185691e+00
  1.954699e+01    1.182085e+00
  1.956286e+01    1.158875e+00
  1.957874e+01    1.170448e+00
  1.959461e+01    1.165537e+00
  1.961049e+01    1.153417e+00
  1.962637e+01    1.151082e+00
  1.964224e+01    1.147699e+00
  1.965812e+01    1.159813e+00
  1.967399e+01    1.165283e+00
  1.968987e+01    1.170703e+00
  1.970574e+01    1.185278e+00
  1.972162e+01    1.167800e+00
  1.973749e+01    1.179073e+00
  1.975337e+01    1.166131e+00
  1.976925e+01    1.147876e+00
  1.978512e+01    1.165906e+00
  1.980100e+01    1.143700e+00
  1.981687e+01    1.137428e+00
  1.983275e+01    1.142388e+00
  1.984862e+01    1.136044e+00
  1.986450e+01    1.155758e+00
  1.988037e+01    1.152642e+00
  1.989625e+01    1.170842e+00
  1.991213e+01    1.141099e+00
  1.992800e+01    1.118023e+00
  1.994388e+01    1.129377e+00
  1.995975e+01    1.127504e+00
  1.997563e+01    1.151091e+00
  1.999150e+01    1.161728e+00
  2.000738e+01    1.158080e+00
  2.002325e+01    1.144273e+00
  2.003913e+01    1.131749e+00
  2.005501e+01    1.115991e+00
  2.007088e+01    1.135074e+00
  2.008676e+01    1.145597e+00
  2.010263e+01    1.149688e+00
  2.011851e+01    1.145315e+00
  2.013438e+01    1.127025e+00
  2.015026e+01    1.116328e+00
  2.016614e+01    1.120746e+00
  2.018201e+01    1.135095e+00
  2.019789e+01    1.141520e+00
  2.021376e+01    1.123240e+00
  2.022964e+01    1.093265e+00
  2.024551e+01    1.088520e+00
  2.026139e+01    1.116050e+00
  2.027726e+01    1.135176e+00
  2.029314e+01    1.131415e+00
  2.030902e+01    1.138552e+00
  2.032489e+01    1.128859e+00
  2.034077e+01    1.128586e+00
  2.035664e+01    1.090823e+00
  2.037252e+01    1.103974e+00
  2.038839e+01    1.113310e+00
  2.040427e+01    1.113074e+00
  2.042014e+01    1.119278e+00
  2.043602e+01    1.122108e+00
  2.045190e+01    1.130009e+00
  2.046777e+01    1.106920e+00
  2.048365e+01    1.100367e+00
  2.049952e+01    1.100990e+00
  2.051540e+01    1.100807e+00
  2.053127e+01    1.104988e+00
  2.054715e+01    1.108126e+00
  2.056302e+01    1.127483e+00
  2.057890e+01    1.107715e+00
  2.059478e+01    1.092996e+00
  2.061065e+01    1.085844e+00
  2.062653e+01    1.091272e+00
  2.064240e+01    1.115152e+00
  2.065828e+01    1.135924e+00
  2.067415e+01    1.129342e+00
  2.069003e+01    1.114058e+00
  2.070590e+01    1.088794e+00
  2.072178e+01    1.116724e+00
  2.073766e+01    1.103328e+00
  2.075353e+01    1.117578e+00
  2.076941e+01    1.111253e+00
  2.078528e+01    1.102387e+00
  2.080116e+01    1.101809e+00
  2.081703e+01    1.072430e+00
  2.083291e+01    1.082486e+00
  2.084878e+01    1.107949e+00
  2.086466e+01    1.104652e+00
  2.088054e+01    1.110451e+00
  2.089641e+01    1.108338e+00
  2.091229e+01    1.102433e+00
  2.092816e+01    1.100529e+00
  2.094404e+01    1.104966e+00
  2.095991e+01    1.107630e+00
  2.097579e+01    1.084397e+00
  2.099166e+01    1.092973e+00
  2.100754e+01    1.088925e+00
  2.102342e+01    1.118419e+00
  2.103929e+01    1.098315e+00
  2.105517e+01    1.104475e+00
  2.107104e+01    1.104115e+00
  2.108692e+01    1.115580e+00
  2.110279e+01    1.123969e+00
  2.111867e+01    1.101694e+00
  2.113455e+01    1.112300e+00
  2.115042e+01    1.119460e+00
  2.116630e+01    1.096583e+00
  2.118217e+01    1.117252e+00
  2.119805e+01    1.115474e+00
  2.121392e+01    1.091379e+00
  2.122980e+01    1.101031e+00
  2.124567e+01    1.125986e+00
  2.126155e+01    1.120264e+00
  2.127743e+01    1.135718e+00
  2.129330e+01    1.134811e+00
  2.130918e+01    1.161527e+00
  2.132505e+01    1.171701e+00
  2.134093e+01    1.159261e+00
  2.135680e+01    1.148696e+00
  2.137268e+01    1.181377e+00
  2.138855e+01    1.196709e+00
  2.140443e+01    1.190855e+00
  2.142031e+01    1.196341e+00
  2.143618e+01    1.208555e+00
  2.145206e+01    1.211945e+00
  2.146793e+01    1.234600e+00
  2.148381e+01    1.248934e+00
  2.149968e+01    1.270940e+00
  2.151556e+01    1.315400e+00
  2.153143e+01    1.332449e+00
  2.154731e+01    1.372903e+00
  2.156319e+01    1.409099e+00
  2.157906e+01    1.429043e+00
  2.159494e+01    1.496855e+00
  2.161081e+01    1.544207e+00
  2.162669e+01    1.627553e+00
  2.164256e+01    1.704813e+00
  2.165844e+01    1.834129e+00
  2.167431e+01    1.937507e+00
  2.169019e+01    2.104664e+00
  2.170607e+01    2.278436e+00
  2.172194e+01    2.516393e+00
  2.173782e+01    2.829543e+00
  2.175369e+01    3.185483e+00
  2.176957e+01    3.651617e+00
  2.178544e+01    4.233613e+00
  2.180132e+01    4.841521e+00
  2.181719e+01    5.527849e+00
  2.183307e+01    6.266572e+00
  2.184895e+01    7.156806e+00
  2.186482e+01    8.047516e+00
  2.188070e+01    8.996979e+00
  2.189657e+01    9.762712e+00
  2.191245e+01    1.047945e+01
  2.192832e+01    1.093861e+01
  2.194420e+01    1.106227e+01
  2.196007e+01    1.056997e+01
  2.197595e+01    9.685770e+00
  2.199183e+01    8.559628e+00
  2.200770e+01    7.269096e+00
  2.202358e+01    6.149575e+00
  2.203945e+01    5.213283e+00
  2.205533e+01    4.416187e+00
  2.207120e+01    3.773856e+00
  2.208708e+01    3.347362e+00
  2.210296e+01    2.918884e+00
  2.211883e+01    2.627199e+00
  2.213471e+01    2.367053e+00
  2.215058e+01    2.181421e+00
  2.216646e+01    2.029416e+00
  2.218233e+01    1.867659e+00
  2.219821e+01    1.754468e+00
  2.221408e+01    1.641507e+00
  2.222996e+01    1.580011e+00
  2.224584e+01    1.518584e+00
  2.226171e+01    1.451177e+00
  2.227759e+01    1.393427e+00
  2.229346e+01    1.348525e+00
  2.230934e+01    1.312939e+00
  2.232521e+01    1.284172e+00
  2.234109e+01    1.243959e+00
  2.235696e+01    1.225017e+00
  2.237284e+01    1.210063e+00
  2.238872e+01    1.172420e+00
  2.240459e+01    1.149006e+00
  2.242047e+01    1.128251e+00
  2.243634e+01    1.135240e+00
  2.245222e+01    1.122378e+00
  2.246809e+01    1.102795e+00
  2.248397e+01    1.098715e+00
  2.249984e+01    1.075751e+00
  2.251572e+01    1.063562e+00
  2.253160e+01    1.039804e+00
  2.254747e+01    1.038841e+00
  2.256335e+01    1.017740e+00
  2.257922e+01    1.012912e+00
  2.259510e+01    1.001387e+00
  2.261097e+01    1.000390e+00
  2.262685e+01    1.030119e+00
  2.264272e+01    1.007590e+00
  2.265860e+01    9.850528e-01
  2.267448e+01    9.942859e-01
  2.269035e+01    1.000106e+00
  2.270623e+01    1.004868e+00
  2.272210e+01    9.929430e-01
  2.273798e+01    9.951540e-01
  2.275385e+01    9.874677e-01
  2.276973e+01    9.586493e-01
  2.278560e+01    9.427425e-01
  2.280148e+01    9.715021e-01
  2.281736e+01    9.598012e-01
  2.283323e+01    9.527602e-01
  2.284911e+01    9.747108e-01
  2.286498e+01    9.569408e-01
  2.288086e+01    9.368799e-01
  2.289673e+01    9.156522e-01
  2.291261e+01    9.358319e-01
  2.292848e+01    9.326957e-01
  2.294436e+01    9.336591e-01
  2.296024e+01    9.286553e-01
  2.297611e+01    9.315203e-01
  2.299199e+01    9.201608e-01
  2.300786e+01    8.997583e-01
  2.302374e+01    9.158800e-01
  2.303961e+01    9.179690e-01
  2.305549e+01    9.239997e-01
  2.307137e+01    9.254224e-01
  2.308724e+01    9.253548e-01
  2.310312e+01    9.080130e-01
  2.311899e+01    9.040787e-01
  2.313487e+01    8.982966e-01
  2.315074e+01    9.082989e-01
  2.316662e+01    8.914950e-01
  2.318249e+01    8.882633e-01
  2.319837e+01    8.995490e-01
  2.321425e+01    9.079167e-01
  2.323012e+01    8.937255e-01
  2.324600e+01    8.899367e-01
  2.326187e+01    8.927550e-01
  2.327775e+01    8.843029e-01
  2.329362e+01    8.921600e-01
  2.330950e+01    9.140681e-01
  2.332537e+01    8.861682e-01
  2.334125e+01    8.813750e-01
  2.335713e+01    8.678152e-01
  2.337300e+01    8.833950e-01
  2.338888e+01    8.927924e-01
  2.340475e+01    8.831478e-01
  2.342063e+01    8.694066e-01
  2.343650e+01    8.588278e-01
  2.345238e+01    8.791077e-01
  2.346825e+01    8.717087e-01
  2.348413e+01    8.628519e-01
  2.350001e+01    8.657874e-01
  2.351588e+01    8.644765e-01
  2.353176e+01    8.665779e-01
  2.354763e+01    8.598363e-01
  2.356351e+01    8.558568e-01
  2.357938e+01    8.589364e-01
  2.359526e+01    8.622912e-01
  2.361113e+01    8.701864e-01
  2.362701e+01    8.757861e-01
  2.364289e+01    8.443978e-01
  2.365876e+01    8.520828e-01
  2.367464e+01    8.499628e-01
  2.369051e+01    8.397102e-01
  2.370639e+01    8.319610e-01
  2.372226e+01    8.164997e-01
  2.373814e+01    8.258619e-01
  2.375401e+01    8.365389e-01
  2.376989e+01    8.178502e-01
  2.378577e+01    8.395637e-01
  2.380164e+01    8.209993e-01
  2.381752e+01    8.231223e-01
  2.383339e+01    8.204075e-01
  2.384927e+01    8.199096e-01
  2.386514e+01    8.108041e-01
  2.388102e+01    8.168702e-01
  2.389689e+01    8.266299e-01
  2.391277e+01    8.039894e-01
  2.392865e+01    8.392401e-01
  2.394452e+01    8.452500e-01
  2.396040e+01    8.307745e-01
  2.397627e+01    8.105511e-01
  2.399215e+01    8.043678e-01
  2.400802e+01    7.938457e-01
  2.402390e+01    7.862366e-01
  2.403978e+01    8.046784e-01
  2.405565e+01    8.141131e-01
  2.407153e+01    7.825971e-01
  2.408740e+01    7.865655e-01
  2.410328e+01    8.042573e-01
  2.411915e+01    8.055587e-01
  2.413503e+01    8.007547e-01
  2.415090e+01    8.133974e-01
  2.416678e+01    7.816496e-01
  2.418266e+01    7.840349e-01
  2.419853e+01    8.114787e-01
  2.421441e+01    8.016099e-01
  2.423028e+01    7.925627e-01
  2.424616e+01    8.035547e-01
  2.426203e+01    7.937104e-01
  2.427791e+01    7.951822e-01
  2.429378e+01    8.069282e-01
  2.430966e+01    8.039556e-01
  2.432554e+01    8.006479e-01
  2.434141e+01    8.114196e-01
  2.435729e+01    8.258918e-01
  2.437316e+01    8.019594e-01
  2.438904e+01    8.066246e-01
  2.440491e+01    7.988287e-01
  2.442079e+01    8.282036e-01
  2.443666e+01    8.087535e-01
  2.445254e+01    8.033369e-01
  2.446842e+01    8.139269e-01
  2.448429e+01    8.069599e-01
  2.450017e+01    8.083402e-01
  2.451604e+01    8.191385e-01
  2.453192e+01    7.932006e-01
  2.454779e+01    8.121289e-01
  2.456367e+01    8.118573e-01
  2.457954e+01    8.142796e-01
  2.459542e+01    8.004655e-01
  2.461130e+01    8.184648e-01
  2.462717e+01    8.356623e-01
  2.464305e+01    8.295756e-01
  2.465892e+01    8.189329e-01
  2.467480e+01    8.379168e-01
  2.469067e+01    8.315593e-01
  2.470655e+01    8.001302e-01
  2.472242e+01    8.045084e-01
  2.473830e+01    8.121639e-01
  2.475418e+01    8.082316e-01
  2.477005e+01    8.050541e-01
  2.478593e+01    8.143483e-01
  2.480180e+01    8.181083e-01
  2.481768e+01    7.984760e-01
  2.483355e+01    8.037723e-01
  2.484943e+01    8.291533e-01
  2.486530e+01    8.253022e-01
  2.488118e+01    8.175176e-01
  2.489706e+01    8.121752e-01
  2.491293e+01    8.056892e-01
  2.492881e+01    8.143360e-01
  2.494468e+01    8.164406e-01
  2.496056e+01    8.169160e-01
  2.497643e+01    8.078449e-01
  2.499231e+01    8.115786e-01
  2.500819e+01    8.156276e-01
  2.502406e+01    8.119880e-01
  2.503994e+01    8.247172e-01
  2.505581e+01    8.263392e-01
  2.507169e+01    8.195398e-01
  2.508756e+01    8.201817e-01
  2.510344e+01    8.282948e-01
  2.511931e+01    8.304650e-01
  2.513519e+01    8.246248e-01
  2.515107e+01    8.322826e-01
  2.516694e+01    8.220960e-01
  2.518282e+01    8.403442e-01
  2.519869e+01    8.538411e-01
  2.521457e+01    8.584977e-01
  2.523044e+01    8.489164e-01
  2.524632e+01    8.595321e-01
  2.526219e+01    8.933514e-01
  2.527807e+01    9.067270e-01
  2.529395e+01    8.917826e-01
  2.530982e+01    8.813135e-01
  2.532570e+01    8.831685e-01
  2.534157e+01    8.921086e-01
  2.535745e+01    9.149054e-01
  2.537332e+01    8.937979e-01
  2.538920e+01    9.013966e-01
  2.540507e+01    9.262371e-01
  2.542095e+01    9.327552e-01
  2.543683e+01    9.294921e-01
  2.545270e+01    9.364798e-01
  2.546858e+01    9.293241e-01
  2.548445e+01    9.481283e-01
  2.550033e+01    9.690137e-01
  2.551620e+01    9.881431e-01
  2.553208e+01    1.007661e+00
  2.554795e+01    1.012185e+00
  2.556383e+01    1.035508e+00
  2.557971e+01    1.072166e+00
  2.559558e+01    1.093670e+00
  2.561146e+01    1.102978e+00
  2.562733e+01    1.144556e+00
  2.564321e+01    1.182172e+00
  2.565908e+01    1.207814e+00
  2.567496e+01    1.240523e+00
  2.569083e+01    1.295524e+00
  2.570671e+01    1.364049e+00
  2.572259e+01    1.471214e+00
  2.573846e+01    1.573622e+00
  2.575434e+01    1.676961e+00
  2.577021e+01    1.810283e+00
  2.578609e+01    1.980607e+00
  2.580196e+01    2.191982e+00
  2.581784e+01    2.448431e+00
  2.583371e+01    2.759297e+00
  2.584959e+01    3.133631e+00
  2.586547e+01    3.605129e+00
  2.588134e+01    4.160266e+00
  2.589722e+01    4.759660e+00
  2.591309e+01    5.519644e+00
  2.592897e+01    6.266601e+00
  2.594484e+01    7.073398e+00
  2.596072e+01    7.906463e+00
  2.597660e+01    8.569617e+00
  2.599247e+01    9.027164e+00
  2.600835e+01    9.241872e+00
  2.602422e+01    9.006223e+00
  2.604010e+01    8.559479e+00
  2.605597e+01    7.787596e+00
  2.607185e+01    6.753169e+00
  2.608772e+01    5.813123e+00
  2.610360e+01    4.943501e+00
  2.611948e+01    4.219808e+00
  2.613535e+01    3.644681e+00
  2.615123e+01    3.146298e+00
  2.616710e+01    2.779161e+00
  2.618298e+01    2.475499e+00
  2.619885e+01    2.178737e+00
  2.621473e+01    1.975231e+00
  2.623060e+01    1.842617e+00
  2.624648e+01    1.717533e+00
  2.626236e+01    1.575615e+00
  2.627823e+01    1.481698e+00
  2.629411e+01    1.423464e+00
  2.630998e+01    1.349979e+00
  2.632586e+01    1.302083e+00
  2.634173e+01    1.259149e+00
  2.635761e+01    1.199108e+00
  2.637348e+01    1.145242e+00
  2.638936e+01    1.117367e+00
  2.640524e+01    1.095126e+00
  2.642111e+01    1.088746e+00
  2.643699e+01    1.063519e+00
  2.645286e+01    1.054147e+00
  2.646874e+01    1.037936e+00
  2.648461e+01    1.021386e+00
  2.650049e+01    1.017125e+00
  2.651636e+01    9.945948e-01
  2.653224e+01    1.002521e+00
  2.654812e+01    9.905408e-01
  2.656399e+01    9.743374e-01
  2.657987e+01    9.696982e-01
  2.659574e+01    9.635278e-01
  2.661162e+01    9.558603e-01
  2.662749e+01    9.452741e-01
  2.664337e+01    9.395736e-01
  2.665924e+01    9.262903e-01
  2.667512e+01    9.344690e-01
  2.669100e+01    9.604604e-01
  2.670687e+01    9.427904e-01
  2.672275e+01    9.266573e-01
  2.673862e+01    9.483839e-01
  2.675450e+01    9.268650e-01
  2.677037e+01    9.234557e-01
  2.678625e+01    9.076686e-01
  2.680212e+01    9.169217e-01
  2.681800e+01    9.194057e-01
  2.683388e+01    9.135438e-01
  2.684975e+01    9.265500e-01
  2.686563e+01    9.254788e-01
  2.688150e+01    9.286039e-01
  2.689738e+01    9.306118e-01
  2.691325e+01    9.427471e-01
  2.692913e+01    9.417129e-01
  2.694501e+01    9.436852e-01
  2.696088e+01    9.659383e-01
  2.697676e+01    9.885324e-01
  2.699263e+01    1.000720e+00
  2.700851e+01    1.006353e+00
  2.702438e+01    1.052801e+00
  2.704026e+01    1.079808e+00
  2.705613e+01    1.124336e+00
  2.707201e+01    1.167547e+00
  2.708789e+01    1.222983e+00
  2.710376e+01    1.251416e+00
  2.711964e+01    1.358855e+00
  2.713551e+01    1.449654e+00
  2.715139e+01    1.573834e+00
  2.716726e+01    1.685348e+00
  2.718314e+01    1.837826e+00
  2.719901e+01    2.016429e+00
  2.721489e+01    2.216888e+00
  2.723077e+01    2.408335e+00
  2.724664e+01    2.539272e+00
  2.726252e+01    2.588407e+00
  2.727839e+01    2.607358e+00
  2.729427e+01    2.547360e+00
  2.731014e+01    2.390884e+00
  2.732602e+01    2.210433e+00
  2.734189e+01    1.991512e+00
  2.735777e+01    1.819633e+00
  2.737365e+01    1.675217e+00
  2.738952e+01    1.507805e+00
  2.740540e+01    1.396894e+00
  2.742127e+01    1.292509e+00
  2.743715e+01    1.203735e+00
  2.745302e+01    1.159541e+00
  2.746890e+01    1.110938e+00
  2.748477e+01    1.063666e+00
  2.750065e+01    1.021017e+00
  2.751653e+01    9.883468e-01
  2.753240e+01    9.828450e-01
  2.754828e+01    9.737092e-01
  2.756415e+01    9.472496e-01
  2.758003e+01    9.180691e-01
  2.759590e+01    9.296635e-01
  2.761178e+01    9.330627e-01
  2.762765e+01    8.940532e-01
  2.764353e+01    8.847723e-01
  2.765941e+01    8.836352e-01
  2.767528e+01    8.801772e-01
  2.769116e+01    8.863307e-01
  2.770703e+01    8.858752e-01
  2.772291e+01    8.838143e-01
  2.773878e+01    8.757474e-01
  2.775466e+01    8.491076e-01
  2.777054e+01    8.441242e-01
  2.778641e+01    8.317750e-01
  2.780229e+01    8.372800e-01
  2.781816e+01    8.308491e-01
  2.783404e+01    8.330317e-01
  2.784991e+01    8.382216e-01
  2.786579e+01    8.422742e-01
  2.788166e+01    8.308802e-01
  2.789754e+01    8.192627e-01
  2.791342e+01    8.085465e-01
  2.792929e+01    8.116049e-01
  2.794517e+01    8.126668e-01
  2.796104e+01    8.238016e-01
  2.797692e+01    8.268074e-01
  2.799279e+01    8.139490e-01
  2.800867e+01    8.169928e-01
  2.802454e+01    8.231084e-01
  2.804042e+01    8.247545e-01
  2.805630e+01    8.117628e-01
  2.807217e+01    7.874935e-01
  2.808805e+01    8.030253e-01
  2.810392e+01    8.252073e-01
  2.811980e+01    8.256019e-01
  2.813567e+01    7.981770e-01
  2.815155e+01    7.992450e-01
  2.816742e+01    8.103635e-01
  2.818330e+01    7.926716e-01
  2.819918e+01    7.944908e-01
  2.821505e+01    8.005431e-01
  2.823093e+01    7.850432e-01
  2.824680e+01    7.938859e-01
  2.826268e+01    7.868291e-01
  2.827855e+01    7.850206e-01
  2.829443e+01    8.021639e-01
  2.831030e+01    7.950263e-01
  2.832618e+01    7.845960e-01
  2.834206e+01    7.870129e-01
  2.835793e+01    7.916589e-01
  2.837381e+01    7.955316e-01
  2.838968e+01    7.881185e-01
  2.840556e+01    7.818490e-01
  2.842143e+01    7.745490e-01
  2.843731e+01    7.764035e-01
  2.845318e+01    7.919782e-01
  2.846906e+01    7.911325e-01
  2.848494e+01    7.768743e-01
  2.850081e+01    7.703713e-01
  2.851669e+01    7.743539e-01
  2.853256e+01    7.794747e-01
  2.854844e+01    7.812735e-01
  2.856431e+01    7.917512e-01
  2.858019e+01    7.791694e-01
  2.859606e+01    7.921652e-01
  2.861194e+01    7.869075e-01
  2.862782e+01    7.717469e-01
  2.864369e+01    7.800739e-01
  2.865957e+01    7.678776e-01
  2.867544e+01    7.627259e-01
  2.869132e+01    7.595509e-01
  2.870719e+01    7.709320e-01
  2.872307e+01    7.789295e-01
  2.873895e+01    7.804805e-01
  2.875482e+01    7.864199e-01
  2.877070e+01    7.643682e-01
  2.878657e+01    7.785397e-01
  2.880245e+01    7.894403e-01
  2.881832e+01    7.719571e-01
  2.883420e+01    7.514205e-01
  2.885007e+01    7.707834e-01
  2.886595e+01    7.758121e-01
  2.888183e+01    7.896087e-01
  2.889770e+01    7.668312e-01
  2.891358e+01    7.536762e-01
  2.892945e+01    7.690099e-01
  2.894533e+01    7.903888e-01
  2.896120e+01    7.961707e-01
  2.897708e+01    7.762017e-01
  2.899295e+01    7.552620e-01
  2.900883e+01    7.540504e-01
  2.902471e+01    7.460635e-01
  2.904058e+01    7.475839e-01
  2.905646e+01    7.418133e-01
  2.907233e+01    7.433099e-01
  2.908821e+01    7.621468e-01
  2.910408e+01    7.555369e-01
  2.911996e+01    7.781980e-01
  2.913583e+01    7.825789e-01
  2.915171e+01    7.589998e-01
  2.916759e+01    7.597516e-01
  2.918346e+01    7.438920e-01
  2.919934e+01    7.433730e-01
  2.921521e+01    7.202112e-01
  2.923109e+01    7.352018e-01
  2.924696e+01    7.624396e-01
  2.926284e+01    7.482706e-01
  2.927871e+01    7.609222e-01
  2.929459e+01    7.462109e-01
  2.931047e+01    7.425889e-01
  2.932634e+01    7.452385e-01
  2.934222e+01    7.391365e-01
  2.935809e+01    7.371362e-01
  2.937397e+01    7.467830e-01
  2.938984e+01    7.395305e-01
  2.940572e+01    7.352002e-01
  2.942159e+01    7.489384e-01
  2.943747e+01    7.642427e-01
  2.945335e+01    7.677286e-01
  2.946922e+01    7.394354e-01
  2.948510e+01    7.413645e-01
  2.950097e+01    7.646716e-01
  2.951685e+01    7.584465e-01
  2.953272e+01    7.508542e-01
  2.954860e+01    7.378691e-01
  2.956447e+01    7.114165e-01
  2.958035e+01    7.304281e-01
  2.959623e+01    7.337098e-01
  2.961210e+01    7.204596e-01
  2.962798e+01    7.355090e-01
  2.964385e+01    7.401969e-01
  2.965973e+01    7.449624e-01
  2.967560e+01    7.399523e-01
  2.969148e+01    7.445071e-01
  2.970736e+01    7.361488e-01
  2.972323e+01    7.211438e-01
  2.973911e+01    7.329476e-01
  2.975498e+01    7.361459e-01
  2.977086e+01    7.384028e-01
  2.978673e+01    7.314104e-01
  2.980261e+01    7.346882e-01
  2.981848e+01    7.462081e-01
  2.983436e+01    7.465782e-01
  2.985024e+01    7.267205e-01
  2.986611e+01    7.237046e-01
  2.988199e+01    7.226414e-01
  2.989786e+01    7.346425e-01
  2.991374e+01    7.597737e-01
  2.992961e+01    7.414203e-01
  2.994549e+01    7.321788e-01
  2.996136e+01    7.250183e-01
  2.997724e+01    7.172619e-01
  2.999312e+01    7.285838e-01
  3.000899e+01    7.413343e-01
  3.002487e+01    7.590212e-01
  3.004074e+01    7.495831e-01
  3.005662e+01    7.545216e-01
  3.007249e+01    7.718001e-01
  3.008837e+01    7.675479e-01
  3.010424e+01    7.416117e-01
  3.012012e+01    7.327270e-01
  3.013600e+01    7.296491e-01
  3.015187e+01    7.329628e-01
  3.016775e+01    7.208910e-01
  3.018362e+01    7.384443e-01
  3.019950e+01    7.364859e-01
  3.021537e+01    7.435938e-01
  3.023125e+01    7.276214e-01
  3.024712e+01    7.312929e-01
  3.026300e+01    7.129200e-01
  3.027888e+01    7.217368e-01
  3.029475e+01    7.285944e-01
  3.031063e+01    7.414397e-01
  3.032650e+01    7.443305e-01
  3.034238e+01    7.403691e-01
  3.035825e+01    7.299853e-01
  3.037413e+01    7.371058e-01
  3.039000e+01    7.485607e-01
  3.040588e+01    7.326491e-01
  3.042176e+01    7.207866e-01
  3.043763e+01    7.236654e-01
  3.045351e+01    7.525826e-01
  3.046938e+01    7.227121e-01
  3.048526e+01    7.202013e-01
  3.050113e+01    7.231803e-01
  3.051701e+01    7.129530e-01
  3.053288e+01    7.222348e-01
  3.054876e+01    7.202088e-01
  3.056464e+01    7.120029e-01
  3.058051e+01    7.451859e-01
  3.059639e+01    7.270293e-01
  3.061226e+01    7.243611e-01
  3.062814e+01    7.327988e-01
  3.064401e+01    7.306903e-01
  3.065989e+01    7.323289e-01
  3.067577e+01    7.204673e-01
  3.069164e+01    7.222435e-01
  3.070752e+01    7.388124e-01
  3.072339e+01    7.060049e-01
  3.073927e+01    7.315407e-01
  3.075514e+01    7.476940e-01
  3.077102e+01    7.347310e-01
  3.078689e+01    7.305524e-01
  3.080277e+01    7.196304e-01
  3.081865e+01    7.418313e-01
  3.083452e+01    7.303562e-01
  3.085040e+01    7.291993e-01
  3.086627e+01    7.374987e-01
  3.088215e+01    7.231772e-01
  3.089802e+01    7.341319e-01
  3.091390e+01    7.379270e-01
  3.092977e+01    7.328635e-01
  3.094565e+01    7.296047e-01
  3.096153e+01    7.350286e-01
  3.097740e+01    7.161614e-01
  3.099328e+01    7.150055e-01
  3.100915e+01    7.314730e-01
  3.102503e+01    7.577404e-01
  3.104090e+01    7.406869e-01
  3.105678e+01    7.433239e-01
  3.107265e+01    7.189261e-01
  3.108853e+01    7.271560e-01
  3.110441e+01    7.642511e-01
  3.112028e+01    7.479505e-01
  3.113616e+01    7.510427e-01
  3.115203e+01    7.344933e-01
  3.116791e+01    7.262173e-01
  3.118378e+01    7.383770e-01
  3.119966e+01    7.532323e-01
  3.121553e+01    7.524123e-01
  3.123141e+01    7.496372e-01
  3.124729e+01    7.489536e-01
  3.126316e+01    7.456484e-01
  3.127904e+01    7.695141e-01
  3.129491e+01    7.567480e-01
  3.131079e+01    7.296532e-01
  3.132666e+01    7.376996e-01
  3.134254e+01    7.355676e-01
  3.135841e+01    7.505322e-01
  3.137429e+01    7.679629e-01
  3.139017e+01    7.807329e-01
  3.140604e+01    7.845827e-01
  3.142192e+01    7.366886e-01
  3.143779e+01    7.562107e-01
  3.145367e+01    7.608190e-01
  3.146954e+01    7.978236e-01
  3.148542e+01    7.849900e-01
  3.150129e+01    7.883014e-01
  3.151717e+01    8.010409e-01
  3.153305e+01    8.128012e-01
  3.154892e+01    7.934630e-01
  3.156480e+01    7.734961e-01
  3.158067e+01    7.965127e-01
  3.159655e+01    8.018857e-01
  3.161242e+01    8.289301e-01
  3.162830e+01    8.119680e-01
  3.164418e+01    8.348027e-01
  3.166005e+01    8.526524e-01
  3.167593e+01    8.651831e-01
  3.169180e+01    9.018276e-01
  3.170768e+01    9.473515e-01
  3.172355e+01    9.457210e-01
  3.173943e+01    9.633521e-01
  3.175530e+01    1.025016e+00
  3.177118e+01    1.057985e+00
  3.178706e+01    1.116482e+00
  3.180293e+01    1.170052e+00
  3.181881e+01    1.266963e+00
  3.183468e+01    1.378257e+00
  3.185056e+01    1.514782e+00
  3.186643e+01    1.661341e+00
  3.188231e+01    1.854554e+00
  3.189818e+01    2.044029e+00
  3.191406e+01    2.198709e+00
  3.192994e+01    2.396569e+00
  3.194581e+01    2.550071e+00
  3.196169e+01    2.591742e+00
  3.197756e+01    2.579606e+00
  3.199344e+01    2.497131e+00
  3.200931e+01    2.329724e+00
  3.202519e+01    2.144634e+00
  3.204106e+01    1.968566e+00
  3.205694e+01    1.771415e+00
  3.207282e+01    1.616018e+00
  3.208869e+01    1.445222e+00
  3.210457e+01    1.314552e+00
  3.212044e+01    1.246860e+00
  3.213632e+01    1.158132e+00
  3.215219e+01    1.071210e+00
  3.216807e+01    1.017268e+00
  3.218394e+01    9.930212e-01
  3.219982e+01    9.547462e-01
  3.221570e+01    9.042678e-01
  3.223157e+01    8.714131e-01
  3.224745e+01    8.762862e-01
  3.226332e+01    8.695572e-01
  3.227920e+01    8.569596e-01
  3.229507e+01    8.123022e-01
  3.231095e+01    8.190278e-01
  3.232682e+01    8.077526e-01
  3.234270e+01    8.124400e-01
  3.235858e+01    7.804140e-01
  3.237445e+01    7.976176e-01
  3.239033e+01    7.738691e-01
  3.240620e+01    7.753072e-01
  3.242208e+01    7.777227e-01
  3.243795e+01    7.551296e-01
  3.245383e+01    7.415252e-01
  3.246970e+01    7.617062e-01
  3.248558e+01    7.641259e-01
  3.250146e+01    7.657484e-01
  3.251733e+01    7.533569e-01
  3.253321e+01    7.196348e-01
  3.254908e+01    7.452522e-01
