# == pyFAI calibration ==
# Distance Sample to Detector: 0.3999999939076516 m
# PONI: 9.750e-02, 1.135e-01 m
# Rotations: -0.000175 0.000000 -0.000000 rad
# 
# == Fit2d calibration ==
# Distance Sample-beamCenter: 400.000 mm
# Center: x=1514.000, y=1300.000 pix
# Tilt: 0.010 deg  TiltPlanRot: 0.010 deg
# 
# Detector Detector	 Spline= None	 PixelSize= 7.500e-05, 7.500e-05 m
#    Detector has a mask: False 
#    Detector has a dark current: False 
#    detector has a flat field: False 
# 
# Wavelength: 6.888e-11 m
# Mask applied: user provided
# Dark current applied: False
# Flat field applied: False
# Polarization factor: 0.99
# Normalization factor: 1.0
# --> /home/myspot/data/2024_07_Rosario/Ru-CGO-ex/2024-07-27_002_Ru-CGO-ex_Activtation_ramp_000002_data_000171.dat
#       q_nm^-1             I 
  2.003187e-02    1.424646e-01
  3.590745e-02    0.000000e+00
  5.178302e-02    7.387542e-02
  6.765859e-02    1.559161e-01
  8.353417e-02    1.158742e-01
  9.940974e-02    8.793847e-02
  1.152853e-01    1.412721e-01
  1.311609e-01    7.662805e-02
  1.470365e-01    1.243712e-02
  1.629120e-01    0.000000e+00
  1.787876e-01    4.590868e-02
  1.946632e-01    6.803233e-02
  2.105388e-01    7.565907e-02
  2.264143e-01    7.879025e-02
  2.422899e-01    4.831280e-02
  2.581655e-01    3.948557e-02
  2.740411e-01    6.735312e-02
  2.899166e-01    3.421351e-02
  3.057922e-01    5.497773e-02
  3.216678e-01    7.091253e-02
  3.375433e-01    5.134417e-02
  3.534189e-01    2.572176e-02
  3.692945e-01    2.927081e-02
  3.851701e-01    1.865217e-02
  4.010456e-01    2.995012e-02
  4.169212e-01    5.998206e-02
  4.327968e-01    2.815823e-02
  4.486724e-01    1.984621e-02
  4.645479e-01    4.292975e-02
  4.804235e-01    3.986951e-02
  4.962991e-01    4.125814e-02
  5.121747e-01    5.805907e-02
  5.280502e-01    3.802342e-02
  5.439258e-01    2.338691e-02
  5.598014e-01    3.959174e-02
  5.756770e-01    4.371111e-02
  5.915525e-01    3.509839e-02
  6.074281e-01    1.418443e-02
  6.233037e-01    2.085524e-02
  6.391793e-01    3.766811e-02
  6.550548e-01    3.829172e-02
  6.709304e-01    1.579298e-02
  6.868060e-01    2.786189e-02
  7.026815e-01    3.341564e-02
  7.185571e-01    5.797900e-02
  7.344327e-01    5.360795e-02
  7.503083e-01    4.955619e-02
  7.661838e-01    6.439186e-02
  7.820594e-01    1.151580e-01
  7.979350e-01    1.615564e-01
  8.138106e-01    1.607731e-01
  8.296861e-01    2.947029e-01
  8.455617e-01    3.581421e-01
  8.614373e-01    3.833003e-01
  8.773129e-01    4.178906e-01
  8.931884e-01    4.761438e-01
  9.090640e-01    5.459608e-01
  9.249396e-01    6.502163e-01
  9.408152e-01    7.378492e-01
  9.566907e-01    8.204789e-01
  9.725663e-01    8.932585e-01
  9.884419e-01    9.623972e-01
  1.004317e+00    1.046085e+00
  1.020193e+00    1.215407e+00
  1.036069e+00    1.192076e+00
  1.051944e+00    1.295071e+00
  1.067820e+00    1.332279e+00
  1.083695e+00    1.404787e+00
  1.099571e+00    1.319864e+00
  1.115446e+00    1.381400e+00
  1.131322e+00    1.459162e+00
  1.147198e+00    1.444325e+00
  1.163073e+00    1.507173e+00
  1.178949e+00    1.559583e+00
  1.194824e+00    1.564052e+00
  1.210700e+00    1.664362e+00
  1.226575e+00    1.904268e+00
  1.242451e+00    2.164395e+00
  1.258327e+00    2.200455e+00
  1.274202e+00    2.279998e+00
  1.290078e+00    2.344332e+00
  1.305953e+00    2.598999e+00
  1.321829e+00    2.517683e+00
  1.337705e+00    2.532859e+00
  1.353580e+00    2.502889e+00
  1.369456e+00    2.574727e+00
  1.385331e+00    2.600301e+00
  1.401207e+00    2.569916e+00
  1.417082e+00    2.654894e+00
  1.432958e+00    2.590586e+00
  1.448834e+00    2.723928e+00
  1.464709e+00    2.858746e+00
  1.480585e+00    2.785551e+00
  1.496460e+00    2.740264e+00
  1.512336e+00    2.759357e+00
  1.528211e+00    2.849964e+00
  1.544087e+00    3.008159e+00
  1.559963e+00    2.956573e+00
  1.575838e+00    2.685138e+00
  1.591714e+00    2.828195e+00
  1.607589e+00    2.839774e+00
  1.623465e+00    2.871961e+00
  1.639340e+00    2.920335e+00
  1.655216e+00    2.920869e+00
  1.671092e+00    2.821805e+00
  1.686967e+00    2.816005e+00
  1.702843e+00    2.730237e+00
  1.718718e+00    2.641939e+00
  1.734594e+00    2.622909e+00
  1.750469e+00    2.683017e+00
  1.766345e+00    2.828695e+00
  1.782221e+00    2.792530e+00
  1.798096e+00    2.739306e+00
  1.813972e+00    2.733124e+00
  1.829847e+00    2.763720e+00
  1.845723e+00    2.771029e+00
  1.861598e+00    2.693755e+00
  1.877474e+00    2.601349e+00
  1.893350e+00    2.643684e+00
  1.909225e+00    2.716194e+00
  1.925101e+00    2.654037e+00
  1.940976e+00    2.695071e+00
  1.956852e+00    2.739953e+00
  1.972727e+00    2.812812e+00
  1.988603e+00    2.757704e+00
  2.004479e+00    2.743424e+00
  2.020354e+00    2.794758e+00
  2.036230e+00    2.806643e+00
  2.052105e+00    2.719606e+00
  2.067981e+00    2.668250e+00
  2.083856e+00    2.657289e+00
  2.099732e+00    2.691943e+00
  2.115608e+00    2.824565e+00
  2.131483e+00    2.769490e+00
  2.147359e+00    2.703168e+00
  2.163234e+00    2.741477e+00
  2.179110e+00    2.791954e+00
  2.194985e+00    2.722669e+00
  2.210861e+00    2.673844e+00
  2.226737e+00    2.718839e+00
  2.242612e+00    2.725744e+00
  2.258488e+00    2.637703e+00
  2.274363e+00    2.810060e+00
  2.290239e+00    2.786394e+00
  2.306115e+00    2.663787e+00
  2.321990e+00    2.708013e+00
  2.337866e+00    2.734073e+00
  2.353741e+00    2.693558e+00
  2.369617e+00    2.648796e+00
  2.385492e+00    2.794855e+00
  2.401368e+00    2.789645e+00
  2.417244e+00    2.735697e+00
  2.433119e+00    2.616779e+00
  2.448995e+00    2.597120e+00
  2.464870e+00    2.737437e+00
  2.480746e+00    2.853825e+00
  2.496621e+00    2.865680e+00
  2.512497e+00    2.756072e+00
  2.528373e+00    2.735172e+00
  2.544248e+00    2.772940e+00
  2.560124e+00    2.875582e+00
  2.575999e+00    2.837606e+00
  2.591875e+00    2.777720e+00
  2.607750e+00    2.743903e+00
  2.623626e+00    2.751909e+00
  2.639502e+00    2.858371e+00
  2.655377e+00    2.821776e+00
  2.671253e+00    2.742264e+00
  2.687128e+00    2.742144e+00
  2.703004e+00    2.781497e+00
  2.718879e+00    2.779367e+00
  2.734755e+00    2.842202e+00
  2.750631e+00    2.852899e+00
  2.766506e+00    2.810215e+00
  2.782382e+00    2.829349e+00
  2.798257e+00    2.877382e+00
  2.814133e+00    2.920672e+00
  2.830008e+00    2.904409e+00
  2.845884e+00    2.864206e+00
  2.861760e+00    2.841977e+00
  2.877635e+00    2.855575e+00
  2.893511e+00    2.891358e+00
  2.909386e+00    2.884059e+00
  2.925262e+00    2.881011e+00
  2.941137e+00    2.888381e+00
  2.957013e+00    2.857160e+00
  2.972889e+00    2.896880e+00
  2.988764e+00    2.885255e+00
  3.004640e+00    2.843403e+00
  3.020515e+00    2.869953e+00
  3.036391e+00    2.951117e+00
  3.052266e+00    2.969066e+00
  3.068142e+00    3.018481e+00
  3.084018e+00    2.910780e+00
  3.099893e+00    2.878500e+00
  3.115769e+00    2.886675e+00
  3.131644e+00    2.850036e+00
  3.147520e+00    2.887467e+00
  3.163395e+00    2.926282e+00
  3.179271e+00    2.997379e+00
  3.195147e+00    3.008266e+00
  3.211022e+00    2.942707e+00
  3.226898e+00    2.935493e+00
  3.242773e+00    2.961089e+00
  3.258649e+00    2.900634e+00
  3.274525e+00    2.886138e+00
  3.290400e+00    2.915632e+00
  3.306276e+00    2.924589e+00
  3.322151e+00    2.943084e+00
  3.338027e+00    2.883721e+00
  3.353902e+00    2.929564e+00
  3.369778e+00    2.920534e+00
  3.385654e+00    3.000481e+00
  3.401529e+00    3.020463e+00
  3.417405e+00    2.963372e+00
  3.433280e+00    2.940132e+00
  3.449156e+00    3.011671e+00
  3.465031e+00    2.918013e+00
  3.480907e+00    2.984572e+00
  3.496783e+00    3.037304e+00
  3.512658e+00    2.986706e+00
  3.528534e+00    2.924327e+00
  3.544409e+00    2.904493e+00
  3.560285e+00    2.944634e+00
  3.576160e+00    2.878232e+00
  3.592036e+00    3.021014e+00
  3.607912e+00    3.056924e+00
  3.623787e+00    3.068368e+00
  3.639663e+00    3.047457e+00
  3.655538e+00    3.056553e+00
  3.671414e+00    3.008869e+00
  3.687289e+00    2.965386e+00
  3.703165e+00    3.052543e+00
  3.719041e+00    3.055218e+00
  3.734916e+00    2.982888e+00
  3.750792e+00    2.980385e+00
  3.766667e+00    2.928312e+00
  3.782543e+00    2.932562e+00
  3.798418e+00    3.042915e+00
  3.814294e+00    2.994548e+00
  3.830170e+00    3.017563e+00
  3.846045e+00    2.995924e+00
  3.861921e+00    3.014863e+00
  3.877796e+00    3.025946e+00
  3.893672e+00    2.996806e+00
  3.909547e+00    3.087774e+00
  3.925423e+00    3.099359e+00
  3.941299e+00    3.101964e+00
  3.957174e+00    3.056949e+00
  3.973050e+00    3.045569e+00
  3.988925e+00    3.116159e+00
  4.004801e+00    3.068535e+00
  4.020676e+00    3.003461e+00
  4.036552e+00    3.034878e+00
  4.052428e+00    3.039512e+00
  4.068303e+00    3.008071e+00
  4.084179e+00    3.050662e+00
  4.100054e+00    3.059192e+00
  4.115930e+00    2.999069e+00
  4.131806e+00    3.011792e+00
  4.147681e+00    3.014405e+00
  4.163557e+00    3.042671e+00
  4.179432e+00    3.049262e+00
  4.195308e+00    3.031286e+00
  4.211183e+00    2.982872e+00
  4.227059e+00    3.056681e+00
  4.242935e+00    3.106121e+00
  4.258810e+00    3.051953e+00
  4.274686e+00    2.989656e+00
  4.290561e+00    3.009386e+00
  4.306437e+00    3.047759e+00
  4.322312e+00    3.075836e+00
  4.338188e+00    3.029038e+00
  4.354064e+00    3.078917e+00
  4.369939e+00    3.118720e+00
  4.385815e+00    3.183306e+00
  4.401690e+00    3.165225e+00
  4.417566e+00    3.115914e+00
  4.433441e+00    3.116116e+00
  4.449317e+00    3.017183e+00
  4.465193e+00    2.976240e+00
  4.481068e+00    3.052465e+00
  4.496944e+00    3.131668e+00
  4.512819e+00    3.083578e+00
  4.528695e+00    3.083025e+00
  4.544570e+00    3.126370e+00
  4.560446e+00    3.121540e+00
  4.576322e+00    3.130916e+00
  4.592197e+00    3.102785e+00
  4.608073e+00    3.190044e+00
  4.623948e+00    3.101045e+00
  4.639824e+00    3.065697e+00
  4.655699e+00    3.022426e+00
  4.671575e+00    3.094453e+00
  4.687451e+00    3.106363e+00
  4.703326e+00    3.090991e+00
  4.719202e+00    3.092672e+00
  4.735077e+00    3.221615e+00
  4.750953e+00    3.224358e+00
  4.766828e+00    3.104414e+00
  4.782704e+00    3.161009e+00
  4.798580e+00    3.146437e+00
  4.814455e+00    3.137545e+00
  4.830331e+00    3.181215e+00
  4.846206e+00    3.168455e+00
  4.862082e+00    3.170892e+00
  4.877957e+00    3.119870e+00
  4.893833e+00    3.015160e+00
  4.909709e+00    3.086569e+00
  4.925584e+00    3.052231e+00
  4.941460e+00    3.086896e+00
  4.957335e+00    3.215181e+00
  4.973211e+00    3.230301e+00
  4.989086e+00    3.165611e+00
  5.004962e+00    3.075405e+00
  5.020838e+00    3.080962e+00
  5.036713e+00    3.100512e+00
  5.052589e+00    3.188480e+00
  5.068464e+00    3.124315e+00
  5.084340e+00    3.105083e+00
  5.100216e+00    3.148053e+00
  5.116091e+00    3.088443e+00
  5.131967e+00    3.135866e+00
  5.147842e+00    3.159304e+00
  5.163718e+00    3.133035e+00
  5.179593e+00    3.168254e+00
  5.195469e+00    3.124759e+00
  5.211345e+00    3.122241e+00
  5.227220e+00    3.121545e+00
  5.243096e+00    3.180703e+00
  5.258971e+00    3.177928e+00
  5.274847e+00    3.181286e+00
  5.290722e+00    3.208631e+00
  5.306598e+00    3.098854e+00
  5.322474e+00    3.199611e+00
  5.338349e+00    3.238709e+00
  5.354225e+00    3.158973e+00
  5.370100e+00    3.168084e+00
  5.385976e+00    3.203494e+00
  5.401851e+00    3.174189e+00
  5.417727e+00    3.122284e+00
  5.433603e+00    3.159135e+00
  5.449478e+00    3.176161e+00
  5.465354e+00    3.108396e+00
  5.481229e+00    3.124542e+00
  5.497105e+00    3.126365e+00
  5.512980e+00    3.149967e+00
  5.528856e+00    3.148408e+00
  5.544732e+00    3.176905e+00
  5.560607e+00    3.132214e+00
  5.576483e+00    3.075546e+00
  5.592358e+00    3.110912e+00
  5.608234e+00    3.069968e+00
  5.624109e+00    3.106932e+00
  5.639985e+00    3.044163e+00
  5.655861e+00    2.985015e+00
  5.671736e+00    3.073405e+00
  5.687612e+00    3.091807e+00
  5.703487e+00    3.060611e+00
  5.719363e+00    3.066072e+00
  5.735238e+00    3.090891e+00
  5.751114e+00    3.086053e+00
  5.766990e+00    3.110429e+00
  5.782865e+00    3.058274e+00
  5.798741e+00    3.054965e+00
  5.814616e+00    3.067533e+00
  5.830492e+00    3.104155e+00
  5.846367e+00    3.151493e+00
  5.862243e+00    3.059925e+00
  5.878119e+00    3.008649e+00
  5.893994e+00    3.019100e+00
  5.909870e+00    3.006056e+00
  5.925745e+00    2.975907e+00
  5.941621e+00    3.026020e+00
  5.957497e+00    3.023107e+00
  5.973372e+00    3.024956e+00
  5.989248e+00    2.983835e+00
  6.005123e+00    2.983546e+00
  6.020999e+00    3.005788e+00
  6.036874e+00    3.014515e+00
  6.052750e+00    3.003648e+00
  6.068626e+00    3.092746e+00
  6.084501e+00    3.111862e+00
  6.100377e+00    3.124885e+00
  6.116252e+00    3.148161e+00
  6.132128e+00    3.125872e+00
  6.148003e+00    3.129699e+00
  6.163879e+00    3.096245e+00
  6.179755e+00    3.051975e+00
  6.195630e+00    2.995224e+00
  6.211506e+00    3.051847e+00
  6.227381e+00    3.086572e+00
  6.243257e+00    3.095082e+00
  6.259132e+00    3.085253e+00
  6.275008e+00    3.096394e+00
  6.290884e+00    3.098151e+00
  6.306759e+00    3.037127e+00
  6.322635e+00    3.047694e+00
  6.338510e+00    3.033683e+00
  6.354386e+00    3.067474e+00
  6.370261e+00    3.012923e+00
  6.386137e+00    3.022217e+00
  6.402013e+00    3.031394e+00
  6.417888e+00    3.025026e+00
  6.433764e+00    2.997542e+00
  6.449639e+00    3.054007e+00
  6.465515e+00    3.096213e+00
  6.481390e+00    3.122165e+00
  6.497266e+00    3.079701e+00
  6.513142e+00    3.079269e+00
  6.529017e+00    3.065588e+00
  6.544893e+00    3.041643e+00
  6.560768e+00    2.991255e+00
  6.576644e+00    3.062303e+00
  6.592519e+00    3.073243e+00
  6.608395e+00    3.061031e+00
  6.624271e+00    3.069673e+00
  6.640146e+00    3.074850e+00
  6.656022e+00    3.037244e+00
  6.671897e+00    3.016775e+00
  6.687773e+00    3.031608e+00
  6.703648e+00    3.145127e+00
  6.719524e+00    3.024107e+00
  6.735400e+00    2.987028e+00
  6.751275e+00    3.105775e+00
  6.767151e+00    3.046312e+00
  6.783026e+00    2.982635e+00
  6.798902e+00    2.975147e+00
  6.814777e+00    2.999858e+00
  6.830653e+00    2.999726e+00
  6.846529e+00    2.983798e+00
  6.862404e+00    2.987432e+00
  6.878280e+00    3.034606e+00
  6.894155e+00    3.027087e+00
  6.910031e+00    3.052674e+00
  6.925907e+00    3.071076e+00
  6.941782e+00    3.032013e+00
  6.957658e+00    3.028411e+00
  6.973533e+00    3.037385e+00
  6.989409e+00    3.059713e+00
  7.005284e+00    3.046124e+00
  7.021160e+00    3.034774e+00
  7.037036e+00    3.103379e+00
  7.052911e+00    3.096892e+00
  7.068787e+00    3.051787e+00
  7.084662e+00    3.072395e+00
  7.100538e+00    3.069371e+00
  7.116413e+00    3.029672e+00
  7.132289e+00    3.037937e+00
  7.148165e+00    3.000215e+00
  7.164040e+00    2.993899e+00
  7.179916e+00    3.020171e+00
  7.195791e+00    3.055178e+00
  7.211667e+00    3.029500e+00
  7.227542e+00    3.024138e+00
  7.243418e+00    3.002833e+00
  7.259294e+00    2.984546e+00
  7.275169e+00    3.012764e+00
  7.291045e+00    3.079909e+00
  7.306920e+00    3.067353e+00
  7.322796e+00    3.066021e+00
  7.338671e+00    2.981450e+00
  7.354547e+00    2.980765e+00
  7.370423e+00    2.994417e+00
  7.386298e+00    2.998185e+00
  7.402174e+00    2.974098e+00
  7.418049e+00    2.999486e+00
  7.433925e+00    2.996094e+00
  7.449800e+00    3.046560e+00
  7.465676e+00    3.007059e+00
  7.481552e+00    2.967304e+00
  7.497427e+00    2.991649e+00
  7.513303e+00    2.988898e+00
  7.529178e+00    2.975655e+00
  7.545054e+00    3.010250e+00
  7.560929e+00    3.007562e+00
  7.576805e+00    2.948878e+00
  7.592681e+00    2.929684e+00
  7.608556e+00    3.008939e+00
  7.624432e+00    2.992013e+00
  7.640307e+00    2.967979e+00
  7.656183e+00    2.953811e+00
  7.672058e+00    2.966456e+00
  7.687934e+00    2.957243e+00
  7.703810e+00    3.029274e+00
  7.719685e+00    2.996743e+00
  7.735561e+00    2.942515e+00
  7.751436e+00    2.957289e+00
  7.767312e+00    2.996861e+00
  7.783187e+00    2.938630e+00
  7.799063e+00    2.906021e+00
  7.814939e+00    2.921129e+00
  7.830814e+00    2.936364e+00
  7.846690e+00    2.966000e+00
  7.862565e+00    2.957461e+00
  7.878441e+00    2.950544e+00
  7.894317e+00    2.947656e+00
  7.910192e+00    2.900630e+00
  7.926068e+00    2.933309e+00
  7.941943e+00    2.883229e+00
  7.957819e+00    2.895470e+00
  7.973694e+00    2.916017e+00
  7.989570e+00    2.986397e+00
  8.005446e+00    2.982533e+00
  8.021321e+00    2.939652e+00
  8.037197e+00    2.930191e+00
  8.053072e+00    2.986470e+00
  8.068948e+00    2.953200e+00
  8.084823e+00    2.941553e+00
  8.100699e+00    2.957075e+00
  8.116575e+00    2.946458e+00
  8.132450e+00    2.967567e+00
  8.148326e+00    2.990633e+00
  8.164201e+00    3.024835e+00
  8.180077e+00    3.010885e+00
  8.195952e+00    2.920394e+00
  8.211828e+00    2.952551e+00
  8.227704e+00    3.003385e+00
  8.243579e+00    3.047355e+00
  8.259455e+00    2.979411e+00
  8.275330e+00    2.957075e+00
  8.291206e+00    2.927096e+00
  8.307081e+00    2.947824e+00
  8.322957e+00    2.921794e+00
  8.338833e+00    2.894897e+00
  8.354708e+00    2.900343e+00
  8.370584e+00    2.940032e+00
  8.386459e+00    2.951034e+00
  8.402335e+00    2.942667e+00
  8.418210e+00    2.943483e+00
  8.434086e+00    2.891241e+00
  8.449962e+00    2.868837e+00
  8.465837e+00    2.894717e+00
  8.481713e+00    2.931477e+00
  8.497588e+00    2.860639e+00
  8.513464e+00    2.883037e+00
  8.529339e+00    2.885504e+00
  8.545215e+00    2.893884e+00
  8.561091e+00    2.899917e+00
  8.576966e+00    2.933469e+00
  8.592842e+00    2.998803e+00
  8.608717e+00    2.894663e+00
  8.624593e+00    2.893430e+00
  8.640468e+00    2.839148e+00
  8.656344e+00    2.876588e+00
  8.672220e+00    2.852415e+00
  8.688095e+00    2.863781e+00
  8.703971e+00    2.919033e+00
  8.719846e+00    2.901202e+00
  8.735722e+00    2.853929e+00
  8.751598e+00    2.938120e+00
  8.767473e+00    2.888702e+00
  8.783349e+00    2.871586e+00
  8.799224e+00    2.877014e+00
  8.815100e+00    2.931537e+00
  8.830975e+00    2.830827e+00
  8.846851e+00    2.821910e+00
  8.862727e+00    2.851429e+00
  8.878602e+00    2.884868e+00
  8.894478e+00    2.905180e+00
  8.910353e+00    2.887456e+00
  8.926229e+00    2.798771e+00
  8.942104e+00    2.842978e+00
  8.957980e+00    2.878740e+00
  8.973856e+00    2.845609e+00
  8.989731e+00    2.822579e+00
  9.005607e+00    2.813596e+00
  9.021482e+00    2.825001e+00
  9.037358e+00    2.829611e+00
  9.053233e+00    2.785564e+00
  9.069109e+00    2.822845e+00
  9.084985e+00    2.801506e+00
  9.100860e+00    2.845980e+00
  9.116736e+00    2.824552e+00
  9.132611e+00    2.785553e+00
  9.148487e+00    2.773320e+00
  9.164362e+00    2.811130e+00
  9.180238e+00    2.827910e+00
  9.196114e+00    2.894140e+00
  9.211989e+00    2.869502e+00
  9.227865e+00    2.765001e+00
  9.243740e+00    2.779974e+00
  9.259616e+00    2.829498e+00
  9.275491e+00    2.852297e+00
  9.291367e+00    2.806366e+00
  9.307243e+00    2.779255e+00
  9.323118e+00    2.793596e+00
  9.338994e+00    2.784508e+00
  9.354869e+00    2.778223e+00
  9.370745e+00    2.746582e+00
  9.386620e+00    2.739456e+00
  9.402496e+00    2.727786e+00
  9.418372e+00    2.741759e+00
  9.434247e+00    2.781795e+00
  9.450123e+00    2.744535e+00
  9.465998e+00    2.796281e+00
  9.481874e+00    2.855211e+00
  9.497749e+00    2.781248e+00
  9.513625e+00    2.741358e+00
  9.529501e+00    2.694221e+00
  9.545376e+00    2.775441e+00
  9.561252e+00    2.766004e+00
  9.577127e+00    2.742136e+00
  9.593003e+00    2.728341e+00
  9.608878e+00    2.761915e+00
  9.624754e+00    2.732956e+00
  9.640630e+00    2.769914e+00
  9.656505e+00    2.739337e+00
  9.672381e+00    2.717195e+00
  9.688256e+00    2.779934e+00
  9.704132e+00    2.786782e+00
  9.720008e+00    2.719619e+00
  9.735883e+00    2.743411e+00
  9.751759e+00    2.769897e+00
  9.767634e+00    2.699276e+00
  9.783510e+00    2.719334e+00
  9.799385e+00    2.690418e+00
  9.815261e+00    2.732637e+00
  9.831137e+00    2.730287e+00
  9.847012e+00    2.682985e+00
  9.862888e+00    2.695762e+00
  9.878763e+00    2.692025e+00
  9.894639e+00    2.677110e+00
  9.910514e+00    2.685979e+00
  9.926390e+00    2.704764e+00
  9.942266e+00    2.726843e+00
  9.958141e+00    2.719501e+00
  9.974017e+00    2.692957e+00
  9.989892e+00    2.666418e+00
  1.000577e+01    2.653429e+00
  1.002164e+01    2.645753e+00
  1.003752e+01    2.703040e+00
  1.005339e+01    2.715300e+00
  1.006927e+01    2.712219e+00
  1.008515e+01    2.685679e+00
  1.010102e+01    2.713591e+00
  1.011690e+01    2.672924e+00
  1.013277e+01    2.616002e+00
  1.014865e+01    2.625783e+00
  1.016452e+01    2.644614e+00
  1.018040e+01    2.663968e+00
  1.019627e+01    2.651304e+00
  1.021215e+01    2.615145e+00
  1.022803e+01    2.670442e+00
  1.024390e+01    2.665719e+00
  1.025978e+01    2.641312e+00
  1.027565e+01    2.665059e+00
  1.029153e+01    2.656122e+00
  1.030740e+01    2.680216e+00
  1.032328e+01    2.613836e+00
  1.033915e+01    2.610532e+00
  1.035503e+01    2.660723e+00
  1.037091e+01    2.637704e+00
  1.038678e+01    2.642271e+00
  1.040266e+01    2.660369e+00
  1.041853e+01    2.616078e+00
  1.043441e+01    2.606410e+00
  1.045028e+01    2.632319e+00
  1.046616e+01    2.614321e+00
  1.048204e+01    2.582384e+00
  1.049791e+01    2.605541e+00
  1.051379e+01    2.625872e+00
  1.052966e+01    2.615754e+00
  1.054554e+01    2.569012e+00
  1.056141e+01    2.595889e+00
  1.057729e+01    2.573816e+00
  1.059316e+01    2.538467e+00
  1.060904e+01    2.604557e+00
  1.062492e+01    2.556893e+00
  1.064079e+01    2.548443e+00
  1.065667e+01    2.558334e+00
  1.067254e+01    2.574671e+00
  1.068842e+01    2.609049e+00
  1.070429e+01    2.562062e+00
  1.072017e+01    2.555303e+00
  1.073604e+01    2.581846e+00
  1.075192e+01    2.587739e+00
  1.076780e+01    2.518178e+00
  1.078367e+01    2.558139e+00
  1.079955e+01    2.583946e+00
  1.081542e+01    2.548533e+00
  1.083130e+01    2.533005e+00
  1.084717e+01    2.540034e+00
  1.086305e+01    2.523348e+00
  1.087892e+01    2.521202e+00
  1.089480e+01    2.514028e+00
  1.091068e+01    2.539246e+00
  1.092655e+01    2.553591e+00
  1.094243e+01    2.522146e+00
  1.095830e+01    2.507168e+00
  1.097418e+01    2.468906e+00
  1.099005e+01    2.454191e+00
  1.100593e+01    2.478782e+00
  1.102180e+01    2.527312e+00
  1.103768e+01    2.515060e+00
  1.105356e+01    2.490521e+00
  1.106943e+01    2.490897e+00
  1.108531e+01    2.479668e+00
  1.110118e+01    2.495280e+00
  1.111706e+01    2.512167e+00
  1.113293e+01    2.502176e+00
  1.114881e+01    2.492074e+00
  1.116468e+01    2.496006e+00
  1.118056e+01    2.478532e+00
  1.119644e+01    2.470201e+00
  1.121231e+01    2.444372e+00
  1.122819e+01    2.442859e+00
  1.124406e+01    2.479213e+00
  1.125994e+01    2.406754e+00
  1.127581e+01    2.419869e+00
  1.129169e+01    2.436916e+00
  1.130756e+01    2.520820e+00
  1.132344e+01    2.490561e+00
  1.133932e+01    2.446003e+00
  1.135519e+01    2.431215e+00
  1.137107e+01    2.462875e+00
  1.138694e+01    2.443093e+00
  1.140282e+01    2.436279e+00
  1.141869e+01    2.398442e+00
  1.143457e+01    2.417651e+00
  1.145045e+01    2.421041e+00
  1.146632e+01    2.431652e+00
  1.148220e+01    2.436980e+00
  1.149807e+01    2.375048e+00
  1.151395e+01    2.404948e+00
  1.152982e+01    2.419777e+00
  1.154570e+01    2.392894e+00
  1.156157e+01    2.397532e+00
  1.157745e+01    2.413441e+00
  1.159333e+01    2.403697e+00
  1.160920e+01    2.369277e+00
  1.162508e+01    2.428873e+00
  1.164095e+01    2.453579e+00
  1.165683e+01    2.427298e+00
  1.167270e+01    2.431798e+00
  1.168858e+01    2.432000e+00
  1.170445e+01    2.417783e+00
  1.172033e+01    2.410727e+00
  1.173621e+01    2.376844e+00
  1.175208e+01    2.369879e+00
  1.176796e+01    2.350931e+00
  1.178383e+01    2.346953e+00
  1.179971e+01    2.364686e+00
  1.181558e+01    2.383149e+00
  1.183146e+01    2.364400e+00
  1.184733e+01    2.368251e+00
  1.186321e+01    2.357013e+00
  1.187909e+01    2.335983e+00
  1.189496e+01    2.320285e+00
  1.191084e+01    2.331708e+00
  1.192671e+01    2.382275e+00
  1.194259e+01    2.371318e+00
  1.195846e+01    2.316617e+00
  1.197434e+01    2.379140e+00
  1.199021e+01    2.349569e+00
  1.200609e+01    2.346750e+00
  1.202197e+01    2.330930e+00
  1.203784e+01    2.326809e+00
  1.205372e+01    2.323696e+00
  1.206959e+01    2.315478e+00
  1.208547e+01    2.291745e+00
  1.210134e+01    2.350495e+00
  1.211722e+01    2.330475e+00
  1.213309e+01    2.316551e+00
  1.214897e+01    2.374385e+00
  1.216485e+01    2.368789e+00
  1.218072e+01    2.366132e+00
  1.219660e+01    2.372796e+00
  1.221247e+01    2.332431e+00
  1.222835e+01    2.340505e+00
  1.224422e+01    2.335326e+00
  1.226010e+01    2.341541e+00
  1.227597e+01    2.362247e+00
  1.229185e+01    2.334697e+00
  1.230773e+01    2.324849e+00
  1.232360e+01    2.312528e+00
  1.233948e+01    2.349812e+00
  1.235535e+01    2.329313e+00
  1.237123e+01    2.316367e+00
  1.238710e+01    2.345934e+00
  1.240298e+01    2.358407e+00
  1.241886e+01    2.344001e+00
  1.243473e+01    2.325280e+00
  1.245061e+01    2.303003e+00
  1.246648e+01    2.294942e+00
  1.248236e+01    2.304142e+00
  1.249823e+01    2.340627e+00
  1.251411e+01    2.384725e+00
  1.252998e+01    2.386070e+00
  1.254586e+01    2.330088e+00
  1.256174e+01    2.378220e+00
  1.257761e+01    2.367732e+00
  1.259349e+01    2.343565e+00
  1.260936e+01    2.376739e+00
  1.262524e+01    2.401356e+00
  1.264111e+01    2.439375e+00
  1.265699e+01    2.398806e+00
  1.267286e+01    2.439083e+00
  1.268874e+01    2.443950e+00
  1.270462e+01    2.489400e+00
  1.272049e+01    2.500425e+00
  1.273637e+01    2.528841e+00
  1.275224e+01    2.585185e+00
  1.276812e+01    2.596421e+00
  1.278399e+01    2.628863e+00
  1.279987e+01    2.638016e+00
  1.281574e+01    2.671799e+00
  1.283162e+01    2.788410e+00
  1.284750e+01    2.895910e+00
  1.286337e+01    2.892622e+00
  1.287925e+01    3.041707e+00
  1.289512e+01    3.171883e+00
  1.291100e+01    3.252603e+00
  1.292687e+01    3.490230e+00
  1.294275e+01    3.741651e+00
  1.295862e+01    4.022047e+00
  1.297450e+01    4.486957e+00
  1.299038e+01    4.931132e+00
  1.300625e+01    5.498427e+00
  1.302213e+01    6.184034e+00
  1.303800e+01    7.146910e+00
  1.305388e+01    8.308324e+00
  1.306975e+01    9.545197e+00
  1.308563e+01    1.095699e+01
  1.310150e+01    1.208215e+01
  1.311738e+01    1.316991e+01
  1.313326e+01    1.414919e+01
  1.314913e+01    1.513874e+01
  1.316501e+01    1.587662e+01
  1.318088e+01    1.617978e+01
  1.319676e+01    1.547386e+01
  1.321263e+01    1.418703e+01
  1.322851e+01    1.249433e+01
  1.324438e+01    1.065193e+01
  1.326026e+01    8.873057e+00
  1.327614e+01    7.538556e+00
  1.329201e+01    6.444852e+00
  1.330789e+01    5.613658e+00
  1.332376e+01    4.977570e+00
  1.333964e+01    4.472495e+00
  1.335551e+01    4.073289e+00
  1.337139e+01    3.747525e+00
  1.338727e+01    3.522446e+00
  1.340314e+01    3.286875e+00
  1.341902e+01    3.137045e+00
  1.343489e+01    2.975123e+00
  1.345077e+01    2.883193e+00
  1.346664e+01    2.798820e+00
  1.348252e+01    2.690479e+00
  1.349839e+01    2.609354e+00
  1.351427e+01    2.613184e+00
  1.353015e+01    2.540651e+00
  1.354602e+01    2.503020e+00
  1.356190e+01    2.444825e+00
  1.357777e+01    2.402861e+00
  1.359365e+01    2.383052e+00
  1.360952e+01    2.381724e+00
  1.362540e+01    2.354773e+00
  1.364127e+01    2.263061e+00
  1.365715e+01    2.287828e+00
  1.367303e+01    2.277895e+00
  1.368890e+01    2.257464e+00
  1.370478e+01    2.240532e+00
  1.372065e+01    2.226689e+00
  1.373653e+01    2.173402e+00
  1.375240e+01    2.177079e+00
  1.376828e+01    2.179004e+00
  1.378415e+01    2.158375e+00
  1.380003e+01    2.196847e+00
  1.381591e+01    2.212094e+00
  1.383178e+01    2.122172e+00
  1.384766e+01    2.104966e+00
  1.386353e+01    2.096015e+00
  1.387941e+01    2.087631e+00
  1.389528e+01    2.082515e+00
  1.391116e+01    2.063110e+00
  1.392703e+01    2.070364e+00
  1.394291e+01    2.084122e+00
  1.395879e+01    2.101699e+00
  1.397466e+01    2.088528e+00
  1.399054e+01    2.030237e+00
  1.400641e+01    2.042846e+00
  1.402229e+01    2.056415e+00
  1.403816e+01    2.031034e+00
  1.405404e+01    2.050001e+00
  1.406991e+01    2.042472e+00
  1.408579e+01    2.045869e+00
  1.410167e+01    2.038508e+00
  1.411754e+01    2.009038e+00
  1.413342e+01    2.015035e+00
  1.414929e+01    1.998192e+00
  1.416517e+01    1.997821e+00
  1.418104e+01    2.023778e+00
  1.419692e+01    2.032488e+00
  1.421279e+01    1.993066e+00
  1.422867e+01    1.968971e+00
  1.424455e+01    1.988213e+00
  1.426042e+01    1.987663e+00
  1.427630e+01    1.964322e+00
  1.429217e+01    1.959466e+00
  1.430805e+01    1.979337e+00
  1.432392e+01    1.977880e+00
  1.433980e+01    1.964669e+00
  1.435568e+01    1.950139e+00
  1.437155e+01    1.956054e+00
  1.438743e+01    1.944417e+00
  1.440330e+01    1.941361e+00
  1.441918e+01    1.953454e+00
  1.443505e+01    1.934004e+00
  1.445093e+01    1.958393e+00
  1.446680e+01    1.943137e+00
  1.448268e+01    1.936426e+00
  1.449856e+01    1.939494e+00
  1.451443e+01    1.871165e+00
  1.453031e+01    1.917280e+00
  1.454618e+01    1.923434e+00
  1.456206e+01    1.908026e+00
  1.457793e+01    1.918726e+00
  1.459381e+01    1.930316e+00
  1.460968e+01    1.931390e+00
  1.462556e+01    1.934231e+00
  1.464144e+01    1.904016e+00
  1.465731e+01    1.924929e+00
  1.467319e+01    1.928038e+00
  1.468906e+01    1.938092e+00
  1.470494e+01    1.946117e+00
  1.472081e+01    1.952739e+00
  1.473669e+01    1.932163e+00
  1.475256e+01    1.941209e+00
  1.476844e+01    1.934052e+00
  1.478432e+01    1.935690e+00
  1.480019e+01    1.911862e+00
  1.481607e+01    1.930924e+00
  1.483194e+01    1.948340e+00
  1.484782e+01    1.957167e+00
  1.486369e+01    1.939544e+00
  1.487957e+01    1.942934e+00
  1.489544e+01    1.998132e+00
  1.491132e+01    2.013612e+00
  1.492720e+01    2.039240e+00
  1.494307e+01    2.054839e+00
  1.495895e+01    2.058561e+00
  1.497482e+01    2.083831e+00
  1.499070e+01    2.146641e+00
  1.500657e+01    2.183406e+00
  1.502245e+01    2.272812e+00
  1.503832e+01    2.357653e+00
  1.505420e+01    2.395529e+00
  1.507008e+01    2.564509e+00
  1.508595e+01    2.730477e+00
  1.510183e+01    2.876756e+00
  1.511770e+01    3.182003e+00
  1.513358e+01    3.501673e+00
  1.514945e+01    3.841884e+00
  1.516533e+01    4.200361e+00
  1.518120e+01    4.544592e+00
  1.519708e+01    4.822261e+00
  1.521296e+01    5.072489e+00
  1.522883e+01    5.306922e+00
  1.524471e+01    5.424922e+00
  1.526058e+01    5.558680e+00
  1.527646e+01    5.491883e+00
  1.529233e+01    5.224578e+00
  1.530821e+01    4.919764e+00
  1.532409e+01    4.443518e+00
  1.533996e+01    3.975824e+00
  1.535584e+01    3.535931e+00
  1.537171e+01    3.147812e+00
  1.538759e+01    2.902474e+00
  1.540346e+01    2.683234e+00
  1.541934e+01    2.474385e+00
  1.543521e+01    2.356203e+00
  1.545109e+01    2.243568e+00
  1.546697e+01    2.127576e+00
  1.548284e+01    2.112253e+00
  1.549872e+01    2.059803e+00
  1.551459e+01    1.949108e+00
  1.553047e+01    1.930841e+00
  1.554634e+01    1.946898e+00
  1.556222e+01    1.885142e+00
  1.557809e+01    1.856898e+00
  1.559397e+01    1.858094e+00
  1.560985e+01    1.789652e+00
  1.562572e+01    1.788101e+00
  1.564160e+01    1.800067e+00
  1.565747e+01    1.770306e+00
  1.567335e+01    1.730477e+00
  1.568922e+01    1.754681e+00
  1.570510e+01    1.754366e+00
  1.572097e+01    1.774048e+00
  1.573685e+01    1.744629e+00
  1.575273e+01    1.705344e+00
  1.576860e+01    1.682776e+00
  1.578448e+01    1.681780e+00
  1.580035e+01    1.692588e+00
  1.581623e+01    1.671648e+00
  1.583210e+01    1.677409e+00
  1.584798e+01    1.668436e+00
  1.586385e+01    1.697825e+00
  1.587973e+01    1.719275e+00
  1.589561e+01    1.677101e+00
  1.591148e+01    1.662614e+00
  1.592736e+01    1.645713e+00
  1.594323e+01    1.616742e+00
  1.595911e+01    1.598500e+00
  1.597498e+01    1.627085e+00
  1.599086e+01    1.622694e+00
  1.600673e+01    1.609585e+00
  1.602261e+01    1.635686e+00
  1.603849e+01    1.610568e+00
  1.605436e+01    1.602150e+00
  1.607024e+01    1.623740e+00
  1.608611e+01    1.618527e+00
  1.610199e+01    1.610572e+00
  1.611786e+01    1.624607e+00
  1.613374e+01    1.629697e+00
  1.614961e+01    1.597751e+00
  1.616549e+01    1.593020e+00
  1.618137e+01    1.585129e+00
  1.619724e+01    1.605155e+00
  1.621312e+01    1.588368e+00
  1.622899e+01    1.592705e+00
  1.624487e+01    1.587376e+00
  1.626074e+01    1.542992e+00
  1.627662e+01    1.543838e+00
  1.629250e+01    1.571671e+00
  1.630837e+01    1.595287e+00
  1.632425e+01    1.569348e+00
  1.634012e+01    1.572498e+00
  1.635600e+01    1.551054e+00
  1.637187e+01    1.548229e+00
  1.638775e+01    1.557892e+00
  1.640362e+01    1.554544e+00
  1.641950e+01    1.539437e+00
  1.643538e+01    1.519564e+00
  1.645125e+01    1.545955e+00
  1.646713e+01    1.526347e+00
  1.648300e+01    1.511714e+00
  1.649888e+01    1.510356e+00
  1.651475e+01    1.513530e+00
  1.653063e+01    1.520441e+00
  1.654650e+01    1.535537e+00
  1.656238e+01    1.497348e+00
  1.657826e+01    1.521528e+00
  1.659413e+01    1.492812e+00
  1.661001e+01    1.524837e+00
  1.662588e+01    1.533418e+00
  1.664176e+01    1.538657e+00
  1.665763e+01    1.497227e+00
  1.667351e+01    1.474602e+00
  1.668938e+01    1.489318e+00
  1.670526e+01    1.472728e+00
  1.672114e+01    1.528827e+00
  1.673701e+01    1.488313e+00
  1.675289e+01    1.488417e+00
  1.676876e+01    1.476848e+00
  1.678464e+01    1.472393e+00
  1.680051e+01    1.479111e+00
  1.681639e+01    1.476390e+00
  1.683226e+01    1.468834e+00
  1.684814e+01    1.442894e+00
  1.686402e+01    1.473829e+00
  1.687989e+01    1.476935e+00
  1.689577e+01    1.472290e+00
  1.691164e+01    1.468082e+00
  1.692752e+01    1.454274e+00
  1.694339e+01    1.471796e+00
  1.695927e+01    1.457348e+00
  1.697514e+01    1.434960e+00
  1.699102e+01    1.418271e+00
  1.700690e+01    1.421828e+00
  1.702277e+01    1.458370e+00
  1.703865e+01    1.460434e+00
  1.705452e+01    1.433122e+00
  1.707040e+01    1.410980e+00
  1.708627e+01    1.419941e+00
  1.710215e+01    1.459312e+00
  1.711802e+01    1.466644e+00
  1.713390e+01    1.440236e+00
  1.714978e+01    1.420548e+00
  1.716565e+01    1.437249e+00
  1.718153e+01    1.417641e+00
  1.719740e+01    1.386193e+00
  1.721328e+01    1.430289e+00
  1.722915e+01    1.420743e+00
  1.724503e+01    1.441654e+00
  1.726091e+01    1.418465e+00
  1.727678e+01    1.407053e+00
  1.729266e+01    1.392076e+00
  1.730853e+01    1.396261e+00
  1.732441e+01    1.398591e+00
  1.734028e+01    1.380536e+00
  1.735616e+01    1.390011e+00
  1.737203e+01    1.388874e+00
  1.738791e+01    1.377122e+00
  1.740379e+01    1.393247e+00
  1.741966e+01    1.401273e+00
  1.743554e+01    1.398880e+00
  1.745141e+01    1.395651e+00
  1.746729e+01    1.393447e+00
  1.748316e+01    1.376403e+00
  1.749904e+01    1.367272e+00
  1.751491e+01    1.366271e+00
  1.753079e+01    1.368707e+00
  1.754667e+01    1.372328e+00
  1.756254e+01    1.390059e+00
  1.757842e+01    1.415266e+00
  1.759429e+01    1.381976e+00
  1.761017e+01    1.379113e+00
  1.762604e+01    1.357935e+00
  1.764192e+01    1.384449e+00
  1.765779e+01    1.352242e+00
  1.767367e+01    1.316752e+00
  1.768955e+01    1.353817e+00
  1.770542e+01    1.361876e+00
  1.772130e+01    1.348849e+00
  1.773717e+01    1.349660e+00
  1.775305e+01    1.328159e+00
  1.776892e+01    1.353236e+00
  1.778480e+01    1.363219e+00
  1.780067e+01    1.365034e+00
  1.781655e+01    1.336487e+00
  1.783243e+01    1.311084e+00
  1.784830e+01    1.314458e+00
  1.786418e+01    1.332564e+00
  1.788005e+01    1.334781e+00
  1.789593e+01    1.300955e+00
  1.791180e+01    1.332108e+00
  1.792768e+01    1.314630e+00
  1.794355e+01    1.315936e+00
  1.795943e+01    1.309544e+00
  1.797531e+01    1.318776e+00
  1.799118e+01    1.287880e+00
  1.800706e+01    1.323086e+00
  1.802293e+01    1.314751e+00
  1.803881e+01    1.309825e+00
  1.805468e+01    1.295654e+00
  1.807056e+01    1.280321e+00
  1.808643e+01    1.299427e+00
  1.810231e+01    1.317536e+00
  1.811819e+01    1.291827e+00
  1.813406e+01    1.292270e+00
  1.814994e+01    1.299982e+00
  1.816581e+01    1.336523e+00
  1.818169e+01    1.302843e+00
  1.819756e+01    1.290985e+00
  1.821344e+01    1.269850e+00
  1.822932e+01    1.276070e+00
  1.824519e+01    1.279282e+00
  1.826107e+01    1.298938e+00
  1.827694e+01    1.308400e+00
  1.829282e+01    1.299746e+00
  1.830869e+01    1.314764e+00
  1.832457e+01    1.277673e+00
  1.834044e+01    1.296616e+00
  1.835632e+01    1.296217e+00
  1.837220e+01    1.278146e+00
  1.838807e+01    1.272855e+00
  1.840395e+01    1.261231e+00
  1.841982e+01    1.268702e+00
  1.843570e+01    1.264844e+00
  1.845157e+01    1.241463e+00
  1.846745e+01    1.266161e+00
  1.848332e+01    1.222862e+00
  1.849920e+01    1.240079e+00
  1.851508e+01    1.267527e+00
  1.853095e+01    1.267001e+00
  1.854683e+01    1.252338e+00
  1.856270e+01    1.230638e+00
  1.857858e+01    1.265909e+00
  1.859445e+01    1.277431e+00
  1.861033e+01    1.289354e+00
  1.862620e+01    1.269160e+00
  1.864208e+01    1.230072e+00
  1.865796e+01    1.232832e+00
  1.867383e+01    1.217436e+00
  1.868971e+01    1.223087e+00
  1.870558e+01    1.239137e+00
  1.872146e+01    1.221118e+00
  1.873733e+01    1.212553e+00
  1.875321e+01    1.234061e+00
  1.876908e+01    1.226648e+00
  1.878496e+01    1.235214e+00
  1.880084e+01    1.227483e+00
  1.881671e+01    1.257433e+00
  1.883259e+01    1.237602e+00
  1.884846e+01    1.217000e+00
  1.886434e+01    1.184917e+00
  1.888021e+01    1.197424e+00
  1.889609e+01    1.198660e+00
  1.891196e+01    1.192469e+00
  1.892784e+01    1.211654e+00
  1.894372e+01    1.226633e+00
  1.895959e+01    1.225102e+00
  1.897547e+01    1.204461e+00
  1.899134e+01    1.208854e+00
  1.900722e+01    1.182580e+00
  1.902309e+01    1.196020e+00
  1.903897e+01    1.203668e+00
  1.905484e+01    1.202161e+00
  1.907072e+01    1.199309e+00
  1.908660e+01    1.185820e+00
  1.910247e+01    1.172491e+00
  1.911835e+01    1.168764e+00
  1.913422e+01    1.188359e+00
  1.915010e+01    1.175624e+00
  1.916597e+01    1.181647e+00
  1.918185e+01    1.184917e+00
  1.919773e+01    1.169636e+00
  1.921360e+01    1.173717e+00
  1.922948e+01    1.185734e+00
  1.924535e+01    1.208970e+00
  1.926123e+01    1.179644e+00
  1.927710e+01    1.165751e+00
  1.929298e+01    1.170413e+00
  1.930885e+01    1.187259e+00
  1.932473e+01    1.220686e+00
  1.934061e+01    1.178842e+00
  1.935648e+01    1.152547e+00
  1.937236e+01    1.157165e+00
  1.938823e+01    1.151815e+00
  1.940411e+01    1.171090e+00
  1.941998e+01    1.184721e+00
  1.943586e+01    1.186410e+00
  1.945173e+01    1.185190e+00
  1.946761e+01    1.177963e+00
  1.948349e+01    1.175816e+00
  1.949936e+01    1.170988e+00
  1.951524e+01    1.165803e+00
  1.953111e+01    1.179189e+00
  1.954699e+01    1.181524e+00
  1.956286e+01    1.179854e+00
  1.957874e+01    1.156434e+00
  1.959461e+01    1.136681e+00
  1.961049e+01    1.157221e+00
  1.962637e+01    1.157019e+00
  1.964224e+01    1.150987e+00
  1.965812e+01    1.129249e+00
  1.967399e+01    1.126726e+00
  1.968987e+01    1.137864e+00
  1.970574e+01    1.154759e+00
  1.972162e+01    1.157235e+00
  1.973749e+01    1.128475e+00
  1.975337e+01    1.137572e+00
  1.976925e+01    1.146325e+00
  1.978512e+01    1.120355e+00
  1.980100e+01    1.123048e+00
  1.981687e+01    1.142483e+00
  1.983275e+01    1.140423e+00
  1.984862e+01    1.127178e+00
  1.986450e+01    1.117764e+00
  1.988037e+01    1.110319e+00
  1.989625e+01    1.099316e+00
  1.991213e+01    1.118433e+00
  1.992800e+01    1.146543e+00
  1.994388e+01    1.113562e+00
  1.995975e+01    1.108601e+00
  1.997563e+01    1.120981e+00
  1.999150e+01    1.136025e+00
  2.000738e+01    1.143576e+00
  2.002325e+01    1.142276e+00
  2.003913e+01    1.118667e+00
  2.005501e+01    1.115195e+00
  2.007088e+01    1.094116e+00
  2.008676e+01    1.122749e+00
  2.010263e+01    1.113955e+00
  2.011851e+01    1.117354e+00
  2.013438e+01    1.111547e+00
  2.015026e+01    1.089178e+00
  2.016614e+01    1.110284e+00
  2.018201e+01    1.118093e+00
  2.019789e+01    1.109007e+00
  2.021376e+01    1.102898e+00
  2.022964e+01    1.109448e+00
  2.024551e+01    1.104603e+00
  2.026139e+01    1.088496e+00
  2.027726e+01    1.082859e+00
  2.029314e+01    1.076281e+00
  2.030902e+01    1.094136e+00
  2.032489e+01    1.096689e+00
  2.034077e+01    1.100880e+00
  2.035664e+01    1.123180e+00
  2.037252e+01    1.103164e+00
  2.038839e+01    1.094839e+00
  2.040427e+01    1.117625e+00
  2.042014e+01    1.124496e+00
  2.043602e+01    1.070261e+00
  2.045190e+01    1.084282e+00
  2.046777e+01    1.081888e+00
  2.048365e+01    1.104025e+00
  2.049952e+01    1.097803e+00
  2.051540e+01    1.078662e+00
  2.053127e+01    1.109666e+00
  2.054715e+01    1.093154e+00
  2.056302e+01    1.076161e+00
  2.057890e+01    1.081740e+00
  2.059478e+01    1.095997e+00
  2.061065e+01    1.080940e+00
  2.062653e+01    1.091444e+00
  2.064240e+01    1.077529e+00
  2.065828e+01    1.086820e+00
  2.067415e+01    1.071283e+00
  2.069003e+01    1.081508e+00
  2.070590e+01    1.063205e+00
  2.072178e+01    1.081751e+00
  2.073766e+01    1.077550e+00
  2.075353e+01    1.071503e+00
  2.076941e+01    1.074992e+00
  2.078528e+01    1.082564e+00
  2.080116e+01    1.083270e+00
  2.081703e+01    1.057782e+00
  2.083291e+01    1.082147e+00
  2.084878e+01    1.071388e+00
  2.086466e+01    1.075351e+00
  2.088054e+01    1.049512e+00
  2.089641e+01    1.072875e+00
  2.091229e+01    1.091618e+00
  2.092816e+01    1.082247e+00
  2.094404e+01    1.062632e+00
  2.095991e+01    1.087936e+00
  2.097579e+01    1.101151e+00
  2.099166e+01    1.078699e+00
  2.100754e+01    1.088162e+00
  2.102342e+01    1.070733e+00
  2.103929e+01    1.077260e+00
  2.105517e+01    1.065357e+00
  2.107104e+01    1.073534e+00
  2.108692e+01    1.080378e+00
  2.110279e+01    1.077978e+00
  2.111867e+01    1.056014e+00
  2.113455e+01    1.085283e+00
  2.115042e+01    1.078246e+00
  2.116630e+01    1.083453e+00
  2.118217e+01    1.103310e+00
  2.119805e+01    1.091902e+00
  2.121392e+01    1.097514e+00
  2.122980e+01    1.100339e+00
  2.124567e+01    1.098799e+00
  2.126155e+01    1.116488e+00
  2.127743e+01    1.114685e+00
  2.129330e+01    1.110878e+00
  2.130918e+01    1.124923e+00
  2.132505e+01    1.119267e+00
  2.134093e+01    1.148009e+00
  2.135680e+01    1.162012e+00
  2.137268e+01    1.150935e+00
  2.138855e+01    1.175426e+00
  2.140443e+01    1.184882e+00
  2.142031e+01    1.180326e+00
  2.143618e+01    1.180213e+00
  2.145206e+01    1.223279e+00
  2.146793e+01    1.244690e+00
  2.148381e+01    1.266884e+00
  2.149968e+01    1.314598e+00
  2.151556e+01    1.308336e+00
  2.153143e+01    1.340419e+00
  2.154731e+01    1.403939e+00
  2.156319e+01    1.403252e+00
  2.157906e+01    1.467489e+00
  2.159494e+01    1.547584e+00
  2.161081e+01    1.631150e+00
  2.162669e+01    1.718521e+00
  2.164256e+01    1.840510e+00
  2.165844e+01    1.946433e+00
  2.167431e+01    2.114991e+00
  2.169019e+01    2.354530e+00
  2.170607e+01    2.629255e+00
  2.172194e+01    2.927180e+00
  2.173782e+01    3.336821e+00
  2.175369e+01    3.854478e+00
  2.176957e+01    4.385753e+00
  2.178544e+01    4.971399e+00
  2.180132e+01    5.596903e+00
  2.181719e+01    6.283281e+00
  2.183307e+01    7.002120e+00
  2.184895e+01    7.610818e+00
  2.186482e+01    8.206899e+00
  2.188070e+01    8.645834e+00
  2.189657e+01    8.801052e+00
  2.191245e+01    8.671802e+00
  2.192832e+01    8.252475e+00
  2.194420e+01    7.398810e+00
  2.196007e+01    6.431663e+00
  2.197595e+01    5.522664e+00
  2.199183e+01    4.655093e+00
  2.200770e+01    3.978806e+00
  2.202358e+01    3.430512e+00
  2.203945e+01    2.994396e+00
  2.205533e+01    2.606914e+00
  2.207120e+01    2.377322e+00
  2.208708e+01    2.148674e+00
  2.210296e+01    1.975960e+00
  2.211883e+01    1.810243e+00
  2.213471e+01    1.698575e+00
  2.215058e+01    1.624759e+00
  2.216646e+01    1.536046e+00
  2.218233e+01    1.462824e+00
  2.219821e+01    1.397367e+00
  2.221408e+01    1.358867e+00
  2.222996e+01    1.309072e+00
  2.224584e+01    1.274897e+00
  2.226171e+01    1.241258e+00
  2.227759e+01    1.225197e+00
  2.229346e+01    1.183848e+00
  2.230934e+01    1.163639e+00
  2.232521e+01    1.161984e+00
  2.234109e+01    1.107799e+00
  2.235696e+01    1.115500e+00
  2.237284e+01    1.119084e+00
  2.238872e+01    1.073335e+00
  2.240459e+01    1.058832e+00
  2.242047e+01    1.063278e+00
  2.243634e+01    1.057150e+00
  2.245222e+01    1.053732e+00
  2.246809e+01    1.028866e+00
  2.248397e+01    1.042152e+00
  2.249984e+01    1.038724e+00
  2.251572e+01    1.011557e+00
  2.253160e+01    1.016707e+00
  2.254747e+01    1.004136e+00
  2.256335e+01    9.857917e-01
  2.257922e+01    9.955480e-01
  2.259510e+01    9.712000e-01
  2.261097e+01    9.614136e-01
  2.262685e+01    9.860004e-01
  2.264272e+01    9.858292e-01
  2.265860e+01    9.653234e-01
  2.267448e+01    9.466593e-01
  2.269035e+01    9.499085e-01
  2.270623e+01    9.450933e-01
  2.272210e+01    9.432356e-01
  2.273798e+01    9.329730e-01
  2.275385e+01    9.317482e-01
  2.276973e+01    9.320959e-01
  2.278560e+01    9.445028e-01
  2.280148e+01    9.420691e-01
  2.281736e+01    9.387544e-01
  2.283323e+01    9.160861e-01
  2.284911e+01    9.087566e-01
  2.286498e+01    9.018835e-01
  2.288086e+01    9.167032e-01
  2.289673e+01    9.025900e-01
  2.291261e+01    8.933141e-01
  2.292848e+01    8.950142e-01
  2.294436e+01    9.046249e-01
  2.296024e+01    9.208851e-01
  2.297611e+01    8.946172e-01
  2.299199e+01    8.877161e-01
  2.300786e+01    8.887183e-01
  2.302374e+01    8.920929e-01
  2.303961e+01    8.937244e-01
  2.305549e+01    8.856035e-01
  2.307137e+01    8.916406e-01
  2.308724e+01    9.023142e-01
  2.310312e+01    8.882746e-01
  2.311899e+01    8.901609e-01
  2.313487e+01    8.659662e-01
  2.315074e+01    8.761711e-01
  2.316662e+01    8.841892e-01
  2.318249e+01    8.816327e-01
  2.319837e+01    8.654042e-01
  2.321425e+01    8.719935e-01
  2.323012e+01    8.936055e-01
  2.324600e+01    8.703697e-01
  2.326187e+01    8.594624e-01
  2.327775e+01    8.658394e-01
  2.329362e+01    8.670138e-01
  2.330950e+01    8.670744e-01
  2.332537e+01    8.685430e-01
  2.334125e+01    8.550533e-01
  2.335713e+01    8.590884e-01
  2.337300e+01    8.653413e-01
  2.338888e+01    8.734261e-01
  2.340475e+01    8.624601e-01
  2.342063e+01    8.670889e-01
  2.343650e+01    8.578328e-01
  2.345238e+01    8.549192e-01
  2.346825e+01    8.389072e-01
  2.348413e+01    8.526124e-01
  2.350001e+01    8.627545e-01
  2.351588e+01    8.466749e-01
  2.353176e+01    8.527027e-01
  2.354763e+01    8.603030e-01
  2.356351e+01    8.631496e-01
  2.357938e+01    8.325570e-01
  2.359526e+01    8.445244e-01
  2.361113e+01    8.433571e-01
  2.362701e+01    8.417023e-01
  2.364289e+01    8.413114e-01
  2.365876e+01    8.470501e-01
  2.367464e+01    8.544605e-01
  2.369051e+01    8.291985e-01
  2.370639e+01    8.436700e-01
  2.372226e+01    8.554327e-01
  2.373814e+01    8.263111e-01
  2.375401e+01    8.103269e-01
  2.376989e+01    8.186166e-01
  2.378577e+01    8.046289e-01
  2.380164e+01    8.305411e-01
  2.381752e+01    8.270832e-01
  2.383339e+01    7.946529e-01
  2.384927e+01    7.878838e-01
  2.386514e+01    8.045933e-01
  2.388102e+01    7.942827e-01
  2.389689e+01    7.962620e-01
  2.391277e+01    7.759373e-01
  2.392865e+01    7.799436e-01
  2.394452e+01    7.957168e-01
  2.396040e+01    7.890924e-01
  2.397627e+01    7.978951e-01
  2.399215e+01    7.774093e-01
  2.400802e+01    7.890196e-01
  2.402390e+01    7.811971e-01
  2.403978e+01    7.914640e-01
  2.405565e+01    7.945102e-01
  2.407153e+01    7.964481e-01
  2.408740e+01    7.976621e-01
  2.410328e+01    7.912850e-01
  2.411915e+01    7.845262e-01
  2.413503e+01    8.006473e-01
  2.415090e+01    7.904667e-01
  2.416678e+01    7.680874e-01
  2.418266e+01    7.700849e-01
  2.419853e+01    7.787560e-01
  2.421441e+01    7.701838e-01
  2.423028e+01    7.903068e-01
  2.424616e+01    7.892736e-01
  2.426203e+01    7.833038e-01
  2.427791e+01    7.965038e-01
  2.429378e+01    8.008481e-01
  2.430966e+01    8.032548e-01
  2.432554e+01    7.836773e-01
  2.434141e+01    7.802199e-01
  2.435729e+01    7.960365e-01
  2.437316e+01    7.730025e-01
  2.438904e+01    7.575055e-01
  2.440491e+01    7.721834e-01
  2.442079e+01    7.764055e-01
  2.443666e+01    7.700250e-01
  2.445254e+01    7.880903e-01
  2.446842e+01    7.972040e-01
  2.448429e+01    7.926297e-01
  2.450017e+01    8.034436e-01
  2.451604e+01    7.825037e-01
  2.453192e+01    7.838046e-01
  2.454779e+01    7.724491e-01
  2.456367e+01    7.822692e-01
  2.457954e+01    7.902977e-01
  2.459542e+01    7.850474e-01
  2.461130e+01    7.908931e-01
  2.462717e+01    8.049551e-01
  2.464305e+01    7.929068e-01
  2.465892e+01    7.873921e-01
  2.467480e+01    7.989085e-01
  2.469067e+01    7.883270e-01
  2.470655e+01    7.798859e-01
  2.472242e+01    7.806472e-01
  2.473830e+01    7.771376e-01
  2.475418e+01    7.829211e-01
  2.477005e+01    7.860389e-01
  2.478593e+01    7.880921e-01
  2.480180e+01    7.757914e-01
  2.481768e+01    7.745655e-01
  2.483355e+01    7.814006e-01
  2.484943e+01    7.805229e-01
  2.486530e+01    7.826880e-01
  2.488118e+01    7.915913e-01
  2.489706e+01    7.883683e-01
  2.491293e+01    8.002164e-01
  2.492881e+01    8.012812e-01
  2.494468e+01    7.991264e-01
  2.496056e+01    7.839026e-01
  2.497643e+01    7.912168e-01
  2.499231e+01    8.034253e-01
  2.500819e+01    7.938036e-01
  2.502406e+01    7.840915e-01
  2.503994e+01    7.996367e-01
  2.505581e+01    8.272318e-01
  2.507169e+01    8.151278e-01
  2.508756e+01    8.061456e-01
  2.510344e+01    8.080093e-01
  2.511931e+01    8.151564e-01
  2.513519e+01    8.344278e-01
  2.515107e+01    8.245071e-01
  2.516694e+01    8.005246e-01
  2.518282e+01    8.058203e-01
  2.519869e+01    8.226909e-01
  2.521457e+01    8.323588e-01
  2.523044e+01    8.622164e-01
  2.524632e+01    8.520463e-01
  2.526219e+01    8.515587e-01
  2.527807e+01    8.579099e-01
  2.529395e+01    8.562119e-01
  2.530982e+01    8.822269e-01
  2.532570e+01    8.883286e-01
  2.534157e+01    8.806975e-01
  2.535745e+01    8.822080e-01
  2.537332e+01    8.818811e-01
  2.538920e+01    8.827433e-01
  2.540507e+01    9.011962e-01
  2.542095e+01    9.134808e-01
  2.543683e+01    9.241439e-01
  2.545270e+01    9.109608e-01
  2.546858e+01    9.473087e-01
  2.548445e+01    9.786918e-01
  2.550033e+01    9.872024e-01
  2.551620e+01    1.020907e+00
  2.553208e+01    1.033742e+00
  2.554795e+01    1.013725e+00
  2.556383e+01    1.037936e+00
  2.557971e+01    1.078082e+00
  2.559558e+01    1.128283e+00
  2.561146e+01    1.144234e+00
  2.562733e+01    1.186798e+00
  2.564321e+01    1.223715e+00
  2.565908e+01    1.262532e+00
  2.567496e+01    1.343264e+00
  2.569083e+01    1.420186e+00
  2.570671e+01    1.515028e+00
  2.572259e+01    1.620829e+00
  2.573846e+01    1.763669e+00
  2.575434e+01    1.953731e+00
  2.577021e+01    2.172681e+00
  2.578609e+01    2.418551e+00
  2.580196e+01    2.708774e+00
  2.581784e+01    3.082360e+00
  2.583371e+01    3.516229e+00
  2.584959e+01    3.995137e+00
  2.586547e+01    4.547437e+00
  2.588134e+01    5.179751e+00
  2.589722e+01    5.764465e+00
  2.591309e+01    6.350543e+00
  2.592897e+01    6.787116e+00
  2.594484e+01    7.084404e+00
  2.596072e+01    7.221526e+00
  2.597660e+01    7.013801e+00
  2.599247e+01    6.672322e+00
  2.600835e+01    6.047907e+00
  2.602422e+01    5.307309e+00
  2.604010e+01    4.554810e+00
  2.605597e+01    3.903593e+00
  2.607185e+01    3.339509e+00
  2.608772e+01    2.946579e+00
  2.610360e+01    2.564114e+00
  2.611948e+01    2.274764e+00
  2.613535e+01    2.054034e+00
  2.615123e+01    1.867076e+00
  2.616710e+01    1.700925e+00
  2.618298e+01    1.580116e+00
  2.619885e+01    1.461473e+00
  2.621473e+01    1.388430e+00
  2.623060e+01    1.299402e+00
  2.624648e+01    1.223308e+00
  2.626236e+01    1.188121e+00
  2.627823e+01    1.165609e+00
  2.629411e+01    1.155230e+00
  2.630998e+01    1.086597e+00
  2.632586e+01    1.038801e+00
  2.634173e+01    1.034853e+00
  2.635761e+01    1.000551e+00
  2.637348e+01    9.981704e-01
  2.638936e+01    9.768552e-01
  2.640524e+01    9.440214e-01
  2.642111e+01    9.547631e-01
  2.643699e+01    9.436620e-01
  2.645286e+01    9.673300e-01
  2.646874e+01    9.466937e-01
  2.648461e+01    9.182428e-01
  2.650049e+01    9.178283e-01
  2.651636e+01    9.164931e-01
  2.653224e+01    9.066841e-01
  2.654812e+01    8.961116e-01
  2.656399e+01    9.087601e-01
  2.657987e+01    9.114292e-01
  2.659574e+01    8.776538e-01
  2.661162e+01    8.616135e-01
  2.662749e+01    8.647007e-01
  2.664337e+01    8.729010e-01
  2.665924e+01    8.952324e-01
  2.667512e+01    8.960278e-01
  2.669100e+01    8.751779e-01
  2.670687e+01    8.882801e-01
  2.672275e+01    8.699840e-01
  2.673862e+01    8.684593e-01
  2.675450e+01    8.417756e-01
  2.677037e+01    8.483480e-01
  2.678625e+01    8.876492e-01
  2.680212e+01    8.924690e-01
  2.681800e+01    8.822585e-01
  2.683388e+01    8.925879e-01
  2.684975e+01    9.085929e-01
  2.686563e+01    8.799571e-01
  2.688150e+01    8.948867e-01
  2.689738e+01    8.998103e-01
  2.691325e+01    8.973610e-01
  2.692913e+01    9.277335e-01
  2.694501e+01    9.650451e-01
  2.696088e+01    9.382108e-01
  2.697676e+01    9.434903e-01
  2.699263e+01    1.007902e+00
  2.700851e+01    1.051013e+00
  2.702438e+01    1.080849e+00
  2.704026e+01    1.115988e+00
  2.705613e+01    1.154343e+00
  2.707201e+01    1.215034e+00
  2.708789e+01    1.304861e+00
  2.710376e+01    1.389289e+00
  2.711964e+01    1.494788e+00
  2.713551e+01    1.650740e+00
  2.715139e+01    1.798306e+00
  2.716726e+01    1.934158e+00
  2.718314e+01    2.034436e+00
  2.719901e+01    2.124460e+00
  2.721489e+01    2.168912e+00
  2.723077e+01    2.178352e+00
  2.724664e+01    2.060011e+00
  2.726252e+01    1.929250e+00
  2.727839e+01    1.803162e+00
  2.729427e+01    1.672913e+00
  2.731014e+01    1.532761e+00
  2.732602e+01    1.408845e+00
  2.734189e+01    1.285091e+00
  2.735777e+01    1.206398e+00
  2.737365e+01    1.155128e+00
  2.738952e+01    1.088757e+00
  2.740540e+01    1.037826e+00
  2.742127e+01    1.006475e+00
  2.743715e+01    9.663849e-01
  2.745302e+01    9.383591e-01
  2.746890e+01    9.233001e-01
  2.748477e+01    9.089214e-01
  2.750065e+01    9.028855e-01
  2.751653e+01    8.942668e-01
  2.753240e+01    8.726940e-01
  2.754828e+01    8.725455e-01
  2.756415e+01    8.669927e-01
  2.758003e+01    8.452948e-01
  2.759590e+01    8.668499e-01
  2.761178e+01    8.441628e-01
  2.762765e+01    8.367558e-01
  2.764353e+01    8.410675e-01
  2.765941e+01    8.322375e-01
  2.767528e+01    8.318325e-01
  2.769116e+01    8.103622e-01
  2.770703e+01    8.225177e-01
  2.772291e+01    8.129591e-01
  2.773878e+01    8.028071e-01
  2.775466e+01    7.929007e-01
  2.777054e+01    8.091542e-01
  2.778641e+01    7.955633e-01
  2.780229e+01    8.194249e-01
  2.781816e+01    8.069496e-01
  2.783404e+01    7.879617e-01
  2.784991e+01    7.930260e-01
  2.786579e+01    7.807961e-01
  2.788166e+01    7.872635e-01
  2.789754e+01    7.805732e-01
  2.791342e+01    7.641799e-01
  2.792929e+01    7.860740e-01
  2.794517e+01    7.784671e-01
  2.796104e+01    7.674793e-01
  2.797692e+01    7.833650e-01
  2.799279e+01    7.933582e-01
  2.800867e+01    7.864991e-01
  2.802454e+01    7.908120e-01
  2.804042e+01    7.915325e-01
  2.805630e+01    7.764315e-01
  2.807217e+01    7.761688e-01
  2.808805e+01    7.746145e-01
  2.810392e+01    7.728448e-01
  2.811980e+01    7.758978e-01
  2.813567e+01    7.763818e-01
  2.815155e+01    7.701824e-01
  2.816742e+01    7.819510e-01
  2.818330e+01    7.678993e-01
  2.819918e+01    7.496856e-01
  2.821505e+01    7.560061e-01
  2.823093e+01    7.611126e-01
  2.824680e+01    7.713190e-01
  2.826268e+01    7.611899e-01
  2.827855e+01    7.485511e-01
  2.829443e+01    7.645932e-01
  2.831030e+01    7.887148e-01
  2.832618e+01    7.576450e-01
  2.834206e+01    7.511915e-01
  2.835793e+01    7.750801e-01
  2.837381e+01    7.710634e-01
  2.838968e+01    7.610729e-01
  2.840556e+01    7.634065e-01
  2.842143e+01    7.539096e-01
  2.843731e+01    7.678640e-01
  2.845318e+01    7.518851e-01
  2.846906e+01    7.416216e-01
  2.848494e+01    7.594547e-01
  2.850081e+01    7.582587e-01
  2.851669e+01    7.711673e-01
  2.853256e+01    7.687897e-01
  2.854844e+01    7.539806e-01
  2.856431e+01    7.406153e-01
  2.858019e+01    7.599738e-01
  2.859606e+01    7.535020e-01
  2.861194e+01    7.376050e-01
  2.862782e+01    7.518418e-01
  2.864369e+01    7.437583e-01
  2.865957e+01    7.403173e-01
  2.867544e+01    7.380490e-01
  2.869132e+01    7.243988e-01
  2.870719e+01    7.183266e-01
  2.872307e+01    7.235783e-01
  2.873895e+01    7.449686e-01
  2.875482e+01    7.612643e-01
  2.877070e+01    7.455924e-01
  2.878657e+01    7.216913e-01
  2.880245e+01    7.399268e-01
  2.881832e+01    7.338465e-01
  2.883420e+01    7.487841e-01
  2.885007e+01    7.355756e-01
  2.886595e+01    7.484095e-01
  2.888183e+01    7.349911e-01
  2.889770e+01    7.122392e-01
  2.891358e+01    7.141592e-01
  2.892945e+01    7.512899e-01
  2.894533e+01    7.349018e-01
  2.896120e+01    7.346979e-01
  2.897708e+01    7.298427e-01
  2.899295e+01    7.196028e-01
  2.900883e+01    7.176657e-01
  2.902471e+01    7.373646e-01
  2.904058e+01    7.265114e-01
  2.905646e+01    7.141076e-01
  2.907233e+01    7.195053e-01
  2.908821e+01    7.177133e-01
  2.910408e+01    7.192190e-01
  2.911996e+01    7.255774e-01
  2.913583e+01    7.350175e-01
  2.915171e+01    7.219778e-01
  2.916759e+01    7.467159e-01
  2.918346e+01    7.345096e-01
  2.919934e+01    7.444334e-01
  2.921521e+01    7.372802e-01
  2.923109e+01    7.541918e-01
  2.924696e+01    7.682042e-01
  2.926284e+01    7.425750e-01
  2.927871e+01    7.222204e-01
  2.929459e+01    7.130720e-01
  2.931047e+01    7.165744e-01
  2.932634e+01    7.394181e-01
  2.934222e+01    7.436283e-01
  2.935809e+01    7.299570e-01
  2.937397e+01    7.181368e-01
  2.938984e+01    7.203436e-01
  2.940572e+01    7.314246e-01
  2.942159e+01    7.388209e-01
  2.943747e+01    7.255682e-01
  2.945335e+01    7.179197e-01
  2.946922e+01    7.007478e-01
  2.948510e+01    7.242147e-01
  2.950097e+01    7.528942e-01
  2.951685e+01    7.390640e-01
  2.953272e+01    7.290514e-01
  2.954860e+01    7.238488e-01
  2.956447e+01    7.285160e-01
  2.958035e+01    7.087395e-01
  2.959623e+01    7.173915e-01
  2.961210e+01    7.124349e-01
  2.962798e+01    7.027206e-01
  2.964385e+01    7.103094e-01
  2.965973e+01    7.194244e-01
  2.967560e+01    7.203685e-01
  2.969148e+01    7.323007e-01
  2.970736e+01    7.174391e-01
  2.972323e+01    7.329222e-01
  2.973911e+01    7.364504e-01
  2.975498e+01    7.205601e-01
  2.977086e+01    7.071401e-01
  2.978673e+01    7.045954e-01
  2.980261e+01    7.051983e-01
  2.981848e+01    7.128658e-01
  2.983436e+01    7.070604e-01
  2.985024e+01    7.197005e-01
  2.986611e+01    7.123091e-01
  2.988199e+01    7.022786e-01
  2.989786e+01    7.149028e-01
  2.991374e+01    7.343135e-01
  2.992961e+01    7.263786e-01
  2.994549e+01    7.147227e-01
  2.996136e+01    7.039317e-01
  2.997724e+01    7.027448e-01
  2.999312e+01    7.151878e-01
  3.000899e+01    7.296668e-01
  3.002487e+01    7.449250e-01
  3.004074e+01    7.346680e-01
  3.005662e+01    7.195290e-01
  3.007249e+01    7.363726e-01
  3.008837e+01    7.190471e-01
  3.010424e+01    7.150390e-01
  3.012012e+01    7.194052e-01
  3.013600e+01    7.111839e-01
  3.015187e+01    7.454818e-01
  3.016775e+01    7.230539e-01
  3.018362e+01    7.112489e-01
  3.019950e+01    7.144774e-01
  3.021537e+01    7.111525e-01
  3.023125e+01    7.227370e-01
  3.024712e+01    7.180991e-01
  3.026300e+01    7.283268e-01
  3.027888e+01    7.129712e-01
  3.029475e+01    6.932717e-01
  3.031063e+01    7.374153e-01
  3.032650e+01    7.263975e-01
  3.034238e+01    7.101724e-01
  3.035825e+01    7.116702e-01
  3.037413e+01    6.983413e-01
  3.039000e+01    7.165023e-01
  3.040588e+01    7.299443e-01
  3.042176e+01    7.123054e-01
  3.043763e+01    7.038757e-01
  3.045351e+01    7.002793e-01
  3.046938e+01    6.964467e-01
  3.048526e+01    7.005627e-01
  3.050113e+01    7.107824e-01
  3.051701e+01    6.987748e-01
  3.053288e+01    7.058415e-01
  3.054876e+01    7.068961e-01
  3.056464e+01    7.142551e-01
  3.058051e+01    7.019008e-01
  3.059639e+01    7.150021e-01
  3.061226e+01    7.125764e-01
  3.062814e+01    7.123445e-01
  3.064401e+01    7.062261e-01
  3.065989e+01    7.166520e-01
  3.067577e+01    7.160844e-01
  3.069164e+01    7.194293e-01
  3.070752e+01    7.029459e-01
  3.072339e+01    7.057034e-01
  3.073927e+01    6.930134e-01
  3.075514e+01    6.934555e-01
  3.077102e+01    7.144864e-01
  3.078689e+01    7.183647e-01
  3.080277e+01    7.158319e-01
  3.081865e+01    7.199597e-01
  3.083452e+01    7.193113e-01
  3.085040e+01    7.026410e-01
  3.086627e+01    7.048277e-01
  3.088215e+01    7.221064e-01
  3.089802e+01    7.045695e-01
  3.091390e+01    7.197810e-01
  3.092977e+01    7.277444e-01
  3.094565e+01    7.143325e-01
  3.096153e+01    7.104629e-01
  3.097740e+01    7.003602e-01
  3.099328e+01    7.164657e-01
  3.100915e+01    7.221121e-01
  3.102503e+01    7.098084e-01
  3.104090e+01    7.140089e-01
  3.105678e+01    7.110462e-01
  3.107265e+01    7.179399e-01
  3.108853e+01    7.189298e-01
  3.110441e+01    7.189726e-01
  3.112028e+01    7.218786e-01
  3.113616e+01    7.071751e-01
  3.115203e+01    7.249577e-01
  3.116791e+01    7.121199e-01
  3.118378e+01    6.915514e-01
  3.119966e+01    6.973761e-01
  3.121553e+01    7.158508e-01
  3.123141e+01    7.111443e-01
  3.124729e+01    7.134143e-01
  3.126316e+01    7.416230e-01
  3.127904e+01    7.276818e-01
  3.129491e+01    7.234257e-01
  3.131079e+01    7.299203e-01
  3.132666e+01    7.112347e-01
  3.134254e+01    7.273851e-01
  3.135841e+01    7.425331e-01
  3.137429e+01    7.253622e-01
  3.139017e+01    7.360538e-01
  3.140604e+01    7.332625e-01
  3.142192e+01    7.175034e-01
  3.143779e+01    7.261620e-01
  3.145367e+01    7.487161e-01
  3.146954e+01    7.563263e-01
  3.148542e+01    7.572764e-01
  3.150129e+01    7.500817e-01
  3.151717e+01    7.635612e-01
  3.153305e+01    7.830975e-01
  3.154892e+01    7.979873e-01
  3.156480e+01    8.031167e-01
  3.158067e+01    8.132281e-01
  3.159655e+01    8.068570e-01
  3.161242e+01    8.176492e-01
  3.162830e+01    8.244200e-01
  3.164418e+01    8.591367e-01
  3.166005e+01    8.930358e-01
  3.167593e+01    9.328340e-01
  3.169180e+01    9.554439e-01
  3.170768e+01    9.642963e-01
  3.172355e+01    1.010075e+00
  3.173943e+01    1.077329e+00
  3.175530e+01    1.128809e+00
  3.177118e+01    1.200870e+00
  3.178706e+01    1.287504e+00
  3.180293e+01    1.411020e+00
  3.181881e+01    1.532879e+00
  3.183468e+01    1.670145e+00
  3.185056e+01    1.808567e+00
  3.186643e+01    1.962471e+00
  3.188231e+01    2.055499e+00
  3.189818e+01    2.115013e+00
  3.191406e+01    2.127474e+00
  3.192994e+01    2.061255e+00
  3.194581e+01    1.968422e+00
  3.196169e+01    1.822371e+00
  3.197756e+01    1.684538e+00
  3.199344e+01    1.529441e+00
  3.200931e+01    1.391002e+00
  3.202519e+01    1.274953e+00
  3.204106e+01    1.186416e+00
  3.205694e+01    1.119155e+00
  3.207282e+01    1.061787e+00
  3.208869e+01    9.626391e-01
  3.210457e+01    9.245828e-01
  3.212044e+01    8.961438e-01
  3.213632e+01    8.614525e-01
  3.215219e+01    8.483132e-01
  3.216807e+01    8.309940e-01
  3.218394e+01    8.121933e-01
  3.219982e+01    8.051114e-01
  3.221570e+01    7.745421e-01
  3.223157e+01    7.540251e-01
  3.224745e+01    7.672712e-01
  3.226332e+01    7.512102e-01
  3.227920e+01    7.730582e-01
  3.229507e+01    7.754813e-01
  3.231095e+01    7.475008e-01
  3.232682e+01    7.359226e-01
  3.234270e+01    7.230133e-01
  3.235858e+01    7.359530e-01
  3.237445e+01    7.601998e-01
  3.239033e+01    7.567900e-01
  3.240620e+01    7.413775e-01
  3.242208e+01    7.331554e-01
  3.243795e+01    7.348810e-01
  3.245383e+01    7.403784e-01
  3.246970e+01    7.218646e-01
  3.248558e+01    6.951696e-01
  3.250146e+01    7.223278e-01
  3.251733e+01    7.113519e-01
  3.253321e+01    7.228368e-01
  3.254908e+01    7.105605e-01
