# == pyFAI calibration ==
# Distance Sample to Detector: 0.3999999939076516 m
# PONI: 9.750e-02, 1.135e-01 m
# Rotations: -0.000175 0.000000 -0.000000 rad
# 
# == Fit2d calibration ==
# Distance Sample-beamCenter: 400.000 mm
# Center: x=1514.000, y=1300.000 pix
# Tilt: 0.010 deg  TiltPlanRot: 0.010 deg
# 
# Detector Detector	 Spline= None	 PixelSize= 7.500e-05, 7.500e-05 m
#    Detector has a mask: False 
#    Detector has a dark current: False 
#    detector has a flat field: False 
# 
# Wavelength: 6.888e-11 m
# Mask applied: user provided
# Dark current applied: False
# Flat field applied: False
# Polarization factor: 0.99
# Normalization factor: 1.0
# --> /home/myspot/data/2024_07_Rosario/Ru-CGO-ex/2024-07-27_002_Ru-CGO-ex_Activtation_ramp_000002_data_000037.dat
#       q_nm^-1             I 
  2.003187e-02    1.424646e-01
  3.590745e-02    3.429401e-02
  5.178302e-02    6.857615e-02
  6.765859e-02    5.346220e-02
  8.353417e-02    1.028159e-01
  9.940974e-02    9.386186e-02
  1.152853e-01    1.505354e-02
  1.311609e-01    3.343841e-02
  1.470365e-01    1.937766e-02
  1.629120e-01    7.307553e-02
  1.787876e-01    8.094265e-02
  1.946632e-01    7.146063e-02
  2.105388e-01    5.211709e-02
  2.264143e-01    4.057666e-02
  2.422899e-01    5.141767e-02
  2.581655e-01    4.765415e-02
  2.740411e-01    2.981750e-02
  2.899166e-01    6.445132e-02
  3.057922e-01    7.890080e-02
  3.216678e-01    5.457372e-02
  3.375433e-01    2.830018e-02
  3.534189e-01    3.592709e-02
  3.692945e-01    3.021115e-02
  3.851701e-01    2.276979e-02
  4.010456e-01    2.304976e-02
  4.169212e-01    2.828977e-02
  4.327968e-01    5.821876e-02
  4.486724e-01    4.569139e-02
  4.645479e-01    2.883067e-02
  4.804235e-01    4.654384e-02
  4.962991e-01    2.302244e-02
  5.121747e-01    1.189751e-02
  5.280502e-01    8.365707e-03
  5.439258e-01    2.151544e-02
  5.598014e-01    7.346944e-02
  5.756770e-01    5.046105e-02
  5.915525e-01    3.883858e-02
  6.074281e-01    5.745608e-02
  6.233037e-01    8.069853e-02
  6.391793e-01    2.990052e-02
  6.550548e-01    4.473653e-02
  6.709304e-01    2.940880e-02
  6.868060e-01    1.921400e-02
  7.026815e-01    1.811547e-02
  7.185571e-01    3.671528e-02
  7.344327e-01    3.426820e-02
  7.503083e-01    2.974364e-02
  7.661838e-01    5.824250e-02
  7.820594e-01    6.896058e-02
  7.979350e-01    1.403841e-01
  8.138106e-01    1.953284e-01
  8.296861e-01    2.829801e-01
  8.455617e-01    3.493249e-01
  8.614373e-01    3.582332e-01
  8.773129e-01    4.121065e-01
  8.931884e-01    5.169960e-01
  9.090640e-01    5.768154e-01
  9.249396e-01    6.654983e-01
  9.408152e-01    7.327839e-01
  9.566907e-01    8.640931e-01
  9.725663e-01    8.872954e-01
  9.884419e-01    9.696946e-01
  1.004317e+00    1.041397e+00
  1.020193e+00    1.053790e+00
  1.036069e+00    1.215041e+00
  1.051944e+00    1.218500e+00
  1.067820e+00    1.266127e+00
  1.083695e+00    1.351500e+00
  1.099571e+00    1.430106e+00
  1.115446e+00    1.461491e+00
  1.131322e+00    1.482686e+00
  1.147198e+00    1.479108e+00
  1.163073e+00    1.613187e+00
  1.178949e+00    1.635325e+00
  1.194824e+00    1.658322e+00
  1.210700e+00    1.850203e+00
  1.226575e+00    2.123122e+00
  1.242451e+00    2.107694e+00
  1.258327e+00    2.299205e+00
  1.274202e+00    2.425024e+00
  1.290078e+00    2.518255e+00
  1.305953e+00    2.620190e+00
  1.321829e+00    2.674402e+00
  1.337705e+00    2.576738e+00
  1.353580e+00    2.551943e+00
  1.369456e+00    2.713029e+00
  1.385331e+00    2.692135e+00
  1.401207e+00    2.578312e+00
  1.417082e+00    2.644969e+00
  1.432958e+00    2.756294e+00
  1.448834e+00    2.795847e+00
  1.464709e+00    3.014879e+00
  1.480585e+00    2.954431e+00
  1.496460e+00    2.808737e+00
  1.512336e+00    2.986257e+00
  1.528211e+00    3.094415e+00
  1.544087e+00    3.175121e+00
  1.559963e+00    3.125981e+00
  1.575838e+00    2.992699e+00
  1.591714e+00    2.924874e+00
  1.607589e+00    2.929969e+00
  1.623465e+00    2.911954e+00
  1.639340e+00    2.899804e+00
  1.655216e+00    2.876627e+00
  1.671092e+00    2.957781e+00
  1.686967e+00    3.023550e+00
  1.702843e+00    2.996474e+00
  1.718718e+00    2.938394e+00
  1.734594e+00    2.982467e+00
  1.750469e+00    2.937629e+00
  1.766345e+00    2.881917e+00
  1.782221e+00    2.780962e+00
  1.798096e+00    2.877400e+00
  1.813972e+00    2.836321e+00
  1.829847e+00    2.782526e+00
  1.845723e+00    2.681551e+00
  1.861598e+00    2.648248e+00
  1.877474e+00    2.707770e+00
  1.893350e+00    2.827479e+00
  1.909225e+00    2.917476e+00
  1.925101e+00    2.823357e+00
  1.940976e+00    2.798030e+00
  1.956852e+00    2.808174e+00
  1.972727e+00    2.791070e+00
  1.988603e+00    2.706594e+00
  2.004479e+00    2.759452e+00
  2.020354e+00    2.796466e+00
  2.036230e+00    2.883762e+00
  2.052105e+00    2.876702e+00
  2.067981e+00    2.803973e+00
  2.083856e+00    2.901819e+00
  2.099732e+00    2.820597e+00
  2.115608e+00    2.819309e+00
  2.131483e+00    2.779625e+00
  2.147359e+00    2.754218e+00
  2.163234e+00    2.758129e+00
  2.179110e+00    2.804791e+00
  2.194985e+00    2.835586e+00
  2.210861e+00    2.800590e+00
  2.226737e+00    2.902565e+00
  2.242612e+00    2.884314e+00
  2.258488e+00    2.875420e+00
  2.274363e+00    2.781728e+00
  2.290239e+00    2.844301e+00
  2.306115e+00    2.879094e+00
  2.321990e+00    2.909202e+00
  2.337866e+00    2.854118e+00
  2.353741e+00    2.852614e+00
  2.369617e+00    2.894752e+00
  2.385492e+00    2.772914e+00
  2.401368e+00    2.665216e+00
  2.417244e+00    2.761326e+00
  2.433119e+00    2.860601e+00
  2.448995e+00    2.860297e+00
  2.464870e+00    2.834211e+00
  2.480746e+00    2.866281e+00
  2.496621e+00    2.755563e+00
  2.512497e+00    2.779882e+00
  2.528373e+00    2.823986e+00
  2.544248e+00    2.790193e+00
  2.560124e+00    2.787359e+00
  2.575999e+00    2.782769e+00
  2.591875e+00    2.752301e+00
  2.607750e+00    2.806870e+00
  2.623626e+00    2.794564e+00
  2.639502e+00    2.823294e+00
  2.655377e+00    2.817992e+00
  2.671253e+00    2.792786e+00
  2.687128e+00    2.860102e+00
  2.703004e+00    2.949728e+00
  2.718879e+00    2.870395e+00
  2.734755e+00    2.834420e+00
  2.750631e+00    2.809710e+00
  2.766506e+00    2.822346e+00
  2.782382e+00    2.859092e+00
  2.798257e+00    2.986937e+00
  2.814133e+00    2.846740e+00
  2.830008e+00    2.819456e+00
  2.845884e+00    2.876671e+00
  2.861760e+00    2.908109e+00
  2.877635e+00    2.892305e+00
  2.893511e+00    2.838587e+00
  2.909386e+00    2.854744e+00
  2.925262e+00    2.929128e+00
  2.941137e+00    2.926966e+00
  2.957013e+00    2.878033e+00
  2.972889e+00    2.815798e+00
  2.988764e+00    2.890344e+00
  3.004640e+00    2.956579e+00
  3.020515e+00    3.024155e+00
  3.036391e+00    2.879233e+00
  3.052266e+00    2.913774e+00
  3.068142e+00    2.897640e+00
  3.084018e+00    2.858502e+00
  3.099893e+00    2.937252e+00
  3.115769e+00    3.035636e+00
  3.131644e+00    2.983479e+00
  3.147520e+00    2.919090e+00
  3.163395e+00    2.883137e+00
  3.179271e+00    2.882303e+00
  3.195147e+00    2.975170e+00
  3.211022e+00    3.079861e+00
  3.226898e+00    3.015371e+00
  3.242773e+00    2.920580e+00
  3.258649e+00    2.891530e+00
  3.274525e+00    2.889225e+00
  3.290400e+00    2.888932e+00
  3.306276e+00    2.803017e+00
  3.322151e+00    2.842485e+00
  3.338027e+00    2.995444e+00
  3.353902e+00    3.019548e+00
  3.369778e+00    2.950608e+00
  3.385654e+00    2.990780e+00
  3.401529e+00    2.973076e+00
  3.417405e+00    2.877866e+00
  3.433280e+00    2.964145e+00
  3.449156e+00    2.966734e+00
  3.465031e+00    2.947565e+00
  3.480907e+00    2.944908e+00
  3.496783e+00    3.018558e+00
  3.512658e+00    3.046850e+00
  3.528534e+00    3.027211e+00
  3.544409e+00    2.938871e+00
  3.560285e+00    2.932508e+00
  3.576160e+00    2.924140e+00
  3.592036e+00    2.984802e+00
  3.607912e+00    3.058530e+00
  3.623787e+00    3.101086e+00
  3.639663e+00    3.051587e+00
  3.655538e+00    3.019614e+00
  3.671414e+00    3.065323e+00
  3.687289e+00    2.961125e+00
  3.703165e+00    2.952745e+00
  3.719041e+00    3.047186e+00
  3.734916e+00    3.038269e+00
  3.750792e+00    3.054429e+00
  3.766667e+00    3.080587e+00
  3.782543e+00    3.074468e+00
  3.798418e+00    3.020976e+00
  3.814294e+00    2.932716e+00
  3.830170e+00    3.003302e+00
  3.846045e+00    3.025806e+00
  3.861921e+00    2.992298e+00
  3.877796e+00    3.046504e+00
  3.893672e+00    3.018679e+00
  3.909547e+00    3.011893e+00
  3.925423e+00    3.046858e+00
  3.941299e+00    2.929400e+00
  3.957174e+00    2.989178e+00
  3.973050e+00    3.067783e+00
  3.988925e+00    3.106120e+00
  4.004801e+00    3.117898e+00
  4.020676e+00    3.094695e+00
  4.036552e+00    3.084921e+00
  4.052428e+00    3.068838e+00
  4.068303e+00    2.994169e+00
  4.084179e+00    3.106146e+00
  4.100054e+00    3.079094e+00
  4.115930e+00    3.098949e+00
  4.131806e+00    3.052547e+00
  4.147681e+00    3.060992e+00
  4.163557e+00    3.054264e+00
  4.179432e+00    2.989943e+00
  4.195308e+00    3.033426e+00
  4.211183e+00    3.004660e+00
  4.227059e+00    3.007287e+00
  4.242935e+00    3.066132e+00
  4.258810e+00    3.090963e+00
  4.274686e+00    3.098549e+00
  4.290561e+00    3.037750e+00
  4.306437e+00    3.094599e+00
  4.322312e+00    3.193333e+00
  4.338188e+00    3.117025e+00
  4.354064e+00    3.183583e+00
  4.369939e+00    3.110124e+00
  4.385815e+00    3.068219e+00
  4.401690e+00    3.049485e+00
  4.417566e+00    3.054598e+00
  4.433441e+00    3.139900e+00
  4.449317e+00    3.086829e+00
  4.465193e+00    3.044238e+00
  4.481068e+00    3.027332e+00
  4.496944e+00    3.088413e+00
  4.512819e+00    3.052751e+00
  4.528695e+00    3.076964e+00
  4.544570e+00    3.017887e+00
  4.560446e+00    3.009209e+00
  4.576322e+00    3.064813e+00
  4.592197e+00    3.062329e+00
  4.608073e+00    3.099374e+00
  4.623948e+00    3.086778e+00
  4.639824e+00    3.089147e+00
  4.655699e+00    3.021119e+00
  4.671575e+00    3.098761e+00
  4.687451e+00    3.083440e+00
  4.703326e+00    3.027505e+00
  4.719202e+00    3.035753e+00
  4.735077e+00    3.068658e+00
  4.750953e+00    3.145329e+00
  4.766828e+00    3.171349e+00
  4.782704e+00    3.211366e+00
  4.798580e+00    3.163988e+00
  4.814455e+00    3.119581e+00
  4.830331e+00    3.170825e+00
  4.846206e+00    3.192332e+00
  4.862082e+00    3.107464e+00
  4.877957e+00    3.086945e+00
  4.893833e+00    3.093551e+00
  4.909709e+00    3.084747e+00
  4.925584e+00    3.088632e+00
  4.941460e+00    3.148223e+00
  4.957335e+00    3.124477e+00
  4.973211e+00    3.131424e+00
  4.989086e+00    3.153257e+00
  5.004962e+00    3.142827e+00
  5.020838e+00    3.139633e+00
  5.036713e+00    3.128201e+00
  5.052589e+00    3.105978e+00
  5.068464e+00    3.102198e+00
  5.084340e+00    3.153493e+00
  5.100216e+00    3.091757e+00
  5.116091e+00    3.060095e+00
  5.131967e+00    3.091043e+00
  5.147842e+00    3.087517e+00
  5.163718e+00    3.032406e+00
  5.179593e+00    3.116778e+00
  5.195469e+00    3.102774e+00
  5.211345e+00    3.150361e+00
  5.227220e+00    3.199643e+00
  5.243096e+00    3.185385e+00
  5.258971e+00    3.181613e+00
  5.274847e+00    3.110598e+00
  5.290722e+00    2.975229e+00
  5.306598e+00    3.115908e+00
  5.322474e+00    3.125301e+00
  5.338349e+00    3.128435e+00
  5.354225e+00    3.135612e+00
  5.370100e+00    3.102119e+00
  5.385976e+00    3.184203e+00
  5.401851e+00    3.155445e+00
  5.417727e+00    3.132701e+00
  5.433603e+00    3.183982e+00
  5.449478e+00    3.078648e+00
  5.465354e+00    3.088500e+00
  5.481229e+00    3.152718e+00
  5.497105e+00    3.093670e+00
  5.512980e+00    3.019998e+00
  5.528856e+00    3.078960e+00
  5.544732e+00    3.103889e+00
  5.560607e+00    3.109469e+00
  5.576483e+00    3.078212e+00
  5.592358e+00    2.997438e+00
  5.608234e+00    3.022158e+00
  5.624109e+00    3.036451e+00
  5.639985e+00    3.021228e+00
  5.655861e+00    3.056818e+00
  5.671736e+00    3.041682e+00
  5.687612e+00    3.058133e+00
  5.703487e+00    3.143746e+00
  5.719363e+00    3.140119e+00
  5.735238e+00    3.040178e+00
  5.751114e+00    3.030055e+00
  5.766990e+00    3.019609e+00
  5.782865e+00    3.012555e+00
  5.798741e+00    3.028444e+00
  5.814616e+00    3.118036e+00
  5.830492e+00    3.113273e+00
  5.846367e+00    3.058516e+00
  5.862243e+00    3.039051e+00
  5.878119e+00    3.050568e+00
  5.893994e+00    3.079026e+00
  5.909870e+00    3.006812e+00
  5.925745e+00    2.960785e+00
  5.941621e+00    2.996417e+00
  5.957497e+00    3.038185e+00
  5.973372e+00    2.984555e+00
  5.989248e+00    2.920569e+00
  6.005123e+00    2.947422e+00
  6.020999e+00    2.993610e+00
  6.036874e+00    3.001535e+00
  6.052750e+00    3.024957e+00
  6.068626e+00    3.009862e+00
  6.084501e+00    3.079506e+00
  6.100377e+00    3.126891e+00
  6.116252e+00    3.142249e+00
  6.132128e+00    3.054183e+00
  6.148003e+00    3.050555e+00
  6.163879e+00    3.077349e+00
  6.179755e+00    3.017186e+00
  6.195630e+00    3.051768e+00
  6.211506e+00    3.074279e+00
  6.227381e+00    3.061330e+00
  6.243257e+00    3.085935e+00
  6.259132e+00    3.034050e+00
  6.275008e+00    3.042390e+00
  6.290884e+00    3.043406e+00
  6.306759e+00    3.052067e+00
  6.322635e+00    3.037053e+00
  6.338510e+00    3.070225e+00
  6.354386e+00    3.070103e+00
  6.370261e+00    3.041030e+00
  6.386137e+00    3.060457e+00
  6.402013e+00    3.107205e+00
  6.417888e+00    3.073309e+00
  6.433764e+00    3.065619e+00
  6.449639e+00    3.089260e+00
  6.465515e+00    3.103992e+00
  6.481390e+00    3.090512e+00
  6.497266e+00    3.180921e+00
  6.513142e+00    3.070264e+00
  6.529017e+00    3.053899e+00
  6.544893e+00    3.076192e+00
  6.560768e+00    3.095087e+00
  6.576644e+00    3.036862e+00
  6.592519e+00    2.975858e+00
  6.608395e+00    2.992631e+00
  6.624271e+00    3.056870e+00
  6.640146e+00    3.027324e+00
  6.656022e+00    3.057920e+00
  6.671897e+00    3.005170e+00
  6.687773e+00    3.038341e+00
  6.703648e+00    2.992032e+00
  6.719524e+00    3.015911e+00
  6.735400e+00    3.068147e+00
  6.751275e+00    3.098527e+00
  6.767151e+00    3.066457e+00
  6.783026e+00    3.031660e+00
  6.798902e+00    3.027894e+00
  6.814777e+00    3.041821e+00
  6.830653e+00    3.061231e+00
  6.846529e+00    3.063838e+00
  6.862404e+00    3.048402e+00
  6.878280e+00    3.055418e+00
  6.894155e+00    2.997354e+00
  6.910031e+00    2.999804e+00
  6.925907e+00    3.057452e+00
  6.941782e+00    3.015820e+00
  6.957658e+00    3.049909e+00
  6.973533e+00    3.058804e+00
  6.989409e+00    2.991872e+00
  7.005284e+00    2.987185e+00
  7.021160e+00    3.110963e+00
  7.037036e+00    3.075667e+00
  7.052911e+00    2.990399e+00
  7.068787e+00    3.012822e+00
  7.084662e+00    2.922693e+00
  7.100538e+00    2.936552e+00
  7.116413e+00    3.018660e+00
  7.132289e+00    3.034518e+00
  7.148165e+00    3.013292e+00
  7.164040e+00    3.061204e+00
  7.179916e+00    3.025621e+00
  7.195791e+00    2.947931e+00
  7.211667e+00    2.975420e+00
  7.227542e+00    3.028405e+00
  7.243418e+00    3.051254e+00
  7.259294e+00    3.041933e+00
  7.275169e+00    2.960483e+00
  7.291045e+00    3.013885e+00
  7.306920e+00    3.028309e+00
  7.322796e+00    2.968456e+00
  7.338671e+00    2.909786e+00
  7.354547e+00    2.929348e+00
  7.370423e+00    2.999519e+00
  7.386298e+00    3.067847e+00
  7.402174e+00    3.016876e+00
  7.418049e+00    3.019120e+00
  7.433925e+00    2.985125e+00
  7.449800e+00    3.028968e+00
  7.465676e+00    3.020128e+00
  7.481552e+00    2.981467e+00
  7.497427e+00    2.964665e+00
  7.513303e+00    2.942955e+00
  7.529178e+00    2.951748e+00
  7.545054e+00    2.930969e+00
  7.560929e+00    2.997869e+00
  7.576805e+00    3.000480e+00
  7.592681e+00    2.966233e+00
  7.608556e+00    3.052931e+00
  7.624432e+00    2.941465e+00
  7.640307e+00    2.937411e+00
  7.656183e+00    2.993038e+00
  7.672058e+00    2.959983e+00
  7.687934e+00    2.948785e+00
  7.703810e+00    2.988323e+00
  7.719685e+00    2.960696e+00
  7.735561e+00    3.030364e+00
  7.751436e+00    2.981522e+00
  7.767312e+00    2.991017e+00
  7.783187e+00    2.942007e+00
  7.799063e+00    2.909652e+00
  7.814939e+00    2.915752e+00
  7.830814e+00    2.885704e+00
  7.846690e+00    2.905777e+00
  7.862565e+00    2.923942e+00
  7.878441e+00    2.941580e+00
  7.894317e+00    2.983486e+00
  7.910192e+00    2.876412e+00
  7.926068e+00    2.837603e+00
  7.941943e+00    2.942026e+00
  7.957819e+00    2.979984e+00
  7.973694e+00    2.917540e+00
  7.989570e+00    2.889302e+00
  8.005446e+00    2.947823e+00
  8.021321e+00    3.007471e+00
  8.037197e+00    2.969669e+00
  8.053072e+00    2.936261e+00
  8.068948e+00    2.945273e+00
  8.084823e+00    2.948109e+00
  8.100699e+00    2.939337e+00
  8.116575e+00    2.933590e+00
  8.132450e+00    2.907247e+00
  8.148326e+00    2.990010e+00
  8.164201e+00    2.980630e+00
  8.180077e+00    2.987376e+00
  8.195952e+00    2.956070e+00
  8.211828e+00    3.026167e+00
  8.227704e+00    3.006589e+00
  8.243579e+00    2.978137e+00
  8.259455e+00    2.886651e+00
  8.275330e+00    2.912236e+00
  8.291206e+00    2.895652e+00
  8.307081e+00    2.929524e+00
  8.322957e+00    2.911684e+00
  8.338833e+00    2.917757e+00
  8.354708e+00    2.980171e+00
  8.370584e+00    2.971971e+00
  8.386459e+00    2.958666e+00
  8.402335e+00    2.955301e+00
  8.418210e+00    2.968307e+00
  8.434086e+00    2.923763e+00
  8.449962e+00    2.856554e+00
  8.465837e+00    2.824200e+00
  8.481713e+00    2.877262e+00
  8.497588e+00    2.922616e+00
  8.513464e+00    2.911063e+00
  8.529339e+00    2.886606e+00
  8.545215e+00    2.858612e+00
  8.561091e+00    2.869981e+00
  8.576966e+00    2.901351e+00
  8.592842e+00    2.937960e+00
  8.608717e+00    2.884597e+00
  8.624593e+00    2.829603e+00
  8.640468e+00    2.841436e+00
  8.656344e+00    2.899209e+00
  8.672220e+00    2.851115e+00
  8.688095e+00    2.879140e+00
  8.703971e+00    2.870854e+00
  8.719846e+00    2.866071e+00
  8.735722e+00    2.863817e+00
  8.751598e+00    2.860335e+00
  8.767473e+00    2.892858e+00
  8.783349e+00    2.882126e+00
  8.799224e+00    2.845829e+00
  8.815100e+00    2.901083e+00
  8.830975e+00    2.888172e+00
  8.846851e+00    2.821675e+00
  8.862727e+00    2.849427e+00
  8.878602e+00    2.887755e+00
  8.894478e+00    2.801236e+00
  8.910353e+00    2.745400e+00
  8.926229e+00    2.789596e+00
  8.942104e+00    2.807157e+00
  8.957980e+00    2.879540e+00
  8.973856e+00    2.795735e+00
  8.989731e+00    2.811343e+00
  9.005607e+00    2.878966e+00
  9.021482e+00    2.767631e+00
  9.037358e+00    2.852046e+00
  9.053233e+00    2.854401e+00
  9.069109e+00    2.851373e+00
  9.084985e+00    2.799805e+00
  9.100860e+00    2.777951e+00
  9.116736e+00    2.782904e+00
  9.132611e+00    2.859274e+00
  9.148487e+00    2.863124e+00
  9.164362e+00    2.829286e+00
  9.180238e+00    2.833227e+00
  9.196114e+00    2.843319e+00
  9.211989e+00    2.826068e+00
  9.227865e+00    2.819065e+00
  9.243740e+00    2.750539e+00
  9.259616e+00    2.766262e+00
  9.275491e+00    2.822430e+00
  9.291367e+00    2.838876e+00
  9.307243e+00    2.782686e+00
  9.323118e+00    2.755498e+00
  9.338994e+00    2.786799e+00
  9.354869e+00    2.786133e+00
  9.370745e+00    2.750373e+00
  9.386620e+00    2.770842e+00
  9.402496e+00    2.777204e+00
  9.418372e+00    2.762375e+00
  9.434247e+00    2.746580e+00
  9.450123e+00    2.784464e+00
  9.465998e+00    2.781103e+00
  9.481874e+00    2.805146e+00
  9.497749e+00    2.760606e+00
  9.513625e+00    2.811755e+00
  9.529501e+00    2.757347e+00
  9.545376e+00    2.790404e+00
  9.561252e+00    2.814475e+00
  9.577127e+00    2.764716e+00
  9.593003e+00    2.780483e+00
  9.608878e+00    2.749984e+00
  9.624754e+00    2.737921e+00
  9.640630e+00    2.770056e+00
  9.656505e+00    2.755474e+00
  9.672381e+00    2.732231e+00
  9.688256e+00    2.748924e+00
  9.704132e+00    2.802071e+00
  9.720008e+00    2.780190e+00
  9.735883e+00    2.698864e+00
  9.751759e+00    2.736972e+00
  9.767634e+00    2.724007e+00
  9.783510e+00    2.751083e+00
  9.799385e+00    2.736655e+00
  9.815261e+00    2.803298e+00
  9.831137e+00    2.737749e+00
  9.847012e+00    2.741078e+00
  9.862888e+00    2.718772e+00
  9.878763e+00    2.771821e+00
  9.894639e+00    2.752029e+00
  9.910514e+00    2.720692e+00
  9.926390e+00    2.745764e+00
  9.942266e+00    2.673586e+00
  9.958141e+00    2.706581e+00
  9.974017e+00    2.680449e+00
  9.989892e+00    2.670817e+00
  1.000577e+01    2.693774e+00
  1.002164e+01    2.718609e+00
  1.003752e+01    2.680273e+00
  1.005339e+01    2.677453e+00
  1.006927e+01    2.682709e+00
  1.008515e+01    2.678478e+00
  1.010102e+01    2.638413e+00
  1.011690e+01    2.655173e+00
  1.013277e+01    2.671137e+00
  1.014865e+01    2.682109e+00
  1.016452e+01    2.653970e+00
  1.018040e+01    2.652961e+00
  1.019627e+01    2.628263e+00
  1.021215e+01    2.644490e+00
  1.022803e+01    2.709673e+00
  1.024390e+01    2.685292e+00
  1.025978e+01    2.689291e+00
  1.027565e+01    2.646956e+00
  1.029153e+01    2.628187e+00
  1.030740e+01    2.639485e+00
  1.032328e+01    2.649634e+00
  1.033915e+01    2.677755e+00
  1.035503e+01    2.688464e+00
  1.037091e+01    2.671996e+00
  1.038678e+01    2.647381e+00
  1.040266e+01    2.649540e+00
  1.041853e+01    2.587813e+00
  1.043441e+01    2.573825e+00
  1.045028e+01    2.581168e+00
  1.046616e+01    2.574629e+00
  1.048204e+01    2.570075e+00
  1.049791e+01    2.594998e+00
  1.051379e+01    2.544766e+00
  1.052966e+01    2.576189e+00
  1.054554e+01    2.607902e+00
  1.056141e+01    2.591233e+00
  1.057729e+01    2.574047e+00
  1.059316e+01    2.533546e+00
  1.060904e+01    2.571265e+00
  1.062492e+01    2.532629e+00
  1.064079e+01    2.546164e+00
  1.065667e+01    2.589452e+00
  1.067254e+01    2.529815e+00
  1.068842e+01    2.579678e+00
  1.070429e+01    2.615235e+00
  1.072017e+01    2.573101e+00
  1.073604e+01    2.537854e+00
  1.075192e+01    2.594302e+00
  1.076780e+01    2.592511e+00
  1.078367e+01    2.505265e+00
  1.079955e+01    2.502870e+00
  1.081542e+01    2.552684e+00
  1.083130e+01    2.604885e+00
  1.084717e+01    2.542987e+00
  1.086305e+01    2.537659e+00
  1.087892e+01    2.507745e+00
  1.089480e+01    2.497370e+00
  1.091068e+01    2.539008e+00
  1.092655e+01    2.514143e+00
  1.094243e+01    2.547304e+00
  1.095830e+01    2.532128e+00
  1.097418e+01    2.501918e+00
  1.099005e+01    2.507982e+00
  1.100593e+01    2.516471e+00
  1.102180e+01    2.485763e+00
  1.103768e+01    2.469737e+00
  1.105356e+01    2.477406e+00
  1.106943e+01    2.471500e+00
  1.108531e+01    2.482671e+00
  1.110118e+01    2.483885e+00
  1.111706e+01    2.479455e+00
  1.113293e+01    2.484027e+00
  1.114881e+01    2.478413e+00
  1.116468e+01    2.461867e+00
  1.118056e+01    2.468967e+00
  1.119644e+01    2.400242e+00
  1.121231e+01    2.391342e+00
  1.122819e+01    2.432335e+00
  1.124406e+01    2.463115e+00
  1.125994e+01    2.497642e+00
  1.127581e+01    2.517308e+00
  1.129169e+01    2.486397e+00
  1.130756e+01    2.453647e+00
  1.132344e+01    2.468923e+00
  1.133932e+01    2.468353e+00
  1.135519e+01    2.458584e+00
  1.137107e+01    2.423872e+00
  1.138694e+01    2.417188e+00
  1.140282e+01    2.425387e+00
  1.141869e+01    2.404523e+00
  1.143457e+01    2.456408e+00
  1.145045e+01    2.406749e+00
  1.146632e+01    2.389909e+00
  1.148220e+01    2.465685e+00
  1.149807e+01    2.433281e+00
  1.151395e+01    2.432039e+00
  1.152982e+01    2.415992e+00
  1.154570e+01    2.370065e+00
  1.156157e+01    2.401099e+00
  1.157745e+01    2.432287e+00
  1.159333e+01    2.419905e+00
  1.160920e+01    2.418569e+00
  1.162508e+01    2.368325e+00
  1.164095e+01    2.379852e+00
  1.165683e+01    2.368598e+00
  1.167270e+01    2.412738e+00
  1.168858e+01    2.410428e+00
  1.170445e+01    2.365184e+00
  1.172033e+01    2.344498e+00
  1.173621e+01    2.379525e+00
  1.175208e+01    2.390790e+00
  1.176796e+01    2.367050e+00
  1.178383e+01    2.368910e+00
  1.179971e+01    2.368490e+00
  1.181558e+01    2.382648e+00
  1.183146e+01    2.348846e+00
  1.184733e+01    2.350805e+00
  1.186321e+01    2.350122e+00
  1.187909e+01    2.343586e+00
  1.189496e+01    2.313540e+00
  1.191084e+01    2.387733e+00
  1.192671e+01    2.401377e+00
  1.194259e+01    2.390046e+00
  1.195846e+01    2.347172e+00
  1.197434e+01    2.302094e+00
  1.199021e+01    2.332171e+00
  1.200609e+01    2.360908e+00
  1.202197e+01    2.390493e+00
  1.203784e+01    2.365993e+00
  1.205372e+01    2.381010e+00
  1.206959e+01    2.341544e+00
  1.208547e+01    2.344383e+00
  1.210134e+01    2.365295e+00
  1.211722e+01    2.360384e+00
  1.213309e+01    2.349425e+00
  1.214897e+01    2.359747e+00
  1.216485e+01    2.348648e+00
  1.218072e+01    2.351051e+00
  1.219660e+01    2.319006e+00
  1.221247e+01    2.325495e+00
  1.222835e+01    2.341017e+00
  1.224422e+01    2.345371e+00
  1.226010e+01    2.314808e+00
  1.227597e+01    2.360514e+00
  1.229185e+01    2.391655e+00
  1.230773e+01    2.385610e+00
  1.232360e+01    2.325450e+00
  1.233948e+01    2.305827e+00
  1.235535e+01    2.353801e+00
  1.237123e+01    2.349669e+00
  1.238710e+01    2.348402e+00
  1.240298e+01    2.333306e+00
  1.241886e+01    2.322407e+00
  1.243473e+01    2.338192e+00
  1.245061e+01    2.358162e+00
  1.246648e+01    2.385816e+00
  1.248236e+01    2.381874e+00
  1.249823e+01    2.401831e+00
  1.251411e+01    2.373681e+00
  1.252998e+01    2.345542e+00
  1.254586e+01    2.374875e+00
  1.256174e+01    2.424989e+00
  1.257761e+01    2.427420e+00
  1.259349e+01    2.443602e+00
  1.260936e+01    2.431239e+00
  1.262524e+01    2.434525e+00
  1.264111e+01    2.425318e+00
  1.265699e+01    2.449473e+00
  1.267286e+01    2.443326e+00
  1.268874e+01    2.469227e+00
  1.270462e+01    2.508067e+00
  1.272049e+01    2.554551e+00
  1.273637e+01    2.533788e+00
  1.275224e+01    2.552730e+00
  1.276812e+01    2.606009e+00
  1.278399e+01    2.646875e+00
  1.279987e+01    2.688215e+00
  1.281574e+01    2.754297e+00
  1.283162e+01    2.797564e+00
  1.284750e+01    2.871805e+00
  1.286337e+01    2.937934e+00
  1.287925e+01    2.970285e+00
  1.289512e+01    3.146558e+00
  1.291100e+01    3.286129e+00
  1.292687e+01    3.474471e+00
  1.294275e+01    3.664564e+00
  1.295862e+01    3.944349e+00
  1.297450e+01    4.270163e+00
  1.299038e+01    4.664995e+00
  1.300625e+01    5.185397e+00
  1.302213e+01    5.867693e+00
  1.303800e+01    6.805477e+00
  1.305388e+01    7.833831e+00
  1.306975e+01    9.025127e+00
  1.308563e+01    1.054906e+01
  1.310150e+01    1.206475e+01
  1.311738e+01    1.356396e+01
  1.313326e+01    1.505229e+01
  1.314913e+01    1.652171e+01
  1.316501e+01    1.781295e+01
  1.318088e+01    1.892097e+01
  1.319676e+01    1.944696e+01
  1.321263e+01    1.910672e+01
  1.322851e+01    1.778629e+01
  1.324438e+01    1.561640e+01
  1.326026e+01    1.329227e+01
  1.327614e+01    1.115743e+01
  1.329201e+01    9.483455e+00
  1.330789e+01    8.017485e+00
  1.332376e+01    6.880106e+00
  1.333964e+01    5.988854e+00
  1.335551e+01    5.378635e+00
  1.337139e+01    4.802230e+00
  1.338727e+01    4.322305e+00
  1.340314e+01    4.030707e+00
  1.341902e+01    3.799518e+00
  1.343489e+01    3.493846e+00
  1.345077e+01    3.317451e+00
  1.346664e+01    3.162142e+00
  1.348252e+01    3.030131e+00
  1.349839e+01    2.946064e+00
  1.351427e+01    2.824319e+00
  1.353015e+01    2.708981e+00
  1.354602e+01    2.671413e+00
  1.356190e+01    2.613302e+00
  1.357777e+01    2.560256e+00
  1.359365e+01    2.513579e+00
  1.360952e+01    2.460145e+00
  1.362540e+01    2.431835e+00
  1.364127e+01    2.411065e+00
  1.365715e+01    2.377236e+00
  1.367303e+01    2.338185e+00
  1.368890e+01    2.342769e+00
  1.370478e+01    2.293405e+00
  1.372065e+01    2.281943e+00
  1.373653e+01    2.287565e+00
  1.375240e+01    2.262315e+00
  1.376828e+01    2.270296e+00
  1.378415e+01    2.276137e+00
  1.380003e+01    2.202138e+00
  1.381591e+01    2.181561e+00
  1.383178e+01    2.169544e+00
  1.384766e+01    2.201431e+00
  1.386353e+01    2.194551e+00
  1.387941e+01    2.110195e+00
  1.389528e+01    2.141685e+00
  1.391116e+01    2.110883e+00
  1.392703e+01    2.093604e+00
  1.394291e+01    2.102880e+00
  1.395879e+01    2.060050e+00
  1.397466e+01    2.023169e+00
  1.399054e+01    2.025288e+00
  1.400641e+01    2.087025e+00
  1.402229e+01    2.091123e+00
  1.403816e+01    2.073425e+00
  1.405404e+01    2.048168e+00
  1.406991e+01    2.067690e+00
  1.408579e+01    2.048978e+00
  1.410167e+01    2.032524e+00
  1.411754e+01    2.068763e+00
  1.413342e+01    2.083899e+00
  1.414929e+01    2.077821e+00
  1.416517e+01    2.056278e+00
  1.418104e+01    2.021170e+00
  1.419692e+01    1.990141e+00
  1.421279e+01    1.997815e+00
  1.422867e+01    2.012303e+00
  1.424455e+01    1.968797e+00
  1.426042e+01    1.967307e+00
  1.427630e+01    1.982888e+00
  1.429217e+01    2.018954e+00
  1.430805e+01    1.984087e+00
  1.432392e+01    2.003907e+00
  1.433980e+01    1.950610e+00
  1.435568e+01    1.974159e+00
  1.437155e+01    1.982613e+00
  1.438743e+01    1.969653e+00
  1.440330e+01    1.920342e+00
  1.441918e+01    1.954402e+00
  1.443505e+01    1.983228e+00
  1.445093e+01    1.960072e+00
  1.446680e+01    1.952040e+00
  1.448268e+01    1.921361e+00
  1.449856e+01    1.936976e+00
  1.451443e+01    1.955163e+00
  1.453031e+01    1.930536e+00
  1.454618e+01    1.921962e+00
  1.456206e+01    1.946030e+00
  1.457793e+01    1.963992e+00
  1.459381e+01    1.939465e+00
  1.460968e+01    1.932087e+00
  1.462556e+01    1.948833e+00
  1.464144e+01    1.968565e+00
  1.465731e+01    1.956437e+00
  1.467319e+01    1.927056e+00
  1.468906e+01    1.935295e+00
  1.470494e+01    1.946108e+00
  1.472081e+01    1.909623e+00
  1.473669e+01    1.942027e+00
  1.475256e+01    1.923732e+00
  1.476844e+01    1.906865e+00
  1.478432e+01    1.933595e+00
  1.480019e+01    1.932862e+00
  1.481607e+01    1.957353e+00
  1.483194e+01    1.924641e+00
  1.484782e+01    1.902153e+00
  1.486369e+01    1.943225e+00
  1.487957e+01    1.958166e+00
  1.489544e+01    1.953384e+00
  1.491132e+01    1.995054e+00
  1.492720e+01    2.010423e+00
  1.494307e+01    2.011852e+00
  1.495895e+01    2.021170e+00
  1.497482e+01    2.045577e+00
  1.499070e+01    2.098719e+00
  1.500657e+01    2.170179e+00
  1.502245e+01    2.199024e+00
  1.503832e+01    2.241354e+00
  1.505420e+01    2.352269e+00
  1.507008e+01    2.478804e+00
  1.508595e+01    2.588766e+00
  1.510183e+01    2.745450e+00
  1.511770e+01    2.995266e+00
  1.513358e+01    3.225097e+00
  1.514945e+01    3.624900e+00
  1.516533e+01    3.981931e+00
  1.518120e+01    4.374068e+00
  1.519708e+01    4.829913e+00
  1.521296e+01    5.229781e+00
  1.522883e+01    5.687449e+00
  1.524471e+01    6.002427e+00
  1.526058e+01    6.261137e+00
  1.527646e+01    6.464011e+00
  1.529233e+01    6.494606e+00
  1.530821e+01    6.375300e+00
  1.532409e+01    6.077546e+00
  1.533996e+01    5.523879e+00
  1.535584e+01    4.819540e+00
  1.537171e+01    4.212671e+00
  1.538759e+01    3.753290e+00
  1.540346e+01    3.342753e+00
  1.541934e+01    3.000723e+00
  1.543521e+01    2.802570e+00
  1.545109e+01    2.610173e+00
  1.546697e+01    2.441781e+00
  1.548284e+01    2.344191e+00
  1.549872e+01    2.209091e+00
  1.551459e+01    2.127515e+00
  1.553047e+01    2.090718e+00
  1.554634e+01    1.987828e+00
  1.556222e+01    2.016618e+00
  1.557809e+01    1.922313e+00
  1.559397e+01    1.902091e+00
  1.560985e+01    1.906655e+00
  1.562572e+01    1.902824e+00
  1.564160e+01    1.862849e+00
  1.565747e+01    1.828946e+00
  1.567335e+01    1.802250e+00
  1.568922e+01    1.794773e+00
  1.570510e+01    1.802483e+00
  1.572097e+01    1.775973e+00
  1.573685e+01    1.774986e+00
  1.575273e+01    1.751665e+00
  1.576860e+01    1.724823e+00
  1.578448e+01    1.687172e+00
  1.580035e+01    1.669436e+00
  1.581623e+01    1.671855e+00
  1.583210e+01    1.688733e+00
  1.584798e+01    1.711427e+00
  1.586385e+01    1.708721e+00
  1.587973e+01    1.691445e+00
  1.589561e+01    1.693222e+00
  1.591148e+01    1.675987e+00
  1.592736e+01    1.664918e+00
  1.594323e+01    1.689465e+00
  1.595911e+01    1.644376e+00
  1.597498e+01    1.645431e+00
  1.599086e+01    1.628490e+00
  1.600673e+01    1.618226e+00
  1.602261e+01    1.639201e+00
  1.603849e+01    1.631849e+00
  1.605436e+01    1.605927e+00
  1.607024e+01    1.620813e+00
  1.608611e+01    1.609674e+00
  1.610199e+01    1.581575e+00
  1.611786e+01    1.605432e+00
  1.613374e+01    1.591580e+00
  1.614961e+01    1.608350e+00
  1.616549e+01    1.599920e+00
  1.618137e+01    1.600061e+00
  1.619724e+01    1.590982e+00
  1.621312e+01    1.585379e+00
  1.622899e+01    1.598667e+00
  1.624487e+01    1.616229e+00
  1.626074e+01    1.588135e+00
  1.627662e+01    1.586297e+00
  1.629250e+01    1.598294e+00
  1.630837e+01    1.594363e+00
  1.632425e+01    1.555640e+00
  1.634012e+01    1.545504e+00
  1.635600e+01    1.549349e+00
  1.637187e+01    1.547808e+00
  1.638775e+01    1.544513e+00
  1.640362e+01    1.572981e+00
  1.641950e+01    1.529882e+00
  1.643538e+01    1.560104e+00
  1.645125e+01    1.546713e+00
  1.646713e+01    1.518848e+00
  1.648300e+01    1.552765e+00
  1.649888e+01    1.541088e+00
  1.651475e+01    1.512222e+00
  1.653063e+01    1.493251e+00
  1.654650e+01    1.499230e+00
  1.656238e+01    1.522639e+00
  1.657826e+01    1.519014e+00
  1.659413e+01    1.526187e+00
  1.661001e+01    1.480804e+00
  1.662588e+01    1.470739e+00
  1.664176e+01    1.496174e+00
  1.665763e+01    1.489313e+00
  1.667351e+01    1.518648e+00
  1.668938e+01    1.503478e+00
  1.670526e+01    1.473958e+00
  1.672114e+01    1.470941e+00
  1.673701e+01    1.489709e+00
  1.675289e+01    1.462685e+00
  1.676876e+01    1.482018e+00
  1.678464e+01    1.466197e+00
  1.680051e+01    1.479873e+00
  1.681639e+01    1.503853e+00
  1.683226e+01    1.485164e+00
  1.684814e+01    1.448265e+00
  1.686402e+01    1.452851e+00
  1.687989e+01    1.460047e+00
  1.689577e+01    1.474363e+00
  1.691164e+01    1.445444e+00
  1.692752e+01    1.457246e+00
  1.694339e+01    1.467347e+00
  1.695927e+01    1.439371e+00
  1.697514e+01    1.422932e+00
  1.699102e+01    1.445492e+00
  1.700690e+01    1.472171e+00
  1.702277e+01    1.462161e+00
  1.703865e+01    1.434768e+00
  1.705452e+01    1.412264e+00
  1.707040e+01    1.438179e+00
  1.708627e+01    1.432102e+00
  1.710215e+01    1.445386e+00
  1.711802e+01    1.487542e+00
  1.713390e+01    1.455875e+00
  1.714978e+01    1.448201e+00
  1.716565e+01    1.442948e+00
  1.718153e+01    1.392088e+00
  1.719740e+01    1.395343e+00
  1.721328e+01    1.413083e+00
  1.722915e+01    1.402136e+00
  1.724503e+01    1.432925e+00
  1.726091e+01    1.412458e+00
  1.727678e+01    1.410533e+00
  1.729266e+01    1.390801e+00
  1.730853e+01    1.384333e+00
  1.732441e+01    1.383325e+00
  1.734028e+01    1.416129e+00
  1.735616e+01    1.420631e+00
  1.737203e+01    1.457138e+00
  1.738791e+01    1.428552e+00
  1.740379e+01    1.381265e+00
  1.741966e+01    1.388628e+00
  1.743554e+01    1.395621e+00
  1.745141e+01    1.398297e+00
  1.746729e+01    1.393780e+00
  1.748316e+01    1.364868e+00
  1.749904e+01    1.370586e+00
  1.751491e+01    1.384265e+00
  1.753079e+01    1.383237e+00
  1.754667e+01    1.394470e+00
  1.756254e+01    1.405877e+00
  1.757842e+01    1.400064e+00
  1.759429e+01    1.368859e+00
  1.761017e+01    1.371418e+00
  1.762604e+01    1.366951e+00
  1.764192e+01    1.372282e+00
  1.765779e+01    1.345314e+00
  1.767367e+01    1.363917e+00
  1.768955e+01    1.379581e+00
  1.770542e+01    1.378444e+00
  1.772130e+01    1.348827e+00
  1.773717e+01    1.335145e+00
  1.775305e+01    1.324610e+00
  1.776892e+01    1.337475e+00
  1.778480e+01    1.323306e+00
  1.780067e+01    1.321452e+00
  1.781655e+01    1.341517e+00
  1.783243e+01    1.357413e+00
  1.784830e+01    1.347221e+00
  1.786418e+01    1.308785e+00
  1.788005e+01    1.312179e+00
  1.789593e+01    1.319840e+00
  1.791180e+01    1.322519e+00
  1.792768e+01    1.306654e+00
  1.794355e+01    1.295047e+00
  1.795943e+01    1.323737e+00
  1.797531e+01    1.343269e+00
  1.799118e+01    1.325199e+00
  1.800706e+01    1.312142e+00
  1.802293e+01    1.312807e+00
  1.803881e+01    1.305747e+00
  1.805468e+01    1.313476e+00
  1.807056e+01    1.301764e+00
  1.808643e+01    1.329086e+00
  1.810231e+01    1.307349e+00
  1.811819e+01    1.290263e+00
  1.813406e+01    1.318452e+00
  1.814994e+01    1.327746e+00
  1.816581e+01    1.298434e+00
  1.818169e+01    1.309128e+00
  1.819756e+01    1.303066e+00
  1.821344e+01    1.303432e+00
  1.822932e+01    1.289076e+00
  1.824519e+01    1.268427e+00
  1.826107e+01    1.289559e+00
  1.827694e+01    1.284856e+00
  1.829282e+01    1.263430e+00
  1.830869e+01    1.265373e+00
  1.832457e+01    1.283531e+00
  1.834044e+01    1.286064e+00
  1.835632e+01    1.292684e+00
  1.837220e+01    1.307059e+00
  1.838807e+01    1.292931e+00
  1.840395e+01    1.278870e+00
  1.841982e+01    1.274160e+00
  1.843570e+01    1.262554e+00
  1.845157e+01    1.310315e+00
  1.846745e+01    1.275293e+00
  1.848332e+01    1.242559e+00
  1.849920e+01    1.249145e+00
  1.851508e+01    1.263691e+00
  1.853095e+01    1.256016e+00
  1.854683e+01    1.254050e+00
  1.856270e+01    1.243499e+00
  1.857858e+01    1.254640e+00
  1.859445e+01    1.250520e+00
  1.861033e+01    1.253661e+00
  1.862620e+01    1.247844e+00
  1.864208e+01    1.252153e+00
  1.865796e+01    1.252970e+00
  1.867383e+01    1.249067e+00
  1.868971e+01    1.249390e+00
  1.870558e+01    1.279560e+00
  1.872146e+01    1.267375e+00
  1.873733e+01    1.259362e+00
  1.875321e+01    1.254901e+00
  1.876908e+01    1.221878e+00
  1.878496e+01    1.248173e+00
  1.880084e+01    1.232529e+00
  1.881671e+01    1.229271e+00
  1.883259e+01    1.253367e+00
  1.884846e+01    1.262415e+00
  1.886434e+01    1.247469e+00
  1.888021e+01    1.246904e+00
  1.889609e+01    1.214027e+00
  1.891196e+01    1.220348e+00
  1.892784e+01    1.229102e+00
  1.894372e+01    1.233062e+00
  1.895959e+01    1.205160e+00
  1.897547e+01    1.225195e+00
  1.899134e+01    1.225623e+00
  1.900722e+01    1.210837e+00
  1.902309e+01    1.199931e+00
  1.903897e+01    1.190699e+00
  1.905484e+01    1.187571e+00
  1.907072e+01    1.209090e+00
  1.908660e+01    1.205985e+00
  1.910247e+01    1.212460e+00
  1.911835e+01    1.206375e+00
  1.913422e+01    1.175040e+00
  1.915010e+01    1.195118e+00
  1.916597e+01    1.197725e+00
  1.918185e+01    1.192337e+00
  1.919773e+01    1.215889e+00
  1.921360e+01    1.209727e+00
  1.922948e+01    1.192436e+00
  1.924535e+01    1.196426e+00
  1.926123e+01    1.172669e+00
  1.927710e+01    1.176047e+00
  1.929298e+01    1.182719e+00
  1.930885e+01    1.211164e+00
  1.932473e+01    1.207075e+00
  1.934061e+01    1.212844e+00
  1.935648e+01    1.189368e+00
  1.937236e+01    1.209384e+00
  1.938823e+01    1.197291e+00
  1.940411e+01    1.175624e+00
  1.941998e+01    1.176010e+00
  1.943586e+01    1.198943e+00
  1.945173e+01    1.198397e+00
  1.946761e+01    1.186516e+00
  1.948349e+01    1.185381e+00
  1.949936e+01    1.178291e+00
  1.951524e+01    1.165028e+00
  1.953111e+01    1.181631e+00
  1.954699e+01    1.201333e+00
  1.956286e+01    1.200247e+00
  1.957874e+01    1.167016e+00
  1.959461e+01    1.146061e+00
  1.961049e+01    1.136537e+00
  1.962637e+01    1.145038e+00
  1.964224e+01    1.170642e+00
  1.965812e+01    1.167470e+00
  1.967399e+01    1.165958e+00
  1.968987e+01    1.147090e+00
  1.970574e+01    1.145548e+00
  1.972162e+01    1.139986e+00
  1.973749e+01    1.150014e+00
  1.975337e+01    1.160857e+00
  1.976925e+01    1.180732e+00
  1.978512e+01    1.185225e+00
  1.980100e+01    1.128910e+00
  1.981687e+01    1.138057e+00
  1.983275e+01    1.139031e+00
  1.984862e+01    1.161109e+00
  1.986450e+01    1.144797e+00
  1.988037e+01    1.147135e+00
  1.989625e+01    1.137672e+00
  1.991213e+01    1.127980e+00
  1.992800e+01    1.118657e+00
  1.994388e+01    1.130614e+00
  1.995975e+01    1.138384e+00
  1.997563e+01    1.146078e+00
  1.999150e+01    1.127807e+00
  2.000738e+01    1.137394e+00
  2.002325e+01    1.150842e+00
  2.003913e+01    1.129099e+00
  2.005501e+01    1.100083e+00
  2.007088e+01    1.095187e+00
  2.008676e+01    1.128927e+00
  2.010263e+01    1.145912e+00
  2.011851e+01    1.114499e+00
  2.013438e+01    1.127847e+00
  2.015026e+01    1.110674e+00
  2.016614e+01    1.129133e+00
  2.018201e+01    1.092543e+00
  2.019789e+01    1.115438e+00
  2.021376e+01    1.141949e+00
  2.022964e+01    1.109523e+00
  2.024551e+01    1.095374e+00
  2.026139e+01    1.114576e+00
  2.027726e+01    1.132613e+00
  2.029314e+01    1.108070e+00
  2.030902e+01    1.102207e+00
  2.032489e+01    1.106307e+00
  2.034077e+01    1.114144e+00
  2.035664e+01    1.110885e+00
  2.037252e+01    1.102816e+00
  2.038839e+01    1.096522e+00
  2.040427e+01    1.120585e+00
  2.042014e+01    1.102221e+00
  2.043602e+01    1.106214e+00
  2.045190e+01    1.090696e+00
  2.046777e+01    1.093403e+00
  2.048365e+01    1.089728e+00
  2.049952e+01    1.084414e+00
  2.051540e+01    1.094204e+00
  2.053127e+01    1.112031e+00
  2.054715e+01    1.120786e+00
  2.056302e+01    1.112572e+00
  2.057890e+01    1.090827e+00
  2.059478e+01    1.051785e+00
  2.061065e+01    1.080023e+00
  2.062653e+01    1.103418e+00
  2.064240e+01    1.106872e+00
  2.065828e+01    1.098279e+00
  2.067415e+01    1.107849e+00
  2.069003e+01    1.065828e+00
  2.070590e+01    1.085818e+00
  2.072178e+01    1.099899e+00
  2.073766e+01    1.100158e+00
  2.075353e+01    1.126288e+00
  2.076941e+01    1.113185e+00
  2.078528e+01    1.085783e+00
  2.080116e+01    1.088889e+00
  2.081703e+01    1.096063e+00
  2.083291e+01    1.098994e+00
  2.084878e+01    1.105625e+00
  2.086466e+01    1.087780e+00
  2.088054e+01    1.099862e+00
  2.089641e+01    1.097772e+00
  2.091229e+01    1.090737e+00
  2.092816e+01    1.091388e+00
  2.094404e+01    1.099507e+00
  2.095991e+01    1.120230e+00
  2.097579e+01    1.090305e+00
  2.099166e+01    1.095796e+00
  2.100754e+01    1.075788e+00
  2.102342e+01    1.097182e+00
  2.103929e+01    1.105800e+00
  2.105517e+01    1.118415e+00
  2.107104e+01    1.102796e+00
  2.108692e+01    1.096693e+00
  2.110279e+01    1.105116e+00
  2.111867e+01    1.111110e+00
  2.113455e+01    1.090502e+00
  2.115042e+01    1.113266e+00
  2.116630e+01    1.122579e+00
  2.118217e+01    1.129218e+00
  2.119805e+01    1.127635e+00
  2.121392e+01    1.107823e+00
  2.122980e+01    1.125449e+00
  2.124567e+01    1.116249e+00
  2.126155e+01    1.104472e+00
  2.127743e+01    1.118353e+00
  2.129330e+01    1.146963e+00
  2.130918e+01    1.125507e+00
  2.132505e+01    1.142577e+00
  2.134093e+01    1.137882e+00
  2.135680e+01    1.160337e+00
  2.137268e+01    1.171246e+00
  2.138855e+01    1.185601e+00
  2.140443e+01    1.188476e+00
  2.142031e+01    1.195543e+00
  2.143618e+01    1.230062e+00
  2.145206e+01    1.220604e+00
  2.146793e+01    1.240935e+00
  2.148381e+01    1.262306e+00
  2.149968e+01    1.281626e+00
  2.151556e+01    1.302402e+00
  2.153143e+01    1.351910e+00
  2.154731e+01    1.405817e+00
  2.156319e+01    1.421567e+00
  2.157906e+01    1.457140e+00
  2.159494e+01    1.511534e+00
  2.161081e+01    1.558218e+00
  2.162669e+01    1.640365e+00
  2.164256e+01    1.766047e+00
  2.165844e+01    1.869395e+00
  2.167431e+01    1.961769e+00
  2.169019e+01    2.122827e+00
  2.170607e+01    2.322389e+00
  2.172194e+01    2.574080e+00
  2.173782e+01    2.901865e+00
  2.175369e+01    3.272004e+00
  2.176957e+01    3.757886e+00
  2.178544e+01    4.279993e+00
  2.180132e+01    4.928133e+00
  2.181719e+01    5.623533e+00
  2.183307e+01    6.476952e+00
  2.184895e+01    7.330326e+00
  2.186482e+01    8.154178e+00
  2.188070e+01    9.034385e+00
  2.189657e+01    9.812833e+00
  2.191245e+01    1.041302e+01
  2.192832e+01    1.081396e+01
  2.194420e+01    1.069916e+01
  2.196007e+01    1.014299e+01
  2.197595e+01    9.166101e+00
  2.199183e+01    8.006377e+00
  2.200770e+01    6.845574e+00
  2.202358e+01    5.759912e+00
  2.203945e+01    4.846876e+00
  2.205533e+01    4.124359e+00
  2.207120e+01    3.534279e+00
  2.208708e+01    3.108296e+00
  2.210296e+01    2.772444e+00
  2.211883e+01    2.480356e+00
  2.213471e+01    2.267096e+00
  2.215058e+01    2.064148e+00
  2.216646e+01    1.888085e+00
  2.218233e+01    1.766456e+00
  2.219821e+01    1.673643e+00
  2.221408e+01    1.609822e+00
  2.222996e+01    1.529455e+00
  2.224584e+01    1.480372e+00
  2.226171e+01    1.409540e+00
  2.227759e+01    1.375810e+00
  2.229346e+01    1.329445e+00
  2.230934e+01    1.295875e+00
  2.232521e+01    1.253188e+00
  2.234109e+01    1.216706e+00
  2.235696e+01    1.190520e+00
  2.237284e+01    1.207314e+00
  2.238872e+01    1.155850e+00
  2.240459e+01    1.135297e+00
  2.242047e+01    1.119495e+00
  2.243634e+01    1.130457e+00
  2.245222e+01    1.085539e+00
  2.246809e+01    1.100614e+00
  2.248397e+01    1.074136e+00
  2.249984e+01    1.066335e+00
  2.251572e+01    1.067078e+00
  2.253160e+01    1.045950e+00
  2.254747e+01    1.060207e+00
  2.256335e+01    1.060078e+00
  2.257922e+01    1.040209e+00
  2.259510e+01    9.996338e-01
  2.261097e+01    1.001360e+00
  2.262685e+01    1.016464e+00
  2.264272e+01    1.020626e+00
  2.265860e+01    9.975073e-01
  2.267448e+01    9.836906e-01
  2.269035e+01    9.763126e-01
  2.270623e+01    9.694047e-01
  2.272210e+01    9.837428e-01
  2.273798e+01    9.770610e-01
  2.275385e+01    9.756789e-01
  2.276973e+01    9.766863e-01
  2.278560e+01    9.535484e-01
  2.280148e+01    9.588294e-01
  2.281736e+01    9.661902e-01
  2.283323e+01    9.238845e-01
  2.284911e+01    9.300620e-01
  2.286498e+01    9.177095e-01
  2.288086e+01    9.318238e-01
  2.289673e+01    9.321867e-01
  2.291261e+01    9.362414e-01
  2.292848e+01    9.169121e-01
  2.294436e+01    9.153741e-01
  2.296024e+01    9.231924e-01
  2.297611e+01    9.187002e-01
  2.299199e+01    9.074687e-01
  2.300786e+01    9.224304e-01
  2.302374e+01    9.119487e-01
  2.303961e+01    9.119982e-01
  2.305549e+01    9.152747e-01
  2.307137e+01    8.992066e-01
  2.308724e+01    9.036700e-01
  2.310312e+01    9.097518e-01
  2.311899e+01    9.050260e-01
  2.313487e+01    8.979687e-01
  2.315074e+01    8.878598e-01
  2.316662e+01    8.812531e-01
  2.318249e+01    8.754395e-01
  2.319837e+01    8.773772e-01
  2.321425e+01    8.834096e-01
  2.323012e+01    8.857552e-01
  2.324600e+01    8.904369e-01
  2.326187e+01    8.895801e-01
  2.327775e+01    8.719841e-01
  2.329362e+01    8.764505e-01
  2.330950e+01    8.838587e-01
  2.332537e+01    8.755426e-01
  2.334125e+01    8.735265e-01
  2.335713e+01    8.648781e-01
  2.337300e+01    8.653150e-01
  2.338888e+01    8.612912e-01
  2.340475e+01    8.783432e-01
  2.342063e+01    8.838682e-01
  2.343650e+01    8.756595e-01
  2.345238e+01    8.523057e-01
  2.346825e+01    8.337786e-01
  2.348413e+01    8.424673e-01
  2.350001e+01    8.584123e-01
  2.351588e+01    8.799661e-01
  2.353176e+01    8.747136e-01
  2.354763e+01    8.922438e-01
  2.356351e+01    8.719617e-01
  2.357938e+01    8.316823e-01
  2.359526e+01    8.601545e-01
  2.361113e+01    8.485652e-01
  2.362701e+01    8.582284e-01
  2.364289e+01    8.706629e-01
  2.365876e+01    8.582329e-01
  2.367464e+01    8.356069e-01
  2.369051e+01    8.430219e-01
  2.370639e+01    8.473665e-01
  2.372226e+01    8.346073e-01
  2.373814e+01    8.424488e-01
  2.375401e+01    8.309582e-01
  2.376989e+01    8.219841e-01
  2.378577e+01    8.095992e-01
  2.380164e+01    8.227611e-01
  2.381752e+01    8.329970e-01
  2.383339e+01    8.324547e-01
  2.384927e+01    8.128151e-01
  2.386514e+01    8.168443e-01
  2.388102e+01    8.227839e-01
  2.389689e+01    8.221784e-01
  2.391277e+01    7.986848e-01
  2.392865e+01    7.982686e-01
  2.394452e+01    8.043966e-01
  2.396040e+01    7.919422e-01
  2.397627e+01    7.967080e-01
  2.399215e+01    8.208128e-01
  2.400802e+01    8.182513e-01
  2.402390e+01    8.032495e-01
  2.403978e+01    7.925339e-01
  2.405565e+01    7.978332e-01
  2.407153e+01    7.901055e-01
  2.408740e+01    7.783461e-01
  2.410328e+01    7.963585e-01
  2.411915e+01    7.969728e-01
  2.413503e+01    7.803403e-01
  2.415090e+01    7.827739e-01
  2.416678e+01    7.989867e-01
  2.418266e+01    8.025020e-01
  2.419853e+01    7.815974e-01
  2.421441e+01    7.779138e-01
  2.423028e+01    7.861501e-01
  2.424616e+01    7.972645e-01
  2.426203e+01    8.048741e-01
  2.427791e+01    7.911820e-01
  2.429378e+01    8.069687e-01
  2.430966e+01    8.129967e-01
  2.432554e+01    8.005592e-01
  2.434141e+01    8.106056e-01
  2.435729e+01    7.952552e-01
  2.437316e+01    8.052949e-01
  2.438904e+01    8.042903e-01
  2.440491e+01    7.975309e-01
  2.442079e+01    7.775562e-01
  2.443666e+01    7.968194e-01
  2.445254e+01    8.203766e-01
  2.446842e+01    8.189843e-01
  2.448429e+01    8.076827e-01
  2.450017e+01    8.288288e-01
  2.451604e+01    8.175589e-01
  2.453192e+01    8.112051e-01
  2.454779e+01    8.005553e-01
  2.456367e+01    7.945006e-01
  2.457954e+01    7.957733e-01
  2.459542e+01    8.006189e-01
  2.461130e+01    8.112905e-01
  2.462717e+01    7.905477e-01
  2.464305e+01    8.027486e-01
  2.465892e+01    7.959952e-01
  2.467480e+01    8.058889e-01
  2.469067e+01    8.317496e-01
  2.470655e+01    8.095444e-01
  2.472242e+01    8.053094e-01
  2.473830e+01    8.115925e-01
  2.475418e+01    7.828617e-01
  2.477005e+01    8.074161e-01
  2.478593e+01    8.141933e-01
  2.480180e+01    8.047588e-01
  2.481768e+01    8.150886e-01
  2.483355e+01    8.167006e-01
  2.484943e+01    8.085290e-01
  2.486530e+01    8.035733e-01
  2.488118e+01    8.245139e-01
  2.489706e+01    8.167804e-01
  2.491293e+01    8.122521e-01
  2.492881e+01    8.107856e-01
  2.494468e+01    7.974779e-01
  2.496056e+01    7.979172e-01
  2.497643e+01    8.036422e-01
  2.499231e+01    8.212416e-01
  2.500819e+01    8.061674e-01
  2.502406e+01    8.011021e-01
  2.503994e+01    7.945558e-01
  2.505581e+01    8.076954e-01
  2.507169e+01    8.249411e-01
  2.508756e+01    8.135464e-01
  2.510344e+01    8.010368e-01
  2.511931e+01    8.014761e-01
  2.513519e+01    8.116535e-01
  2.515107e+01    8.161942e-01
  2.516694e+01    8.569196e-01
  2.518282e+01    8.550397e-01
  2.519869e+01    8.403176e-01
  2.521457e+01    8.612654e-01
  2.523044e+01    8.696883e-01
  2.524632e+01    8.574624e-01
  2.526219e+01    8.565348e-01
  2.527807e+01    8.578671e-01
  2.529395e+01    8.534325e-01
  2.530982e+01    8.709152e-01
  2.532570e+01    8.886777e-01
  2.534157e+01    9.004942e-01
  2.535745e+01    9.005495e-01
  2.537332e+01    9.011893e-01
  2.538920e+01    9.015726e-01
  2.540507e+01    9.020079e-01
  2.542095e+01    9.249077e-01
  2.543683e+01    9.363636e-01
  2.545270e+01    9.531992e-01
  2.546858e+01    9.364491e-01
  2.548445e+01    9.746146e-01
  2.550033e+01    9.864885e-01
  2.551620e+01    9.809359e-01
  2.553208e+01    1.011873e+00
  2.554795e+01    1.041225e+00
  2.556383e+01    1.063285e+00
  2.557971e+01    1.061635e+00
  2.559558e+01    1.070958e+00
  2.561146e+01    1.107013e+00
  2.562733e+01    1.148984e+00
  2.564321e+01    1.169418e+00
  2.565908e+01    1.193809e+00
  2.567496e+01    1.275041e+00
  2.569083e+01    1.348824e+00
  2.570671e+01    1.396809e+00
  2.572259e+01    1.497244e+00
  2.573846e+01    1.627140e+00
  2.575434e+01    1.720857e+00
  2.577021e+01    1.842200e+00
  2.578609e+01    2.044662e+00
  2.580196e+01    2.258711e+00
  2.581784e+01    2.512680e+00
  2.583371e+01    2.828651e+00
  2.584959e+01    3.248011e+00
  2.586547e+01    3.729655e+00
  2.588134e+01    4.297985e+00
  2.589722e+01    4.942747e+00
  2.591309e+01    5.668080e+00
  2.592897e+01    6.457380e+00
  2.594484e+01    7.252196e+00
  2.596072e+01    7.966308e+00
  2.597660e+01    8.600375e+00
  2.599247e+01    8.966774e+00
  2.600835e+01    8.966622e+00
  2.602422e+01    8.641138e+00
  2.604010e+01    8.019159e+00
  2.605597e+01    7.157241e+00
  2.607185e+01    6.209715e+00
  2.608772e+01    5.340148e+00
  2.610360e+01    4.551738e+00
  2.611948e+01    3.946766e+00
  2.613535e+01    3.401994e+00
  2.615123e+01    2.933806e+00
  2.616710e+01    2.586611e+00
  2.618298e+01    2.310250e+00
  2.619885e+01    2.098907e+00
  2.621473e+01    1.944525e+00
  2.623060e+01    1.753188e+00
  2.624648e+01    1.616340e+00
  2.626236e+01    1.512119e+00
  2.627823e+01    1.469898e+00
  2.629411e+01    1.371365e+00
  2.630998e+01    1.304268e+00
  2.632586e+01    1.232987e+00
  2.634173e+01    1.212357e+00
  2.635761e+01    1.166982e+00
  2.637348e+01    1.145711e+00
  2.638936e+01    1.110948e+00
  2.640524e+01    1.098565e+00
  2.642111e+01    1.070243e+00
  2.643699e+01    1.071286e+00
  2.645286e+01    1.033613e+00
  2.646874e+01    1.026328e+00
  2.648461e+01    9.964985e-01
  2.650049e+01    9.923697e-01
  2.651636e+01    1.004703e+00
  2.653224e+01    9.842367e-01
  2.654812e+01    9.773529e-01
  2.656399e+01    9.719927e-01
  2.657987e+01    9.265129e-01
  2.659574e+01    9.219564e-01
  2.661162e+01    9.389874e-01
  2.662749e+01    9.565961e-01
  2.664337e+01    9.528435e-01
  2.665924e+01    9.257599e-01
  2.667512e+01    9.397414e-01
  2.669100e+01    9.421865e-01
  2.670687e+01    9.175458e-01
  2.672275e+01    9.204223e-01
  2.673862e+01    9.110305e-01
  2.675450e+01    8.920512e-01
  2.677037e+01    9.088858e-01
  2.678625e+01    9.194162e-01
  2.680212e+01    9.218155e-01
  2.681800e+01    9.234948e-01
  2.683388e+01    9.200622e-01
  2.684975e+01    9.247774e-01
  2.686563e+01    9.350862e-01
  2.688150e+01    9.358331e-01
  2.689738e+01    9.473878e-01
  2.691325e+01    9.423247e-01
  2.692913e+01    9.500468e-01
  2.694501e+01    9.587054e-01
  2.696088e+01    9.557896e-01
  2.697676e+01    9.946219e-01
  2.699263e+01    9.814063e-01
  2.700851e+01    1.005695e+00
  2.702438e+01    1.031721e+00
  2.704026e+01    1.084754e+00
  2.705613e+01    1.113772e+00
  2.707201e+01    1.132810e+00
  2.708789e+01    1.189364e+00
  2.710376e+01    1.263179e+00
  2.711964e+01    1.345712e+00
  2.713551e+01    1.456875e+00
  2.715139e+01    1.575225e+00
  2.716726e+01    1.751009e+00
  2.718314e+01    1.935065e+00
  2.719901e+01    2.068268e+00
  2.721489e+01    2.268257e+00
  2.723077e+01    2.409218e+00
  2.724664e+01    2.506860e+00
  2.726252e+01    2.530843e+00
  2.727839e+01    2.539299e+00
  2.729427e+01    2.420383e+00
  2.731014e+01    2.267935e+00
  2.732602e+01    2.080657e+00
  2.734189e+01    1.856107e+00
  2.735777e+01    1.703549e+00
  2.737365e+01    1.559055e+00
  2.738952e+01    1.452031e+00
  2.740540e+01    1.345050e+00
  2.742127e+01    1.266335e+00
  2.743715e+01    1.186282e+00
  2.745302e+01    1.135337e+00
  2.746890e+01    1.076198e+00
  2.748477e+01    1.044832e+00
  2.750065e+01    1.016635e+00
  2.751653e+01    9.965553e-01
  2.753240e+01    9.516433e-01
  2.754828e+01    9.130201e-01
  2.756415e+01    9.375508e-01
  2.758003e+01    9.405945e-01
  2.759590e+01    9.182657e-01
  2.761178e+01    8.982404e-01
  2.762765e+01    8.875472e-01
  2.764353e+01    8.824231e-01
  2.765941e+01    8.718597e-01
  2.767528e+01    8.672605e-01
  2.769116e+01    8.872917e-01
  2.770703e+01    8.768229e-01
  2.772291e+01    8.524819e-01
  2.773878e+01    8.457599e-01
  2.775466e+01    8.275498e-01
  2.777054e+01    8.215590e-01
  2.778641e+01    8.470123e-01
  2.780229e+01    8.308389e-01
  2.781816e+01    8.286375e-01
  2.783404e+01    8.207628e-01
  2.784991e+01    8.286701e-01
  2.786579e+01    8.352858e-01
  2.788166e+01    8.334156e-01
  2.789754e+01    8.183118e-01
  2.791342e+01    7.990362e-01
  2.792929e+01    7.976197e-01
  2.794517e+01    8.099025e-01
  2.796104e+01    8.230780e-01
  2.797692e+01    8.228555e-01
  2.799279e+01    8.222067e-01
  2.800867e+01    8.260474e-01
  2.802454e+01    8.075835e-01
  2.804042e+01    7.998790e-01
  2.805630e+01    7.790482e-01
  2.807217e+01    7.752107e-01
  2.808805e+01    7.776851e-01
  2.810392e+01    7.927704e-01
  2.811980e+01    8.160998e-01
  2.813567e+01    7.923285e-01
  2.815155e+01    8.000804e-01
  2.816742e+01    7.904301e-01
  2.818330e+01    7.972860e-01
  2.819918e+01    8.078842e-01
  2.821505e+01    8.078091e-01
  2.823093e+01    7.809371e-01
  2.824680e+01    7.803256e-01
  2.826268e+01    7.996997e-01
  2.827855e+01    7.865739e-01
  2.829443e+01    8.042414e-01
  2.831030e+01    7.909029e-01
  2.832618e+01    7.852252e-01
  2.834206e+01    7.630346e-01
  2.835793e+01    7.824957e-01
  2.837381e+01    7.850267e-01
  2.838968e+01    7.765827e-01
  2.840556e+01    7.885034e-01
  2.842143e+01    7.874741e-01
  2.843731e+01    7.868335e-01
  2.845318e+01    7.733607e-01
  2.846906e+01    7.594158e-01
  2.848494e+01    7.757950e-01
  2.850081e+01    7.775087e-01
  2.851669e+01    7.828217e-01
  2.853256e+01    7.702237e-01
  2.854844e+01    7.741975e-01
  2.856431e+01    7.673767e-01
  2.858019e+01    7.584118e-01
  2.859606e+01    7.604941e-01
  2.861194e+01    7.582083e-01
  2.862782e+01    7.703246e-01
  2.864369e+01    7.594581e-01
  2.865957e+01    7.684507e-01
  2.867544e+01    7.545977e-01
  2.869132e+01    7.754130e-01
  2.870719e+01    7.541810e-01
  2.872307e+01    7.490387e-01
  2.873895e+01    7.458184e-01
  2.875482e+01    7.580891e-01
  2.877070e+01    7.592880e-01
  2.878657e+01    7.534471e-01
  2.880245e+01    7.607312e-01
  2.881832e+01    7.524747e-01
  2.883420e+01    7.541380e-01
  2.885007e+01    7.610829e-01
  2.886595e+01    7.657013e-01
  2.888183e+01    7.421841e-01
  2.889770e+01    7.481972e-01
  2.891358e+01    7.465488e-01
  2.892945e+01    7.749945e-01
  2.894533e+01    7.594813e-01
  2.896120e+01    7.431344e-01
  2.897708e+01    7.697336e-01
  2.899295e+01    7.486662e-01
  2.900883e+01    7.469284e-01
  2.902471e+01    7.604460e-01
  2.904058e+01    7.480707e-01
  2.905646e+01    7.465039e-01
  2.907233e+01    7.455220e-01
  2.908821e+01    7.627364e-01
  2.910408e+01    7.383503e-01
  2.911996e+01    7.433248e-01
  2.913583e+01    7.553945e-01
  2.915171e+01    7.739636e-01
  2.916759e+01    7.460074e-01
  2.918346e+01    7.371171e-01
  2.919934e+01    7.283560e-01
  2.921521e+01    7.374789e-01
  2.923109e+01    7.373850e-01
  2.924696e+01    7.534968e-01
  2.926284e+01    7.419156e-01
  2.927871e+01    7.423821e-01
  2.929459e+01    7.221338e-01
  2.931047e+01    7.249491e-01
  2.932634e+01    7.498354e-01
  2.934222e+01    7.703816e-01
  2.935809e+01    7.655283e-01
  2.937397e+01    7.380833e-01
  2.938984e+01    7.374700e-01
  2.940572e+01    7.383255e-01
  2.942159e+01    7.543408e-01
  2.943747e+01    7.645391e-01
  2.945335e+01    7.315982e-01
  2.946922e+01    7.308801e-01
  2.948510e+01    7.407013e-01
  2.950097e+01    7.570062e-01
  2.951685e+01    7.539424e-01
  2.953272e+01    7.444929e-01
  2.954860e+01    7.354446e-01
  2.956447e+01    7.096676e-01
  2.958035e+01    7.246324e-01
  2.959623e+01    7.488878e-01
  2.961210e+01    7.275707e-01
  2.962798e+01    7.073602e-01
  2.964385e+01    7.213598e-01
  2.965973e+01    7.273725e-01
  2.967560e+01    7.400627e-01
  2.969148e+01    7.354944e-01
  2.970736e+01    7.277489e-01
  2.972323e+01    7.508935e-01
  2.973911e+01    7.433669e-01
  2.975498e+01    7.351843e-01
  2.977086e+01    7.380368e-01
  2.978673e+01    7.412353e-01
  2.980261e+01    7.335203e-01
  2.981848e+01    7.413197e-01
  2.983436e+01    7.414907e-01
  2.985024e+01    7.393853e-01
  2.986611e+01    7.300239e-01
  2.988199e+01    7.458718e-01
  2.989786e+01    7.354200e-01
  2.991374e+01    7.225832e-01
  2.992961e+01    7.423145e-01
  2.994549e+01    7.482421e-01
  2.996136e+01    7.377927e-01
  2.997724e+01    7.396898e-01
  2.999312e+01    7.419110e-01
  3.000899e+01    7.463951e-01
  3.002487e+01    7.584896e-01
  3.004074e+01    7.588636e-01
  3.005662e+01    7.289424e-01
  3.007249e+01    7.447323e-01
  3.008837e+01    7.591938e-01
  3.010424e+01    7.706276e-01
  3.012012e+01    7.493435e-01
  3.013600e+01    7.195898e-01
  3.015187e+01    7.141773e-01
  3.016775e+01    7.321273e-01
  3.018362e+01    7.200205e-01
  3.019950e+01    7.340956e-01
  3.021537e+01    7.355875e-01
  3.023125e+01    7.232845e-01
  3.024712e+01    7.269946e-01
  3.026300e+01    7.166156e-01
  3.027888e+01    7.244319e-01
  3.029475e+01    7.215193e-01
  3.031063e+01    7.158299e-01
  3.032650e+01    7.063126e-01
  3.034238e+01    7.251641e-01
  3.035825e+01    7.311425e-01
  3.037413e+01    7.495772e-01
  3.039000e+01    7.411034e-01
  3.040588e+01    7.281445e-01
  3.042176e+01    7.280083e-01
  3.043763e+01    7.216499e-01
  3.045351e+01    7.174860e-01
  3.046938e+01    6.884245e-01
  3.048526e+01    6.925853e-01
  3.050113e+01    7.264155e-01
  3.051701e+01    7.346009e-01
  3.053288e+01    7.280493e-01
  3.054876e+01    7.400329e-01
  3.056464e+01    7.514379e-01
  3.058051e+01    7.221628e-01
  3.059639e+01    6.929889e-01
  3.061226e+01    7.134172e-01
  3.062814e+01    7.116536e-01
  3.064401e+01    7.227364e-01
  3.065989e+01    7.264752e-01
  3.067577e+01    7.149554e-01
  3.069164e+01    7.236438e-01
  3.070752e+01    7.177344e-01
  3.072339e+01    7.290919e-01
  3.073927e+01    7.144659e-01
  3.075514e+01    7.132242e-01
  3.077102e+01    7.278991e-01
  3.078689e+01    7.219431e-01
  3.080277e+01    7.205799e-01
  3.081865e+01    7.470995e-01
  3.083452e+01    7.312997e-01
  3.085040e+01    7.193206e-01
  3.086627e+01    7.145914e-01
  3.088215e+01    7.227977e-01
  3.089802e+01    7.052573e-01
  3.091390e+01    7.271245e-01
  3.092977e+01    7.479656e-01
  3.094565e+01    7.257732e-01
  3.096153e+01    7.157340e-01
  3.097740e+01    7.200829e-01
  3.099328e+01    7.234596e-01
  3.100915e+01    7.290295e-01
  3.102503e+01    7.459791e-01
  3.104090e+01    7.332360e-01
  3.105678e+01    7.216634e-01
  3.107265e+01    7.164819e-01
  3.108853e+01    7.282251e-01
  3.110441e+01    7.200335e-01
  3.112028e+01    7.473581e-01
  3.113616e+01    7.394710e-01
  3.115203e+01    7.303047e-01
  3.116791e+01    7.265242e-01
  3.118378e+01    7.471011e-01
  3.119966e+01    7.186910e-01
  3.121553e+01    7.310031e-01
  3.123141e+01    7.586221e-01
  3.124729e+01    7.522033e-01
  3.126316e+01    7.367120e-01
  3.127904e+01    7.467776e-01
  3.129491e+01    7.353449e-01
  3.131079e+01    7.635662e-01
  3.132666e+01    7.438768e-01
  3.134254e+01    7.446686e-01
  3.135841e+01    7.695878e-01
  3.137429e+01    7.624002e-01
  3.139017e+01    7.421649e-01
  3.140604e+01    7.448352e-01
  3.142192e+01    7.487468e-01
  3.143779e+01    7.565863e-01
  3.145367e+01    7.687891e-01
  3.146954e+01    7.594134e-01
  3.148542e+01    7.629449e-01
  3.150129e+01    7.686058e-01
  3.151717e+01    7.730848e-01
  3.153305e+01    7.704222e-01
  3.154892e+01    8.035514e-01
  3.156480e+01    7.993127e-01
  3.158067e+01    7.823054e-01
  3.159655e+01    8.225253e-01
  3.161242e+01    8.220094e-01
  3.162830e+01    8.127739e-01
  3.164418e+01    8.400613e-01
  3.166005e+01    8.628789e-01
  3.167593e+01    8.929207e-01
  3.169180e+01    9.174148e-01
  3.170768e+01    9.229516e-01
  3.172355e+01    9.611943e-01
  3.173943e+01    9.933883e-01
  3.175530e+01    1.027942e+00
  3.177118e+01    1.088347e+00
  3.178706e+01    1.112578e+00
  3.180293e+01    1.231352e+00
  3.181881e+01    1.324156e+00
  3.183468e+01    1.421165e+00
  3.185056e+01    1.560274e+00
  3.186643e+01    1.712341e+00
  3.188231e+01    1.893621e+00
  3.189818e+01    2.106954e+00
  3.191406e+01    2.284847e+00
  3.192994e+01    2.425732e+00
  3.194581e+01    2.542838e+00
  3.196169e+01    2.560118e+00
  3.197756e+01    2.528556e+00
  3.199344e+01    2.354904e+00
  3.200931e+01    2.218386e+00
  3.202519e+01    2.080490e+00
  3.204106e+01    1.852029e+00
  3.205694e+01    1.655780e+00
  3.207282e+01    1.486583e+00
  3.208869e+01    1.356879e+00
  3.210457e+01    1.257123e+00
  3.212044e+01    1.142190e+00
  3.213632e+01    1.069367e+00
  3.215219e+01    1.000271e+00
  3.216807e+01    9.722040e-01
  3.218394e+01    9.430022e-01
  3.219982e+01    9.157436e-01
  3.221570e+01    9.099471e-01
  3.223157e+01    8.528818e-01
  3.224745e+01    8.492558e-01
  3.226332e+01    8.589132e-01
  3.227920e+01    8.245512e-01
  3.229507e+01    8.000072e-01
  3.231095e+01    8.133119e-01
  3.232682e+01    8.008311e-01
  3.234270e+01    7.815981e-01
  3.235858e+01    7.842827e-01
  3.237445e+01    7.882300e-01
  3.239033e+01    7.584948e-01
  3.240620e+01    7.764292e-01
  3.242208e+01    7.638420e-01
  3.243795e+01    7.478476e-01
  3.245383e+01    7.613392e-01
  3.246970e+01    7.462281e-01
  3.248558e+01    7.419949e-01
  3.250146e+01    7.426609e-01
  3.251733e+01    6.983520e-01
  3.253321e+01    7.132173e-01
  3.254908e+01    7.509369e-01
