# == pyFAI calibration ==
# Distance Sample to Detector: 0.3999999939076516 m
# PONI: 9.750e-02, 1.135e-01 m
# Rotations: -0.000175 0.000000 -0.000000 rad
# 
# == Fit2d calibration ==
# Distance Sample-beamCenter: 400.000 mm
# Center: x=1514.000, y=1300.000 pix
# Tilt: 0.010 deg  TiltPlanRot: 0.010 deg
# 
# Detector Detector	 Spline= None	 PixelSize= 7.500e-05, 7.500e-05 m
#    Detector has a mask: False 
#    Detector has a dark current: False 
#    detector has a flat field: False 
# 
# Wavelength: 6.888e-11 m
# Mask applied: user provided
# Dark current applied: False
# Flat field applied: False
# Polarization factor: 0.99
# Normalization factor: 1.0
# --> /home/myspot/data/2024_07_Rosario/Ru-CGO-ex/2024-07-27_002_Ru-CGO-ex_Activtation_ramp_000002_data_000014.dat
#       q_nm^-1             I 
  2.003187e-02    0.000000e+00
  3.590745e-02    1.058710e-01
  5.178302e-02    1.184101e-01
  6.765859e-02    6.608901e-03
  8.353417e-02    4.263481e-02
  9.940974e-02    5.768113e-02
  1.152853e-01    3.835142e-02
  1.311609e-01    7.559742e-02
  1.470365e-01    6.354293e-02
  1.629120e-01    4.738621e-03
  1.787876e-01    1.910309e-02
  1.946632e-01    4.597485e-02
  2.105388e-01    3.639538e-02
  2.264143e-01    7.296813e-02
  2.422899e-01    8.851736e-02
  2.581655e-01    3.655022e-02
  2.740411e-01    2.283094e-02
  2.899166e-01    2.255072e-03
  3.057922e-01    2.296979e-02
  3.216678e-01    4.435349e-02
  3.375433e-01    1.749167e-02
  3.534189e-01    5.304646e-02
  3.692945e-01    4.112331e-02
  3.851701e-01    1.643231e-02
  4.010456e-01    6.513425e-03
  4.169212e-01    2.775243e-02
  4.327968e-01    4.879710e-02
  4.486724e-01    3.837612e-02
  4.645479e-01    4.676521e-02
  4.804235e-01    4.089073e-02
  4.962991e-01    3.077572e-02
  5.121747e-01    2.549995e-02
  5.280502e-01    4.366536e-02
  5.439258e-01    2.916705e-02
  5.598014e-01    3.101524e-02
  5.756770e-01    3.821734e-02
  5.915525e-01    4.178813e-02
  6.074281e-01    2.430564e-02
  6.233037e-01    2.752135e-02
  6.391793e-01    4.602232e-02
  6.550548e-01    2.706250e-02
  6.709304e-01    3.636081e-02
  6.868060e-01    4.416072e-02
  7.026815e-01    5.336259e-02
  7.185571e-01    3.986700e-02
  7.344327e-01    5.016600e-02
  7.503083e-01    3.788049e-02
  7.661838e-01    6.308912e-02
  7.820594e-01    1.066034e-01
  7.979350e-01    1.395233e-01
  8.138106e-01    2.031459e-01
  8.296861e-01    2.511252e-01
  8.455617e-01    3.286537e-01
  8.614373e-01    3.873537e-01
  8.773129e-01    4.242477e-01
  8.931884e-01    4.642855e-01
  9.090640e-01    4.938737e-01
  9.249396e-01    6.305279e-01
  9.408152e-01    7.805936e-01
  9.566907e-01    7.694407e-01
  9.725663e-01    8.945782e-01
  9.884419e-01    1.090953e+00
  1.004317e+00    1.166414e+00
  1.020193e+00    1.207464e+00
  1.036069e+00    1.157799e+00
  1.051944e+00    1.188658e+00
  1.067820e+00    1.331342e+00
  1.083695e+00    1.355850e+00
  1.099571e+00    1.366813e+00
  1.115446e+00    1.461718e+00
  1.131322e+00    1.442703e+00
  1.147198e+00    1.468547e+00
  1.163073e+00    1.497445e+00
  1.178949e+00    1.531628e+00
  1.194824e+00    1.606946e+00
  1.210700e+00    1.877988e+00
  1.226575e+00    2.268286e+00
  1.242451e+00    2.458671e+00
  1.258327e+00    2.470243e+00
  1.274202e+00    2.532384e+00
  1.290078e+00    2.537766e+00
  1.305953e+00    2.453047e+00
  1.321829e+00    2.558766e+00
  1.337705e+00    2.729029e+00
  1.353580e+00    2.706853e+00
  1.369456e+00    2.639571e+00
  1.385331e+00    2.706565e+00
  1.401207e+00    2.751845e+00
  1.417082e+00    2.785540e+00
  1.432958e+00    2.878762e+00
  1.448834e+00    3.051746e+00
  1.464709e+00    3.092561e+00
  1.480585e+00    3.010350e+00
  1.496460e+00    2.935409e+00
  1.512336e+00    2.862696e+00
  1.528211e+00    2.841059e+00
  1.544087e+00    2.945408e+00
  1.559963e+00    3.089255e+00
  1.575838e+00    3.063323e+00
  1.591714e+00    3.128694e+00
  1.607589e+00    3.063692e+00
  1.623465e+00    2.968622e+00
  1.639340e+00    2.838612e+00
  1.655216e+00    2.815442e+00
  1.671092e+00    2.909873e+00
  1.686967e+00    2.841571e+00
  1.702843e+00    2.901349e+00
  1.718718e+00    2.845263e+00
  1.734594e+00    2.948067e+00
  1.750469e+00    2.960417e+00
  1.766345e+00    2.901530e+00
  1.782221e+00    2.792168e+00
  1.798096e+00    2.921530e+00
  1.813972e+00    2.898418e+00
  1.829847e+00    2.856465e+00
  1.845723e+00    2.853675e+00
  1.861598e+00    2.771369e+00
  1.877474e+00    2.747768e+00
  1.893350e+00    2.870690e+00
  1.909225e+00    2.860637e+00
  1.925101e+00    2.802710e+00
  1.940976e+00    2.763606e+00
  1.956852e+00    2.793044e+00
  1.972727e+00    2.857313e+00
  1.988603e+00    2.836473e+00
  2.004479e+00    2.757004e+00
  2.020354e+00    2.743144e+00
  2.036230e+00    2.871143e+00
  2.052105e+00    2.724507e+00
  2.067981e+00    2.819876e+00
  2.083856e+00    2.800954e+00
  2.099732e+00    2.727542e+00
  2.115608e+00    2.828774e+00
  2.131483e+00    2.909036e+00
  2.147359e+00    2.923936e+00
  2.163234e+00    2.924064e+00
  2.179110e+00    2.819071e+00
  2.194985e+00    2.786637e+00
  2.210861e+00    2.818544e+00
  2.226737e+00    2.788306e+00
  2.242612e+00    2.776512e+00
  2.258488e+00    2.774288e+00
  2.274363e+00    2.767552e+00
  2.290239e+00    2.882465e+00
  2.306115e+00    2.934631e+00
  2.321990e+00    2.914507e+00
  2.337866e+00    2.835151e+00
  2.353741e+00    2.756567e+00
  2.369617e+00    2.733803e+00
  2.385492e+00    2.821368e+00
  2.401368e+00    2.818547e+00
  2.417244e+00    2.822664e+00
  2.433119e+00    2.792455e+00
  2.448995e+00    2.687187e+00
  2.464870e+00    2.778399e+00
  2.480746e+00    2.917649e+00
  2.496621e+00    2.849463e+00
  2.512497e+00    2.853616e+00
  2.528373e+00    2.898756e+00
  2.544248e+00    2.877090e+00
  2.560124e+00    2.882727e+00
  2.575999e+00    2.860482e+00
  2.591875e+00    2.896267e+00
  2.607750e+00    2.776899e+00
  2.623626e+00    2.813904e+00
  2.639502e+00    2.911409e+00
  2.655377e+00    2.834485e+00
  2.671253e+00    2.910189e+00
  2.687128e+00    2.869643e+00
  2.703004e+00    2.883571e+00
  2.718879e+00    2.902698e+00
  2.734755e+00    2.934685e+00
  2.750631e+00    2.845124e+00
  2.766506e+00    2.804219e+00
  2.782382e+00    2.832591e+00
  2.798257e+00    2.899991e+00
  2.814133e+00    2.851895e+00
  2.830008e+00    2.860586e+00
  2.845884e+00    3.009845e+00
  2.861760e+00    2.945052e+00
  2.877635e+00    2.884953e+00
  2.893511e+00    2.833770e+00
  2.909386e+00    2.956416e+00
  2.925262e+00    2.929129e+00
  2.941137e+00    2.923997e+00
  2.957013e+00    2.881107e+00
  2.972889e+00    2.847782e+00
  2.988764e+00    2.862902e+00
  3.004640e+00    2.887552e+00
  3.020515e+00    2.961582e+00
  3.036391e+00    2.939220e+00
  3.052266e+00    2.895694e+00
  3.068142e+00    3.009637e+00
  3.084018e+00    3.004071e+00
  3.099893e+00    2.941366e+00
  3.115769e+00    2.900984e+00
  3.131644e+00    2.890636e+00
  3.147520e+00    2.994435e+00
  3.163395e+00    2.916795e+00
  3.179271e+00    2.913665e+00
  3.195147e+00    2.969244e+00
  3.211022e+00    3.042706e+00
  3.226898e+00    3.015785e+00
  3.242773e+00    3.007317e+00
  3.258649e+00    2.972506e+00
  3.274525e+00    2.931469e+00
  3.290400e+00    2.925988e+00
  3.306276e+00    2.965526e+00
  3.322151e+00    2.900547e+00
  3.338027e+00    2.909860e+00
  3.353902e+00    3.019732e+00
  3.369778e+00    2.976576e+00
  3.385654e+00    3.011597e+00
  3.401529e+00    2.976771e+00
  3.417405e+00    2.921801e+00
  3.433280e+00    2.952091e+00
  3.449156e+00    2.889297e+00
  3.465031e+00    2.826348e+00
  3.480907e+00    2.877031e+00
  3.496783e+00    2.958683e+00
  3.512658e+00    3.019196e+00
  3.528534e+00    3.021916e+00
  3.544409e+00    2.964486e+00
  3.560285e+00    2.882442e+00
  3.576160e+00    2.929821e+00
  3.592036e+00    2.907440e+00
  3.607912e+00    2.901024e+00
  3.623787e+00    3.044187e+00
  3.639663e+00    3.151124e+00
  3.655538e+00    2.975321e+00
  3.671414e+00    2.949573e+00
  3.687289e+00    2.957148e+00
  3.703165e+00    2.946994e+00
  3.719041e+00    2.969370e+00
  3.734916e+00    2.973338e+00
  3.750792e+00    3.013099e+00
  3.766667e+00    3.045289e+00
  3.782543e+00    3.009335e+00
  3.798418e+00    3.018924e+00
  3.814294e+00    2.973891e+00
  3.830170e+00    2.981094e+00
  3.846045e+00    3.001379e+00
  3.861921e+00    2.968585e+00
  3.877796e+00    3.006275e+00
  3.893672e+00    3.119149e+00
  3.909547e+00    3.014830e+00
  3.925423e+00    3.037762e+00
  3.941299e+00    3.118154e+00
  3.957174e+00    3.119449e+00
  3.973050e+00    2.985494e+00
  3.988925e+00    2.995007e+00
  4.004801e+00    2.993174e+00
  4.020676e+00    3.008158e+00
  4.036552e+00    3.056237e+00
  4.052428e+00    3.001261e+00
  4.068303e+00    2.976770e+00
  4.084179e+00    2.977728e+00
  4.100054e+00    3.050481e+00
  4.115930e+00    3.090997e+00
  4.131806e+00    3.032392e+00
  4.147681e+00    3.067149e+00
  4.163557e+00    3.088812e+00
  4.179432e+00    3.013150e+00
  4.195308e+00    3.016017e+00
  4.211183e+00    3.073549e+00
  4.227059e+00    3.138014e+00
  4.242935e+00    3.140925e+00
  4.258810e+00    3.127781e+00
  4.274686e+00    3.162375e+00
  4.290561e+00    3.140073e+00
  4.306437e+00    3.088497e+00
  4.322312e+00    3.046111e+00
  4.338188e+00    3.060840e+00
  4.354064e+00    3.034036e+00
  4.369939e+00    2.927638e+00
  4.385815e+00    2.995816e+00
  4.401690e+00    3.123921e+00
  4.417566e+00    3.084959e+00
  4.433441e+00    3.014593e+00
  4.449317e+00    3.034145e+00
  4.465193e+00    3.040106e+00
  4.481068e+00    3.026245e+00
  4.496944e+00    3.070295e+00
  4.512819e+00    3.064131e+00
  4.528695e+00    3.013702e+00
  4.544570e+00    3.063088e+00
  4.560446e+00    3.122515e+00
  4.576322e+00    3.122760e+00
  4.592197e+00    3.180918e+00
  4.608073e+00    3.156909e+00
  4.623948e+00    3.063840e+00
  4.639824e+00    3.026578e+00
  4.655699e+00    3.006237e+00
  4.671575e+00    3.006712e+00
  4.687451e+00    3.086298e+00
  4.703326e+00    3.091408e+00
  4.719202e+00    3.058516e+00
  4.735077e+00    3.103660e+00
  4.750953e+00    3.108744e+00
  4.766828e+00    3.103921e+00
  4.782704e+00    3.148037e+00
  4.798580e+00    3.116670e+00
  4.814455e+00    3.148143e+00
  4.830331e+00    3.202821e+00
  4.846206e+00    3.182290e+00
  4.862082e+00    3.129411e+00
  4.877957e+00    3.106839e+00
  4.893833e+00    3.089976e+00
  4.909709e+00    3.188803e+00
  4.925584e+00    3.149644e+00
  4.941460e+00    3.072179e+00
  4.957335e+00    3.099205e+00
  4.973211e+00    3.151683e+00
  4.989086e+00    3.180886e+00
  5.004962e+00    3.151507e+00
  5.020838e+00    3.079393e+00
  5.036713e+00    3.132578e+00
  5.052589e+00    3.161826e+00
  5.068464e+00    3.159529e+00
  5.084340e+00    3.100549e+00
  5.100216e+00    3.091028e+00
  5.116091e+00    3.153516e+00
  5.131967e+00    3.163661e+00
  5.147842e+00    3.183775e+00
  5.163718e+00    3.127885e+00
  5.179593e+00    3.169494e+00
  5.195469e+00    3.130772e+00
  5.211345e+00    3.108742e+00
  5.227220e+00    3.094160e+00
  5.243096e+00    3.056847e+00
  5.258971e+00    3.121134e+00
  5.274847e+00    3.160005e+00
  5.290722e+00    3.176522e+00
  5.306598e+00    3.164407e+00
  5.322474e+00    3.186311e+00
  5.338349e+00    3.193169e+00
  5.354225e+00    3.177900e+00
  5.370100e+00    3.120483e+00
  5.385976e+00    3.067802e+00
  5.401851e+00    3.093125e+00
  5.417727e+00    3.232146e+00
  5.433603e+00    3.100561e+00
  5.449478e+00    3.071750e+00
  5.465354e+00    3.100389e+00
  5.481229e+00    3.127674e+00
  5.497105e+00    3.082880e+00
  5.512980e+00    3.035435e+00
  5.528856e+00    3.103015e+00
  5.544732e+00    3.087512e+00
  5.560607e+00    3.048764e+00
  5.576483e+00    3.091413e+00
  5.592358e+00    3.098589e+00
  5.608234e+00    3.037746e+00
  5.624109e+00    2.956720e+00
  5.639985e+00    2.986721e+00
  5.655861e+00    3.036191e+00
  5.671736e+00    3.060602e+00
  5.687612e+00    3.120542e+00
  5.703487e+00    3.033214e+00
  5.719363e+00    3.052195e+00
  5.735238e+00    3.139912e+00
  5.751114e+00    3.106819e+00
  5.766990e+00    3.084700e+00
  5.782865e+00    3.118442e+00
  5.798741e+00    3.142919e+00
  5.814616e+00    3.105922e+00
  5.830492e+00    3.125404e+00
  5.846367e+00    3.111488e+00
  5.862243e+00    3.052001e+00
  5.878119e+00    3.022047e+00
  5.893994e+00    2.968931e+00
  5.909870e+00    3.051398e+00
  5.925745e+00    2.959714e+00
  5.941621e+00    2.994034e+00
  5.957497e+00    3.067697e+00
  5.973372e+00    3.072934e+00
  5.989248e+00    3.048306e+00
  6.005123e+00    3.061106e+00
  6.020999e+00    3.014516e+00
  6.036874e+00    3.006825e+00
  6.052750e+00    3.018044e+00
  6.068626e+00    3.003034e+00
  6.084501e+00    3.066352e+00
  6.100377e+00    3.053380e+00
  6.116252e+00    3.071108e+00
  6.132128e+00    3.061894e+00
  6.148003e+00    3.114144e+00
  6.163879e+00    3.058228e+00
  6.179755e+00    3.082361e+00
  6.195630e+00    3.067767e+00
  6.211506e+00    3.073595e+00
  6.227381e+00    3.136671e+00
  6.243257e+00    3.062998e+00
  6.259132e+00    3.012586e+00
  6.275008e+00    3.029976e+00
  6.290884e+00    3.089459e+00
  6.306759e+00    3.116598e+00
  6.322635e+00    3.142639e+00
  6.338510e+00    3.151204e+00
  6.354386e+00    3.051990e+00
  6.370261e+00    3.042174e+00
  6.386137e+00    2.994428e+00
  6.402013e+00    3.053281e+00
  6.417888e+00    3.063944e+00
  6.433764e+00    3.048779e+00
  6.449639e+00    2.931723e+00
  6.465515e+00    2.992642e+00
  6.481390e+00    3.064098e+00
  6.497266e+00    3.004992e+00
  6.513142e+00    2.980823e+00
  6.529017e+00    3.028160e+00
  6.544893e+00    3.096746e+00
  6.560768e+00    3.057403e+00
  6.576644e+00    3.036664e+00
  6.592519e+00    3.070222e+00
  6.608395e+00    3.083828e+00
  6.624271e+00    3.070606e+00
  6.640146e+00    3.031653e+00
  6.656022e+00    3.074006e+00
  6.671897e+00    3.126005e+00
  6.687773e+00    3.081248e+00
  6.703648e+00    3.105383e+00
  6.719524e+00    3.046410e+00
  6.735400e+00    3.073682e+00
  6.751275e+00    3.122705e+00
  6.767151e+00    3.051881e+00
  6.783026e+00    3.030670e+00
  6.798902e+00    3.062923e+00
  6.814777e+00    3.078981e+00
  6.830653e+00    3.072970e+00
  6.846529e+00    3.065288e+00
  6.862404e+00    3.075673e+00
  6.878280e+00    3.033611e+00
  6.894155e+00    3.001076e+00
  6.910031e+00    3.003898e+00
  6.925907e+00    3.039483e+00
  6.941782e+00    3.036095e+00
  6.957658e+00    3.020980e+00
  6.973533e+00    3.017461e+00
  6.989409e+00    3.027122e+00
  7.005284e+00    3.028871e+00
  7.021160e+00    3.087823e+00
  7.037036e+00    2.969917e+00
  7.052911e+00    2.977557e+00
  7.068787e+00    3.096071e+00
  7.084662e+00    3.111182e+00
  7.100538e+00    3.029680e+00
  7.116413e+00    3.013059e+00
  7.132289e+00    3.019837e+00
  7.148165e+00    2.995423e+00
  7.164040e+00    3.020249e+00
  7.179916e+00    2.993509e+00
  7.195791e+00    3.044905e+00
  7.211667e+00    3.050965e+00
  7.227542e+00    3.009014e+00
  7.243418e+00    2.991954e+00
  7.259294e+00    3.023762e+00
  7.275169e+00    3.008174e+00
  7.291045e+00    3.013000e+00
  7.306920e+00    3.006698e+00
  7.322796e+00    3.020619e+00
  7.338671e+00    3.060187e+00
  7.354547e+00    3.050495e+00
  7.370423e+00    3.007823e+00
  7.386298e+00    3.091024e+00
  7.402174e+00    3.055286e+00
  7.418049e+00    3.064511e+00
  7.433925e+00    2.990055e+00
  7.449800e+00    3.005570e+00
  7.465676e+00    3.026564e+00
  7.481552e+00    3.028536e+00
  7.497427e+00    3.022098e+00
  7.513303e+00    2.974693e+00
  7.529178e+00    2.945344e+00
  7.545054e+00    2.974264e+00
  7.560929e+00    3.049627e+00
  7.576805e+00    3.005084e+00
  7.592681e+00    2.995349e+00
  7.608556e+00    2.965744e+00
  7.624432e+00    3.010206e+00
  7.640307e+00    2.948766e+00
  7.656183e+00    2.906422e+00
  7.672058e+00    2.936712e+00
  7.687934e+00    2.905262e+00
  7.703810e+00    2.919887e+00
  7.719685e+00    2.947101e+00
  7.735561e+00    2.971880e+00
  7.751436e+00    2.994774e+00
  7.767312e+00    2.988212e+00
  7.783187e+00    2.950517e+00
  7.799063e+00    2.943448e+00
  7.814939e+00    2.984301e+00
  7.830814e+00    2.931757e+00
  7.846690e+00    2.872220e+00
  7.862565e+00    2.904446e+00
  7.878441e+00    2.969197e+00
  7.894317e+00    2.935507e+00
  7.910192e+00    2.959975e+00
  7.926068e+00    2.949011e+00
  7.941943e+00    2.920958e+00
  7.957819e+00    2.929684e+00
  7.973694e+00    2.991298e+00
  7.989570e+00    2.950301e+00
  8.005446e+00    2.963344e+00
  8.021321e+00    2.945768e+00
  8.037197e+00    2.926961e+00
  8.053072e+00    2.938215e+00
  8.068948e+00    2.982235e+00
  8.084823e+00    2.936909e+00
  8.100699e+00    2.986016e+00
  8.116575e+00    2.940476e+00
  8.132450e+00    2.984308e+00
  8.148326e+00    2.982740e+00
  8.164201e+00    2.946900e+00
  8.180077e+00    2.913014e+00
  8.195952e+00    2.934938e+00
  8.211828e+00    3.030226e+00
  8.227704e+00    2.959611e+00
  8.243579e+00    2.949067e+00
  8.259455e+00    2.909945e+00
  8.275330e+00    2.879105e+00
  8.291206e+00    2.909874e+00
  8.307081e+00    2.982150e+00
  8.322957e+00    2.967427e+00
  8.338833e+00    2.940847e+00
  8.354708e+00    2.895930e+00
  8.370584e+00    2.958348e+00
  8.386459e+00    2.946087e+00
  8.402335e+00    2.925894e+00
  8.418210e+00    2.951413e+00
  8.434086e+00    2.973825e+00
  8.449962e+00    2.915936e+00
  8.465837e+00    2.939788e+00
  8.481713e+00    2.911483e+00
  8.497588e+00    2.902033e+00
  8.513464e+00    2.884277e+00
  8.529339e+00    2.919428e+00
  8.545215e+00    2.921218e+00
  8.561091e+00    2.916450e+00
  8.576966e+00    2.920417e+00
  8.592842e+00    2.889959e+00
  8.608717e+00    2.836204e+00
  8.624593e+00    2.895924e+00
  8.640468e+00    2.896328e+00
  8.656344e+00    2.887576e+00
  8.672220e+00    2.858911e+00
  8.688095e+00    2.889829e+00
  8.703971e+00    2.907486e+00
  8.719846e+00    2.883865e+00
  8.735722e+00    2.876959e+00
  8.751598e+00    2.890501e+00
  8.767473e+00    2.868932e+00
  8.783349e+00    2.844422e+00
  8.799224e+00    2.830614e+00
  8.815100e+00    2.878129e+00
  8.830975e+00    2.874025e+00
  8.846851e+00    2.890987e+00
  8.862727e+00    2.858114e+00
  8.878602e+00    2.866165e+00
  8.894478e+00    2.869200e+00
  8.910353e+00    2.880605e+00
  8.926229e+00    2.824680e+00
  8.942104e+00    2.804490e+00
  8.957980e+00    2.797284e+00
  8.973856e+00    2.835995e+00
  8.989731e+00    2.785061e+00
  9.005607e+00    2.802102e+00
  9.021482e+00    2.861505e+00
  9.037358e+00    2.835089e+00
  9.053233e+00    2.817584e+00
  9.069109e+00    2.855015e+00
  9.084985e+00    2.874473e+00
  9.100860e+00    2.803407e+00
  9.116736e+00    2.765876e+00
  9.132611e+00    2.781024e+00
  9.148487e+00    2.790724e+00
  9.164362e+00    2.842874e+00
  9.180238e+00    2.838915e+00
  9.196114e+00    2.785477e+00
  9.211989e+00    2.785694e+00
  9.227865e+00    2.851369e+00
  9.243740e+00    2.815211e+00
  9.259616e+00    2.832879e+00
  9.275491e+00    2.846310e+00
  9.291367e+00    2.744391e+00
  9.307243e+00    2.767153e+00
  9.323118e+00    2.811043e+00
  9.338994e+00    2.804856e+00
  9.354869e+00    2.774717e+00
  9.370745e+00    2.826390e+00
  9.386620e+00    2.779371e+00
  9.402496e+00    2.719319e+00
  9.418372e+00    2.759670e+00
  9.434247e+00    2.750520e+00
  9.450123e+00    2.789954e+00
  9.465998e+00    2.830815e+00
  9.481874e+00    2.771315e+00
  9.497749e+00    2.804878e+00
  9.513625e+00    2.811248e+00
  9.529501e+00    2.757071e+00
  9.545376e+00    2.761773e+00
  9.561252e+00    2.809478e+00
  9.577127e+00    2.812906e+00
  9.593003e+00    2.748944e+00
  9.608878e+00    2.729017e+00
  9.624754e+00    2.776750e+00
  9.640630e+00    2.781566e+00
  9.656505e+00    2.826610e+00
  9.672381e+00    2.781772e+00
  9.688256e+00    2.745745e+00
  9.704132e+00    2.806900e+00
  9.720008e+00    2.770651e+00
  9.735883e+00    2.701566e+00
  9.751759e+00    2.711440e+00
  9.767634e+00    2.753014e+00
  9.783510e+00    2.764215e+00
  9.799385e+00    2.760559e+00
  9.815261e+00    2.720105e+00
  9.831137e+00    2.711466e+00
  9.847012e+00    2.719941e+00
  9.862888e+00    2.722906e+00
  9.878763e+00    2.725784e+00
  9.894639e+00    2.711214e+00
  9.910514e+00    2.759184e+00
  9.926390e+00    2.725892e+00
  9.942266e+00    2.716015e+00
  9.958141e+00    2.717480e+00
  9.974017e+00    2.651212e+00
  9.989892e+00    2.697052e+00
  1.000577e+01    2.736437e+00
  1.002164e+01    2.735209e+00
  1.003752e+01    2.661202e+00
  1.005339e+01    2.654577e+00
  1.006927e+01    2.682308e+00
  1.008515e+01    2.697459e+00
  1.010102e+01    2.733309e+00
  1.011690e+01    2.723588e+00
  1.013277e+01    2.671595e+00
  1.014865e+01    2.694584e+00
  1.016452e+01    2.703307e+00
  1.018040e+01    2.693877e+00
  1.019627e+01    2.675175e+00
  1.021215e+01    2.650827e+00
  1.022803e+01    2.688567e+00
  1.024390e+01    2.696899e+00
  1.025978e+01    2.674258e+00
  1.027565e+01    2.637631e+00
  1.029153e+01    2.667733e+00
  1.030740e+01    2.710687e+00
  1.032328e+01    2.676972e+00
  1.033915e+01    2.655799e+00
  1.035503e+01    2.632015e+00
  1.037091e+01    2.646311e+00
  1.038678e+01    2.677833e+00
  1.040266e+01    2.691148e+00
  1.041853e+01    2.646083e+00
  1.043441e+01    2.593363e+00
  1.045028e+01    2.632792e+00
  1.046616e+01    2.672932e+00
  1.048204e+01    2.655586e+00
  1.049791e+01    2.625367e+00
  1.051379e+01    2.610172e+00
  1.052966e+01    2.613966e+00
  1.054554e+01    2.589426e+00
  1.056141e+01    2.580194e+00
  1.057729e+01    2.610214e+00
  1.059316e+01    2.632932e+00
  1.060904e+01    2.646198e+00
  1.062492e+01    2.572817e+00
  1.064079e+01    2.568637e+00
  1.065667e+01    2.584054e+00
  1.067254e+01    2.586479e+00
  1.068842e+01    2.562374e+00
  1.070429e+01    2.548135e+00
  1.072017e+01    2.563283e+00
  1.073604e+01    2.578604e+00
  1.075192e+01    2.579298e+00
  1.076780e+01    2.564703e+00
  1.078367e+01    2.570844e+00
  1.079955e+01    2.540725e+00
  1.081542e+01    2.525360e+00
  1.083130e+01    2.555290e+00
  1.084717e+01    2.505204e+00
  1.086305e+01    2.517640e+00
  1.087892e+01    2.550891e+00
  1.089480e+01    2.545558e+00
  1.091068e+01    2.570879e+00
  1.092655e+01    2.541348e+00
  1.094243e+01    2.496192e+00
  1.095830e+01    2.517417e+00
  1.097418e+01    2.551302e+00
  1.099005e+01    2.517400e+00
  1.100593e+01    2.483959e+00
  1.102180e+01    2.483719e+00
  1.103768e+01    2.499962e+00
  1.105356e+01    2.454724e+00
  1.106943e+01    2.495591e+00
  1.108531e+01    2.536303e+00
  1.110118e+01    2.533069e+00
  1.111706e+01    2.529428e+00
  1.113293e+01    2.464027e+00
  1.114881e+01    2.483305e+00
  1.116468e+01    2.449251e+00
  1.118056e+01    2.485067e+00
  1.119644e+01    2.519094e+00
  1.121231e+01    2.519937e+00
  1.122819e+01    2.487365e+00
  1.124406e+01    2.480140e+00
  1.125994e+01    2.465950e+00
  1.127581e+01    2.444964e+00
  1.129169e+01    2.393265e+00
  1.130756e+01    2.425553e+00
  1.132344e+01    2.444205e+00
  1.133932e+01    2.471384e+00
  1.135519e+01    2.435987e+00
  1.137107e+01    2.458100e+00
  1.138694e+01    2.440933e+00
  1.140282e+01    2.435395e+00
  1.141869e+01    2.441211e+00
  1.143457e+01    2.436927e+00
  1.145045e+01    2.457663e+00
  1.146632e+01    2.412307e+00
  1.148220e+01    2.430306e+00
  1.149807e+01    2.425909e+00
  1.151395e+01    2.391039e+00
  1.152982e+01    2.391917e+00
  1.154570e+01    2.368121e+00
  1.156157e+01    2.404203e+00
  1.157745e+01    2.411739e+00
  1.159333e+01    2.380969e+00
  1.160920e+01    2.441463e+00
  1.162508e+01    2.402451e+00
  1.164095e+01    2.346137e+00
  1.165683e+01    2.371127e+00
  1.167270e+01    2.415919e+00
  1.168858e+01    2.430452e+00
  1.170445e+01    2.423792e+00
  1.172033e+01    2.391979e+00
  1.173621e+01    2.394569e+00
  1.175208e+01    2.398362e+00
  1.176796e+01    2.400669e+00
  1.178383e+01    2.408788e+00
  1.179971e+01    2.425723e+00
  1.181558e+01    2.364128e+00
  1.183146e+01    2.385087e+00
  1.184733e+01    2.381581e+00
  1.186321e+01    2.420200e+00
  1.187909e+01    2.373551e+00
  1.189496e+01    2.308785e+00
  1.191084e+01    2.333577e+00
  1.192671e+01    2.346628e+00
  1.194259e+01    2.316513e+00
  1.195846e+01    2.335091e+00
  1.197434e+01    2.359063e+00
  1.199021e+01    2.351118e+00
  1.200609e+01    2.347289e+00
  1.202197e+01    2.331819e+00
  1.203784e+01    2.348240e+00
  1.205372e+01    2.359562e+00
  1.206959e+01    2.324010e+00
  1.208547e+01    2.323084e+00
  1.210134e+01    2.339054e+00
  1.211722e+01    2.340274e+00
  1.213309e+01    2.316034e+00
  1.214897e+01    2.288099e+00
  1.216485e+01    2.353006e+00
  1.218072e+01    2.323150e+00
  1.219660e+01    2.322948e+00
  1.221247e+01    2.362814e+00
  1.222835e+01    2.346066e+00
  1.224422e+01    2.364332e+00
  1.226010e+01    2.342204e+00
  1.227597e+01    2.325541e+00
  1.229185e+01    2.359749e+00
  1.230773e+01    2.380759e+00
  1.232360e+01    2.397100e+00
  1.233948e+01    2.348965e+00
  1.235535e+01    2.333568e+00
  1.237123e+01    2.318564e+00
  1.238710e+01    2.345845e+00
  1.240298e+01    2.347643e+00
  1.241886e+01    2.313197e+00
  1.243473e+01    2.365779e+00
  1.245061e+01    2.341703e+00
  1.246648e+01    2.362922e+00
  1.248236e+01    2.405766e+00
  1.249823e+01    2.376787e+00
  1.251411e+01    2.367156e+00
  1.252998e+01    2.432315e+00
  1.254586e+01    2.428483e+00
  1.256174e+01    2.408609e+00
  1.257761e+01    2.401999e+00
  1.259349e+01    2.432221e+00
  1.260936e+01    2.421463e+00
  1.262524e+01    2.439261e+00
  1.264111e+01    2.458741e+00
  1.265699e+01    2.463439e+00
  1.267286e+01    2.462740e+00
  1.268874e+01    2.485175e+00
  1.270462e+01    2.495704e+00
  1.272049e+01    2.533020e+00
  1.273637e+01    2.540257e+00
  1.275224e+01    2.616669e+00
  1.276812e+01    2.654042e+00
  1.278399e+01    2.719234e+00
  1.279987e+01    2.731665e+00
  1.281574e+01    2.734257e+00
  1.283162e+01    2.804042e+00
  1.284750e+01    2.817930e+00
  1.286337e+01    2.879917e+00
  1.287925e+01    2.984939e+00
  1.289512e+01    3.108322e+00
  1.291100e+01    3.272761e+00
  1.292687e+01    3.492923e+00
  1.294275e+01    3.664183e+00
  1.295862e+01    3.851281e+00
  1.297450e+01    4.216345e+00
  1.299038e+01    4.636564e+00
  1.300625e+01    5.108986e+00
  1.302213e+01    5.752860e+00
  1.303800e+01    6.587889e+00
  1.305388e+01    7.652730e+00
  1.306975e+01    8.929497e+00
  1.308563e+01    1.028979e+01
  1.310150e+01    1.187319e+01
  1.311738e+01    1.348822e+01
  1.313326e+01    1.495846e+01
  1.314913e+01    1.632179e+01
  1.316501e+01    1.779150e+01
  1.318088e+01    1.921771e+01
  1.319676e+01    1.985841e+01
  1.321263e+01    1.984807e+01
  1.322851e+01    1.860227e+01
  1.324438e+01    1.668788e+01
  1.326026e+01    1.441176e+01
  1.327614e+01    1.201759e+01
  1.329201e+01    9.990078e+00
  1.330789e+01    8.575314e+00
  1.332376e+01    7.390631e+00
  1.333964e+01    6.364271e+00
  1.335551e+01    5.580228e+00
  1.337139e+01    4.989324e+00
  1.338727e+01    4.516457e+00
  1.340314e+01    4.150964e+00
  1.341902e+01    3.857181e+00
  1.343489e+01    3.618316e+00
  1.345077e+01    3.396841e+00
  1.346664e+01    3.179029e+00
  1.348252e+01    3.082916e+00
  1.349839e+01    2.981997e+00
  1.351427e+01    2.853317e+00
  1.353015e+01    2.771965e+00
  1.354602e+01    2.714566e+00
  1.356190e+01    2.660583e+00
  1.357777e+01    2.587153e+00
  1.359365e+01    2.530180e+00
  1.360952e+01    2.451548e+00
  1.362540e+01    2.434162e+00
  1.364127e+01    2.417618e+00
  1.365715e+01    2.454530e+00
  1.367303e+01    2.396332e+00
  1.368890e+01    2.335468e+00
  1.370478e+01    2.306527e+00
  1.372065e+01    2.283130e+00
  1.373653e+01    2.270766e+00
  1.375240e+01    2.277681e+00
  1.376828e+01    2.232104e+00
  1.378415e+01    2.231216e+00
  1.380003e+01    2.272315e+00
  1.381591e+01    2.223348e+00
  1.383178e+01    2.216745e+00
  1.384766e+01    2.225879e+00
  1.386353e+01    2.196332e+00
  1.387941e+01    2.150817e+00
  1.389528e+01    2.162235e+00
  1.391116e+01    2.118927e+00
  1.392703e+01    2.092055e+00
  1.394291e+01    2.091717e+00
  1.395879e+01    2.107660e+00
  1.397466e+01    2.131593e+00
  1.399054e+01    2.104558e+00
  1.400641e+01    2.075778e+00
  1.402229e+01    2.087715e+00
  1.403816e+01    2.098279e+00
  1.405404e+01    2.083275e+00
  1.406991e+01    2.078037e+00
  1.408579e+01    2.034871e+00
  1.410167e+01    2.013670e+00
  1.411754e+01    2.009785e+00
  1.413342e+01    2.030143e+00
  1.414929e+01    2.029054e+00
  1.416517e+01    2.018418e+00
  1.418104e+01    2.021934e+00
  1.419692e+01    2.015898e+00
  1.421279e+01    2.028676e+00
  1.422867e+01    2.034092e+00
  1.424455e+01    1.997368e+00
  1.426042e+01    2.002821e+00
  1.427630e+01    1.976585e+00
  1.429217e+01    1.984162e+00
  1.430805e+01    2.021114e+00
  1.432392e+01    1.997532e+00
  1.433980e+01    1.958836e+00
  1.435568e+01    2.002905e+00
  1.437155e+01    1.982025e+00
  1.438743e+01    1.984463e+00
  1.440330e+01    1.993136e+00
  1.441918e+01    1.969462e+00
  1.443505e+01    1.938925e+00
  1.445093e+01    1.934234e+00
  1.446680e+01    1.963559e+00
  1.448268e+01    1.967418e+00
  1.449856e+01    1.940860e+00
  1.451443e+01    1.945397e+00
  1.453031e+01    1.923498e+00
  1.454618e+01    1.941048e+00
  1.456206e+01    1.950509e+00
  1.457793e+01    1.930076e+00
  1.459381e+01    1.886322e+00
  1.460968e+01    1.856524e+00
  1.462556e+01    1.904258e+00
  1.464144e+01    1.973292e+00
  1.465731e+01    1.945639e+00
  1.467319e+01    1.939930e+00
  1.468906e+01    1.936512e+00
  1.470494e+01    1.965585e+00
  1.472081e+01    1.983574e+00
  1.473669e+01    1.935941e+00
  1.475256e+01    1.919879e+00
  1.476844e+01    1.926339e+00
  1.478432e+01    1.921916e+00
  1.480019e+01    1.900465e+00
  1.481607e+01    1.905552e+00
  1.483194e+01    1.918598e+00
  1.484782e+01    1.933571e+00
  1.486369e+01    1.963912e+00
  1.487957e+01    2.010958e+00
  1.489544e+01    2.021792e+00
  1.491132e+01    2.006960e+00
  1.492720e+01    2.031289e+00
  1.494307e+01    2.021154e+00
  1.495895e+01    2.019298e+00
  1.497482e+01    2.063199e+00
  1.499070e+01    2.065917e+00
  1.500657e+01    2.115783e+00
  1.502245e+01    2.156573e+00
  1.503832e+01    2.246209e+00
  1.505420e+01    2.303684e+00
  1.507008e+01    2.425045e+00
  1.508595e+01    2.551089e+00
  1.510183e+01    2.685251e+00
  1.511770e+01    2.909051e+00
  1.513358e+01    3.225562e+00
  1.514945e+01    3.513006e+00
  1.516533e+01    3.888763e+00
  1.518120e+01    4.364981e+00
  1.519708e+01    4.816198e+00
  1.521296e+01    5.213449e+00
  1.522883e+01    5.677898e+00
  1.524471e+01    5.984547e+00
  1.526058e+01    6.341373e+00
  1.527646e+01    6.601397e+00
  1.529233e+01    6.658923e+00
  1.530821e+01    6.608647e+00
  1.532409e+01    6.327534e+00
  1.533996e+01    5.797361e+00
  1.535584e+01    5.170979e+00
  1.537171e+01    4.477661e+00
  1.538759e+01    3.933615e+00
  1.540346e+01    3.544349e+00
  1.541934e+01    3.167918e+00
  1.543521e+01    2.868670e+00
  1.545109e+01    2.682919e+00
  1.546697e+01    2.540699e+00
  1.548284e+01    2.440254e+00
  1.549872e+01    2.326293e+00
  1.551459e+01    2.173728e+00
  1.553047e+01    2.148760e+00
  1.554634e+01    2.046258e+00
  1.556222e+01    2.010851e+00
  1.557809e+01    1.988752e+00
  1.559397e+01    1.951348e+00
  1.560985e+01    1.907168e+00
  1.562572e+01    1.878618e+00
  1.564160e+01    1.855232e+00
  1.565747e+01    1.859930e+00
  1.567335e+01    1.796190e+00
  1.568922e+01    1.785966e+00
  1.570510e+01    1.775484e+00
  1.572097e+01    1.762887e+00
  1.573685e+01    1.745622e+00
  1.575273e+01    1.753224e+00
  1.576860e+01    1.749350e+00
  1.578448e+01    1.728561e+00
  1.580035e+01    1.732148e+00
  1.581623e+01    1.744437e+00
  1.583210e+01    1.747249e+00
  1.584798e+01    1.722439e+00
  1.586385e+01    1.689590e+00
  1.587973e+01    1.698328e+00
  1.589561e+01    1.658108e+00
  1.591148e+01    1.675006e+00
  1.592736e+01    1.677735e+00
  1.594323e+01    1.667303e+00
  1.595911e+01    1.689561e+00
  1.597498e+01    1.657760e+00
  1.599086e+01    1.635988e+00
  1.600673e+01    1.657861e+00
  1.602261e+01    1.653758e+00
  1.603849e+01    1.668076e+00
  1.605436e+01    1.666019e+00
  1.607024e+01    1.616554e+00
  1.608611e+01    1.614123e+00
  1.610199e+01    1.594077e+00
  1.611786e+01    1.559528e+00
  1.613374e+01    1.607149e+00
  1.614961e+01    1.644809e+00
  1.616549e+01    1.635153e+00
  1.618137e+01    1.586028e+00
  1.619724e+01    1.586587e+00
  1.621312e+01    1.568513e+00
  1.622899e+01    1.535777e+00
  1.624487e+01    1.532286e+00
  1.626074e+01    1.547995e+00
  1.627662e+01    1.557598e+00
  1.629250e+01    1.562006e+00
  1.630837e+01    1.573810e+00
  1.632425e+01    1.552967e+00
  1.634012e+01    1.584601e+00
  1.635600e+01    1.563800e+00
  1.637187e+01    1.540316e+00
  1.638775e+01    1.584132e+00
  1.640362e+01    1.597490e+00
  1.641950e+01    1.573890e+00
  1.643538e+01    1.573563e+00
  1.645125e+01    1.562350e+00
  1.646713e+01    1.536275e+00
  1.648300e+01    1.539503e+00
  1.649888e+01    1.515163e+00
  1.651475e+01    1.535893e+00
  1.653063e+01    1.551441e+00
  1.654650e+01    1.532244e+00
  1.656238e+01    1.530098e+00
  1.657826e+01    1.547297e+00
  1.659413e+01    1.523973e+00
  1.661001e+01    1.509067e+00
  1.662588e+01    1.516299e+00
  1.664176e+01    1.491034e+00
  1.665763e+01    1.535438e+00
  1.667351e+01    1.548227e+00
  1.668938e+01    1.497114e+00
  1.670526e+01    1.552895e+00
  1.672114e+01    1.527136e+00
  1.673701e+01    1.490615e+00
  1.675289e+01    1.519846e+00
  1.676876e+01    1.495755e+00
  1.678464e+01    1.468238e+00
  1.680051e+01    1.483330e+00
  1.681639e+01    1.474255e+00
  1.683226e+01    1.484846e+00
  1.684814e+01    1.450970e+00
  1.686402e+01    1.474649e+00
  1.687989e+01    1.476457e+00
  1.689577e+01    1.465097e+00
  1.691164e+01    1.453287e+00
  1.692752e+01    1.454444e+00
  1.694339e+01    1.484088e+00
  1.695927e+01    1.452581e+00
  1.697514e+01    1.453541e+00
  1.699102e+01    1.455602e+00
  1.700690e+01    1.448848e+00
  1.702277e+01    1.446982e+00
  1.703865e+01    1.462859e+00
  1.705452e+01    1.480684e+00
  1.707040e+01    1.448053e+00
  1.708627e+01    1.435483e+00
  1.710215e+01    1.467547e+00
  1.711802e+01    1.458828e+00
  1.713390e+01    1.443282e+00
  1.714978e+01    1.428271e+00
  1.716565e+01    1.452058e+00
  1.718153e+01    1.453358e+00
  1.719740e+01    1.436372e+00
  1.721328e+01    1.402955e+00
  1.722915e+01    1.384870e+00
  1.724503e+01    1.408817e+00
  1.726091e+01    1.401468e+00
  1.727678e+01    1.394445e+00
  1.729266e+01    1.421465e+00
  1.730853e+01    1.424351e+00
  1.732441e+01    1.427089e+00
  1.734028e+01    1.411300e+00
  1.735616e+01    1.382567e+00
  1.737203e+01    1.380263e+00
  1.738791e+01    1.397840e+00
  1.740379e+01    1.393320e+00
  1.741966e+01    1.378854e+00
  1.743554e+01    1.375546e+00
  1.745141e+01    1.402276e+00
  1.746729e+01    1.402127e+00
  1.748316e+01    1.397054e+00
  1.749904e+01    1.396007e+00
  1.751491e+01    1.390454e+00
  1.753079e+01    1.411843e+00
  1.754667e+01    1.395818e+00
  1.756254e+01    1.358094e+00
  1.757842e+01    1.376007e+00
  1.759429e+01    1.369217e+00
  1.761017e+01    1.375345e+00
  1.762604e+01    1.405843e+00
  1.764192e+01    1.400109e+00
  1.765779e+01    1.355847e+00
  1.767367e+01    1.360530e+00
  1.768955e+01    1.364504e+00
  1.770542e+01    1.361166e+00
  1.772130e+01    1.356157e+00
  1.773717e+01    1.358477e+00
  1.775305e+01    1.387681e+00
  1.776892e+01    1.355853e+00
  1.778480e+01    1.350042e+00
  1.780067e+01    1.345275e+00
  1.781655e+01    1.333019e+00
  1.783243e+01    1.336022e+00
  1.784830e+01    1.331138e+00
  1.786418e+01    1.341485e+00
  1.788005e+01    1.343464e+00
  1.789593e+01    1.327133e+00
  1.791180e+01    1.344750e+00
  1.792768e+01    1.331728e+00
  1.794355e+01    1.322097e+00
  1.795943e+01    1.339520e+00
  1.797531e+01    1.314680e+00
  1.799118e+01    1.326826e+00
  1.800706e+01    1.343980e+00
  1.802293e+01    1.349389e+00
  1.803881e+01    1.335902e+00
  1.805468e+01    1.313212e+00
  1.807056e+01    1.310986e+00
  1.808643e+01    1.276324e+00
  1.810231e+01    1.294641e+00
  1.811819e+01    1.322904e+00
  1.813406e+01    1.299595e+00
  1.814994e+01    1.289827e+00
  1.816581e+01    1.298999e+00
  1.818169e+01    1.298990e+00
  1.819756e+01    1.313403e+00
  1.821344e+01    1.308685e+00
  1.822932e+01    1.283224e+00
  1.824519e+01    1.269542e+00
  1.826107e+01    1.284123e+00
  1.827694e+01    1.290530e+00
  1.829282e+01    1.323748e+00
  1.830869e+01    1.312243e+00
  1.832457e+01    1.289296e+00
  1.834044e+01    1.285473e+00
  1.835632e+01    1.270865e+00
  1.837220e+01    1.265266e+00
  1.838807e+01    1.267168e+00
  1.840395e+01    1.275192e+00
  1.841982e+01    1.266426e+00
  1.843570e+01    1.252078e+00
  1.845157e+01    1.270763e+00
  1.846745e+01    1.260331e+00
  1.848332e+01    1.262074e+00
  1.849920e+01    1.270568e+00
  1.851508e+01    1.259974e+00
  1.853095e+01    1.266253e+00
  1.854683e+01    1.251589e+00
  1.856270e+01    1.248126e+00
  1.857858e+01    1.252050e+00
  1.859445e+01    1.271052e+00
  1.861033e+01    1.265960e+00
  1.862620e+01    1.248784e+00
  1.864208e+01    1.256110e+00
  1.865796e+01    1.270412e+00
  1.867383e+01    1.269232e+00
  1.868971e+01    1.240864e+00
  1.870558e+01    1.246349e+00
  1.872146e+01    1.262783e+00
  1.873733e+01    1.245332e+00
  1.875321e+01    1.245224e+00
  1.876908e+01    1.253737e+00
  1.878496e+01    1.221025e+00
  1.880084e+01    1.220457e+00
  1.881671e+01    1.225496e+00
  1.883259e+01    1.245418e+00
  1.884846e+01    1.243465e+00
  1.886434e+01    1.247100e+00
  1.888021e+01    1.247105e+00
  1.889609e+01    1.238921e+00
  1.891196e+01    1.245866e+00
  1.892784e+01    1.230987e+00
  1.894372e+01    1.235005e+00
  1.895959e+01    1.214499e+00
  1.897547e+01    1.204722e+00
  1.899134e+01    1.205713e+00
  1.900722e+01    1.221193e+00
  1.902309e+01    1.230840e+00
  1.903897e+01    1.209540e+00
  1.905484e+01    1.221390e+00
  1.907072e+01    1.238438e+00
  1.908660e+01    1.234890e+00
  1.910247e+01    1.202687e+00
  1.911835e+01    1.225450e+00
  1.913422e+01    1.223136e+00
  1.915010e+01    1.235976e+00
  1.916597e+01    1.196874e+00
  1.918185e+01    1.223328e+00
  1.919773e+01    1.214844e+00
  1.921360e+01    1.201658e+00
  1.922948e+01    1.222430e+00
  1.924535e+01    1.211097e+00
  1.926123e+01    1.191510e+00
  1.927710e+01    1.196687e+00
  1.929298e+01    1.201843e+00
  1.930885e+01    1.207335e+00
  1.932473e+01    1.178495e+00
  1.934061e+01    1.187525e+00
  1.935648e+01    1.189050e+00
  1.937236e+01    1.163806e+00
  1.938823e+01    1.159879e+00
  1.940411e+01    1.166955e+00
  1.941998e+01    1.175738e+00
  1.943586e+01    1.193700e+00
  1.945173e+01    1.217581e+00
  1.946761e+01    1.183832e+00
  1.948349e+01    1.169376e+00
  1.949936e+01    1.171460e+00
  1.951524e+01    1.165979e+00
  1.953111e+01    1.165885e+00
  1.954699e+01    1.190916e+00
  1.956286e+01    1.181448e+00
  1.957874e+01    1.171097e+00
  1.959461e+01    1.155087e+00
  1.961049e+01    1.163814e+00
  1.962637e+01    1.180086e+00
  1.964224e+01    1.161206e+00
  1.965812e+01    1.147117e+00
  1.967399e+01    1.177892e+00
  1.968987e+01    1.169188e+00
  1.970574e+01    1.167047e+00
  1.972162e+01    1.166439e+00
  1.973749e+01    1.160206e+00
  1.975337e+01    1.166664e+00
  1.976925e+01    1.157028e+00
  1.978512e+01    1.144196e+00
  1.980100e+01    1.165324e+00
  1.981687e+01    1.152903e+00
  1.983275e+01    1.146803e+00
  1.984862e+01    1.142413e+00
  1.986450e+01    1.146952e+00
  1.988037e+01    1.141967e+00
  1.989625e+01    1.141430e+00
  1.991213e+01    1.130146e+00
  1.992800e+01    1.145674e+00
  1.994388e+01    1.122068e+00
  1.995975e+01    1.156168e+00
  1.997563e+01    1.137006e+00
  1.999150e+01    1.110491e+00
  2.000738e+01    1.120570e+00
  2.002325e+01    1.145234e+00
  2.003913e+01    1.145205e+00
  2.005501e+01    1.111370e+00
  2.007088e+01    1.118309e+00
  2.008676e+01    1.123804e+00
  2.010263e+01    1.120443e+00
  2.011851e+01    1.120491e+00
  2.013438e+01    1.135869e+00
  2.015026e+01    1.141063e+00
  2.016614e+01    1.137937e+00
  2.018201e+01    1.122210e+00
  2.019789e+01    1.129846e+00
  2.021376e+01    1.155311e+00
  2.022964e+01    1.137862e+00
  2.024551e+01    1.111921e+00
  2.026139e+01    1.110077e+00
  2.027726e+01    1.118899e+00
  2.029314e+01    1.115404e+00
  2.030902e+01    1.068542e+00
  2.032489e+01    1.095354e+00
  2.034077e+01    1.118340e+00
  2.035664e+01    1.113920e+00
  2.037252e+01    1.121240e+00
  2.038839e+01    1.129501e+00
  2.040427e+01    1.117147e+00
  2.042014e+01    1.119435e+00
  2.043602e+01    1.096429e+00
  2.045190e+01    1.093743e+00
  2.046777e+01    1.128019e+00
  2.048365e+01    1.109604e+00
  2.049952e+01    1.092272e+00
  2.051540e+01    1.111108e+00
  2.053127e+01    1.115645e+00
  2.054715e+01    1.103900e+00
  2.056302e+01    1.096344e+00
  2.057890e+01    1.091490e+00
  2.059478e+01    1.095833e+00
  2.061065e+01    1.101975e+00
  2.062653e+01    1.118028e+00
  2.064240e+01    1.122760e+00
  2.065828e+01    1.124105e+00
  2.067415e+01    1.100189e+00
  2.069003e+01    1.075518e+00
  2.070590e+01    1.081814e+00
  2.072178e+01    1.087374e+00
  2.073766e+01    1.113743e+00
  2.075353e+01    1.110328e+00
  2.076941e+01    1.112564e+00
  2.078528e+01    1.110806e+00
  2.080116e+01    1.130919e+00
  2.081703e+01    1.106440e+00
  2.083291e+01    1.082769e+00
  2.084878e+01    1.089605e+00
  2.086466e+01    1.084866e+00
  2.088054e+01    1.108544e+00
  2.089641e+01    1.103974e+00
  2.091229e+01    1.090755e+00
  2.092816e+01    1.089333e+00
  2.094404e+01    1.102198e+00
  2.095991e+01    1.100663e+00
  2.097579e+01    1.102144e+00
  2.099166e+01    1.108029e+00
  2.100754e+01    1.118221e+00
  2.102342e+01    1.121689e+00
  2.103929e+01    1.082932e+00
  2.105517e+01    1.081194e+00
  2.107104e+01    1.094462e+00
  2.108692e+01    1.063786e+00
  2.110279e+01    1.104163e+00
  2.111867e+01    1.134630e+00
  2.113455e+01    1.139847e+00
  2.115042e+01    1.112311e+00
  2.116630e+01    1.108442e+00
  2.118217e+01    1.115518e+00
  2.119805e+01    1.120841e+00
  2.121392e+01    1.147318e+00
  2.122980e+01    1.139250e+00
  2.124567e+01    1.121783e+00
  2.126155e+01    1.130664e+00
  2.127743e+01    1.137425e+00
  2.129330e+01    1.106256e+00
  2.130918e+01    1.130790e+00
  2.132505e+01    1.174542e+00
  2.134093e+01    1.168898e+00
  2.135680e+01    1.145349e+00
  2.137268e+01    1.174329e+00
  2.138855e+01    1.192780e+00
  2.140443e+01    1.203178e+00
  2.142031e+01    1.184759e+00
  2.143618e+01    1.202728e+00
  2.145206e+01    1.209509e+00
  2.146793e+01    1.224830e+00
  2.148381e+01    1.250346e+00
  2.149968e+01    1.283866e+00
  2.151556e+01    1.299152e+00
  2.153143e+01    1.349153e+00
  2.154731e+01    1.350060e+00
  2.156319e+01    1.381124e+00
  2.157906e+01    1.438094e+00
  2.159494e+01    1.485466e+00
  2.161081e+01    1.541219e+00
  2.162669e+01    1.634940e+00
  2.164256e+01    1.712505e+00
  2.165844e+01    1.778425e+00
  2.167431e+01    1.902641e+00
  2.169019e+01    2.094866e+00
  2.170607e+01    2.315835e+00
  2.172194e+01    2.541022e+00
  2.173782e+01    2.792792e+00
  2.175369e+01    3.123119e+00
  2.176957e+01    3.595081e+00
  2.178544e+01    4.114810e+00
  2.180132e+01    4.746583e+00
  2.181719e+01    5.506666e+00
  2.183307e+01    6.227937e+00
  2.184895e+01    7.115583e+00
  2.186482e+01    8.026031e+00
  2.188070e+01    8.863185e+00
  2.189657e+01    9.746680e+00
  2.191245e+01    1.050316e+01
  2.192832e+01    1.101992e+01
  2.194420e+01    1.111663e+01
  2.196007e+01    1.069904e+01
  2.197595e+01    9.785913e+00
  2.199183e+01    8.682981e+00
  2.200770e+01    7.491220e+00
  2.202358e+01    6.326856e+00
  2.203945e+01    5.353709e+00
  2.205533e+01    4.526968e+00
  2.207120e+01    3.880873e+00
  2.208708e+01    3.367652e+00
  2.210296e+01    2.988469e+00
  2.211883e+01    2.671633e+00
  2.213471e+01    2.390665e+00
  2.215058e+01    2.174500e+00
  2.216646e+01    1.989712e+00
  2.218233e+01    1.842886e+00
  2.219821e+01    1.755473e+00
  2.221408e+01    1.639110e+00
  2.222996e+01    1.584160e+00
  2.224584e+01    1.496773e+00
  2.226171e+01    1.427010e+00
  2.227759e+01    1.385895e+00
  2.229346e+01    1.364042e+00
  2.230934e+01    1.321450e+00
  2.232521e+01    1.278120e+00
  2.234109e+01    1.238275e+00
  2.235696e+01    1.228545e+00
  2.237284e+01    1.194985e+00
  2.238872e+01    1.167298e+00
  2.240459e+01    1.150667e+00
  2.242047e+01    1.123710e+00
  2.243634e+01    1.124990e+00
  2.245222e+01    1.124112e+00
  2.246809e+01    1.096513e+00
  2.248397e+01    1.088079e+00
  2.249984e+01    1.067465e+00
  2.251572e+01    1.079297e+00
  2.253160e+01    1.048258e+00
  2.254747e+01    1.030833e+00
  2.256335e+01    1.022767e+00
  2.257922e+01    1.019922e+00
  2.259510e+01    1.026952e+00
  2.261097e+01    1.014993e+00
  2.262685e+01    9.836355e-01
  2.264272e+01    1.019279e+00
  2.265860e+01    1.020425e+00
  2.267448e+01    9.773152e-01
  2.269035e+01    1.003835e+00
  2.270623e+01    9.846349e-01
  2.272210e+01    9.836763e-01
  2.273798e+01    9.709923e-01
  2.275385e+01    9.610845e-01
  2.276973e+01    9.703096e-01
  2.278560e+01    9.754509e-01
  2.280148e+01    9.605168e-01
  2.281736e+01    9.398435e-01
  2.283323e+01    9.493355e-01
  2.284911e+01    9.476966e-01
  2.286498e+01    9.546274e-01
  2.288086e+01    9.279418e-01
  2.289673e+01    9.233750e-01
  2.291261e+01    9.158076e-01
  2.292848e+01    9.171491e-01
  2.294436e+01    9.449105e-01
  2.296024e+01    9.195537e-01
  2.297611e+01    9.191996e-01
  2.299199e+01    9.322690e-01
  2.300786e+01    9.084019e-01
  2.302374e+01    8.979164e-01
  2.303961e+01    9.194615e-01
  2.305549e+01    9.080541e-01
  2.307137e+01    8.929699e-01
  2.308724e+01    9.021133e-01
  2.310312e+01    8.998263e-01
  2.311899e+01    9.047912e-01
  2.313487e+01    9.167793e-01
  2.315074e+01    9.075310e-01
  2.316662e+01    9.028448e-01
  2.318249e+01    8.809698e-01
  2.319837e+01    8.817784e-01
  2.321425e+01    8.855667e-01
  2.323012e+01    9.008322e-01
  2.324600e+01    8.993140e-01
  2.326187e+01    9.042405e-01
  2.327775e+01    8.827717e-01
  2.329362e+01    8.883432e-01
  2.330950e+01    8.833058e-01
  2.332537e+01    8.644229e-01
  2.334125e+01    8.905549e-01
  2.335713e+01    8.897922e-01
  2.337300e+01    8.866887e-01
  2.338888e+01    8.742027e-01
  2.340475e+01    8.542323e-01
  2.342063e+01    8.707484e-01
  2.343650e+01    8.687558e-01
  2.345238e+01    8.738335e-01
  2.346825e+01    8.550304e-01
  2.348413e+01    8.603997e-01
  2.350001e+01    8.475314e-01
  2.351588e+01    8.424724e-01
  2.353176e+01    8.470337e-01
  2.354763e+01    8.478860e-01
  2.356351e+01    8.672859e-01
  2.357938e+01    8.524380e-01
  2.359526e+01    8.595077e-01
  2.361113e+01    8.620352e-01
  2.362701e+01    8.696152e-01
  2.364289e+01    8.571982e-01
  2.365876e+01    8.406547e-01
  2.367464e+01    8.409297e-01
  2.369051e+01    8.453599e-01
  2.370639e+01    8.344018e-01
  2.372226e+01    8.345970e-01
  2.373814e+01    8.446867e-01
  2.375401e+01    8.432347e-01
  2.376989e+01    8.345907e-01
  2.378577e+01    8.254213e-01
  2.380164e+01    8.247955e-01
  2.381752e+01    8.379395e-01
  2.383339e+01    8.257272e-01
  2.384927e+01    8.305329e-01
  2.386514e+01    8.449672e-01
  2.388102e+01    8.120221e-01
  2.389689e+01    8.083482e-01
  2.391277e+01    8.291080e-01
  2.392865e+01    8.317065e-01
  2.394452e+01    8.091396e-01
  2.396040e+01    8.038724e-01
  2.397627e+01    8.117033e-01
  2.399215e+01    8.150734e-01
  2.400802e+01    8.299368e-01
  2.402390e+01    8.147566e-01
  2.403978e+01    7.787245e-01
  2.405565e+01    7.963276e-01
  2.407153e+01    8.120162e-01
  2.408740e+01    7.949107e-01
  2.410328e+01    8.017223e-01
  2.411915e+01    7.964165e-01
  2.413503e+01    7.976013e-01
  2.415090e+01    8.084642e-01
  2.416678e+01    8.015128e-01
  2.418266e+01    7.869480e-01
  2.419853e+01    7.745028e-01
  2.421441e+01    7.918462e-01
  2.423028e+01    7.927166e-01
  2.424616e+01    7.832066e-01
  2.426203e+01    7.801689e-01
  2.427791e+01    7.968856e-01
  2.429378e+01    8.012977e-01
  2.430966e+01    7.919605e-01
  2.432554e+01    7.880571e-01
  2.434141e+01    7.968729e-01
  2.435729e+01    8.062066e-01
  2.437316e+01    8.090297e-01
  2.438904e+01    7.829833e-01
  2.440491e+01    7.830973e-01
  2.442079e+01    8.058789e-01
  2.443666e+01    8.010226e-01
  2.445254e+01    8.203319e-01
  2.446842e+01    7.984716e-01
  2.448429e+01    7.852932e-01
  2.450017e+01    7.798933e-01
  2.451604e+01    8.085893e-01
  2.453192e+01    8.048621e-01
  2.454779e+01    7.907923e-01
  2.456367e+01    7.869537e-01
  2.457954e+01    7.927439e-01
  2.459542e+01    8.260432e-01
  2.461130e+01    8.185169e-01
  2.462717e+01    8.005870e-01
  2.464305e+01    8.027459e-01
  2.465892e+01    7.958161e-01
  2.467480e+01    7.928892e-01
  2.469067e+01    8.030573e-01
  2.470655e+01    7.983205e-01
  2.472242e+01    8.053666e-01
  2.473830e+01    7.867494e-01
  2.475418e+01    7.956634e-01
  2.477005e+01    7.923162e-01
  2.478593e+01    7.905997e-01
  2.480180e+01    8.203149e-01
  2.481768e+01    7.991946e-01
  2.483355e+01    8.187419e-01
  2.484943e+01    8.041931e-01
  2.486530e+01    8.070619e-01
  2.488118e+01    8.231146e-01
  2.489706e+01    8.113086e-01
  2.491293e+01    8.179203e-01
  2.492881e+01    8.080100e-01
  2.494468e+01    7.798759e-01
  2.496056e+01    7.870644e-01
  2.497643e+01    8.120036e-01
  2.499231e+01    7.962161e-01
  2.500819e+01    8.082246e-01
  2.502406e+01    8.253266e-01
  2.503994e+01    8.265249e-01
  2.505581e+01    8.236489e-01
  2.507169e+01    8.019410e-01
  2.508756e+01    8.205485e-01
  2.510344e+01    8.236963e-01
  2.511931e+01    8.061132e-01
  2.513519e+01    8.056368e-01
  2.515107e+01    8.216546e-01
  2.516694e+01    8.500724e-01
  2.518282e+01    8.298285e-01
  2.519869e+01    8.244731e-01
  2.521457e+01    8.465765e-01
  2.523044e+01    8.647587e-01
  2.524632e+01    8.565698e-01
  2.526219e+01    8.749443e-01
  2.527807e+01    8.638963e-01
  2.529395e+01    8.633255e-01
  2.530982e+01    8.811418e-01
  2.532570e+01    8.796737e-01
  2.534157e+01    8.865846e-01
  2.535745e+01    8.839242e-01
  2.537332e+01    8.932086e-01
  2.538920e+01    8.958847e-01
  2.540507e+01    9.084704e-01
  2.542095e+01    9.312399e-01
  2.543683e+01    9.452190e-01
  2.545270e+01    9.512196e-01
  2.546858e+01    9.691492e-01
  2.548445e+01    9.532269e-01
  2.550033e+01    9.609859e-01
  2.551620e+01    9.984521e-01
  2.553208e+01    1.006767e+00
  2.554795e+01    1.034586e+00
  2.556383e+01    1.012342e+00
  2.557971e+01    1.056428e+00
  2.559558e+01    1.069855e+00
  2.561146e+01    1.123444e+00
  2.562733e+01    1.125406e+00
  2.564321e+01    1.149752e+00
  2.565908e+01    1.203783e+00
  2.567496e+01    1.250742e+00
  2.569083e+01    1.302529e+00
  2.570671e+01    1.371111e+00
  2.572259e+01    1.439149e+00
  2.573846e+01    1.547530e+00
  2.575434e+01    1.666305e+00
  2.577021e+01    1.781418e+00
  2.578609e+01    1.973853e+00
  2.580196e+01    2.148427e+00
  2.581784e+01    2.382910e+00
  2.583371e+01    2.668539e+00
  2.584959e+01    3.068811e+00
  2.586547e+01    3.539344e+00
  2.588134e+01    4.107516e+00
  2.589722e+01    4.719752e+00
  2.591309e+01    5.405798e+00
  2.592897e+01    6.177566e+00
  2.594484e+01    6.960556e+00
  2.596072e+01    7.702064e+00
  2.597660e+01    8.476856e+00
  2.599247e+01    9.024735e+00
  2.600835e+01    9.219522e+00
  2.602422e+01    9.082482e+00
  2.604010e+01    8.593639e+00
  2.605597e+01    7.804814e+00
  2.607185e+01    6.938221e+00
  2.608772e+01    6.015436e+00
  2.610360e+01    5.083098e+00
  2.611948e+01    4.342072e+00
  2.613535e+01    3.728520e+00
  2.615123e+01    3.227487e+00
  2.616710e+01    2.849747e+00
  2.618298e+01    2.524391e+00
  2.619885e+01    2.226193e+00
  2.621473e+01    2.046072e+00
  2.623060e+01    1.863664e+00
  2.624648e+01    1.716310e+00
  2.626236e+01    1.579901e+00
  2.627823e+01    1.493446e+00
  2.629411e+01    1.403066e+00
  2.630998e+01    1.314064e+00
  2.632586e+01    1.303814e+00
  2.634173e+01    1.257807e+00
  2.635761e+01    1.201343e+00
  2.637348e+01    1.158454e+00
  2.638936e+01    1.117685e+00
  2.640524e+01    1.104643e+00
  2.642111e+01    1.081392e+00
  2.643699e+01    1.068545e+00
  2.645286e+01    1.059138e+00
  2.646874e+01    1.054526e+00
  2.648461e+01    1.030701e+00
  2.650049e+01    1.017129e+00
  2.651636e+01    1.031390e+00
  2.653224e+01    9.913431e-01
  2.654812e+01    9.682916e-01
  2.656399e+01    9.692090e-01
  2.657987e+01    9.538655e-01
  2.659574e+01    9.470774e-01
  2.661162e+01    9.388417e-01
  2.662749e+01    9.477857e-01
  2.664337e+01    9.514025e-01
  2.665924e+01    9.759341e-01
  2.667512e+01    9.629202e-01
  2.669100e+01    9.449503e-01
  2.670687e+01    9.322978e-01
  2.672275e+01    9.464872e-01
  2.673862e+01    9.239455e-01
  2.675450e+01    9.313899e-01
  2.677037e+01    9.194717e-01
  2.678625e+01    9.271116e-01
  2.680212e+01    9.497963e-01
  2.681800e+01    9.398083e-01
  2.683388e+01    9.320342e-01
  2.684975e+01    9.240604e-01
  2.686563e+01    9.334733e-01
  2.688150e+01    9.378442e-01
  2.689738e+01    9.521822e-01
  2.691325e+01    9.352545e-01
  2.692913e+01    9.294157e-01
  2.694501e+01    9.565290e-01
  2.696088e+01    9.811274e-01
  2.697676e+01    9.717871e-01
  2.699263e+01    9.886103e-01
  2.700851e+01    1.004683e+00
  2.702438e+01    1.046535e+00
  2.704026e+01    1.060691e+00
  2.705613e+01    1.107492e+00
  2.707201e+01    1.151286e+00
  2.708789e+01    1.188709e+00
  2.710376e+01    1.242120e+00
  2.711964e+01    1.327558e+00
  2.713551e+01    1.434685e+00
  2.715139e+01    1.523888e+00
  2.716726e+01    1.674262e+00
  2.718314e+01    1.850062e+00
  2.719901e+01    2.033530e+00
  2.721489e+01    2.224067e+00
  2.723077e+01    2.392524e+00
  2.724664e+01    2.508851e+00
  2.726252e+01    2.605902e+00
  2.727839e+01    2.641105e+00
  2.729427e+01    2.537951e+00
  2.731014e+01    2.402595e+00
  2.732602e+01    2.269782e+00
  2.734189e+01    2.028454e+00
  2.735777e+01    1.834625e+00
  2.737365e+01    1.682267e+00
  2.738952e+01    1.544634e+00
  2.740540e+01    1.402295e+00
  2.742127e+01    1.312427e+00
  2.743715e+01    1.251348e+00
  2.745302e+01    1.180726e+00
  2.746890e+01    1.143157e+00
  2.748477e+01    1.106164e+00
  2.750065e+01    1.049386e+00
  2.751653e+01    9.926738e-01
  2.753240e+01    9.867568e-01
  2.754828e+01    9.789826e-01
  2.756415e+01    9.449852e-01
  2.758003e+01    9.052246e-01
  2.759590e+01    9.007666e-01
  2.761178e+01    8.968233e-01
  2.762765e+01    9.028298e-01
  2.764353e+01    9.089640e-01
  2.765941e+01    9.036226e-01
  2.767528e+01    8.788001e-01
  2.769116e+01    8.711428e-01
  2.770703e+01    8.583868e-01
  2.772291e+01    8.589725e-01
  2.773878e+01    8.596890e-01
  2.775466e+01    8.587858e-01
  2.777054e+01    8.543568e-01
  2.778641e+01    8.518631e-01
  2.780229e+01    8.321882e-01
  2.781816e+01    8.167073e-01
  2.783404e+01    8.199891e-01
  2.784991e+01    8.209021e-01
  2.786579e+01    8.301033e-01
  2.788166e+01    8.246674e-01
  2.789754e+01    8.003069e-01
  2.791342e+01    8.086779e-01
  2.792929e+01    8.277053e-01
  2.794517e+01    8.203365e-01
  2.796104e+01    8.053674e-01
  2.797692e+01    8.358687e-01
  2.799279e+01    8.405905e-01
  2.800867e+01    8.442232e-01
  2.802454e+01    8.105490e-01
  2.804042e+01    8.043856e-01
  2.805630e+01    8.022627e-01
  2.807217e+01    8.001896e-01
  2.808805e+01    7.876170e-01
  2.810392e+01    8.007592e-01
  2.811980e+01    7.847494e-01
  2.813567e+01    7.753155e-01
  2.815155e+01    7.957577e-01
  2.816742e+01    7.944747e-01
  2.818330e+01    8.026791e-01
  2.819918e+01    7.956291e-01
  2.821505e+01    7.857111e-01
  2.823093e+01    7.922294e-01
  2.824680e+01    7.999753e-01
  2.826268e+01    7.845109e-01
  2.827855e+01    7.611321e-01
  2.829443e+01    7.781996e-01
  2.831030e+01    7.904611e-01
  2.832618e+01    7.943329e-01
  2.834206e+01    7.883850e-01
  2.835793e+01    7.945986e-01
  2.837381e+01    7.812516e-01
  2.838968e+01    8.058792e-01
  2.840556e+01    8.008237e-01
  2.842143e+01    8.090221e-01
  2.843731e+01    7.867358e-01
  2.845318e+01    7.713023e-01
  2.846906e+01    7.704271e-01
  2.848494e+01    7.661294e-01
  2.850081e+01    7.538815e-01
  2.851669e+01    7.677588e-01
  2.853256e+01    7.866912e-01
  2.854844e+01    7.988634e-01
  2.856431e+01    7.771177e-01
  2.858019e+01    7.752197e-01
  2.859606e+01    7.636670e-01
  2.861194e+01    7.504097e-01
  2.862782e+01    7.780974e-01
  2.864369e+01    7.843340e-01
  2.865957e+01    7.692435e-01
  2.867544e+01    7.574683e-01
  2.869132e+01    7.670707e-01
  2.870719e+01    7.861447e-01
  2.872307e+01    7.694821e-01
  2.873895e+01    7.410142e-01
  2.875482e+01    7.552045e-01
  2.877070e+01    7.535731e-01
  2.878657e+01    7.680296e-01
  2.880245e+01    7.718120e-01
  2.881832e+01    7.626969e-01
  2.883420e+01    7.642956e-01
  2.885007e+01    7.732800e-01
  2.886595e+01    7.496397e-01
  2.888183e+01    7.451991e-01
  2.889770e+01    7.621725e-01
  2.891358e+01    7.617587e-01
  2.892945e+01    7.596057e-01
  2.894533e+01    7.353566e-01
  2.896120e+01    7.514862e-01
  2.897708e+01    7.647036e-01
  2.899295e+01    7.484514e-01
  2.900883e+01    7.550799e-01
  2.902471e+01    7.540494e-01
  2.904058e+01    7.432162e-01
  2.905646e+01    7.387865e-01
  2.907233e+01    7.561136e-01
  2.908821e+01    7.559113e-01
  2.910408e+01    7.501454e-01
  2.911996e+01    7.398604e-01
  2.913583e+01    7.228531e-01
  2.915171e+01    7.334638e-01
  2.916759e+01    7.476963e-01
  2.918346e+01    7.434295e-01
  2.919934e+01    7.440741e-01
  2.921521e+01    7.355189e-01
  2.923109e+01    7.485204e-01
  2.924696e+01    7.268874e-01
  2.926284e+01    7.352693e-01
  2.927871e+01    7.354956e-01
  2.929459e+01    7.172465e-01
  2.931047e+01    7.211331e-01
  2.932634e+01    7.436272e-01
  2.934222e+01    7.264525e-01
  2.935809e+01    7.297501e-01
  2.937397e+01    7.488148e-01
  2.938984e+01    7.376002e-01
  2.940572e+01    7.579804e-01
  2.942159e+01    7.417335e-01
  2.943747e+01    7.478270e-01
  2.945335e+01    7.511401e-01
  2.946922e+01    7.477984e-01
  2.948510e+01    7.501064e-01
  2.950097e+01    7.525036e-01
  2.951685e+01    7.569532e-01
  2.953272e+01    7.595345e-01
  2.954860e+01    7.619722e-01
  2.956447e+01    7.336566e-01
  2.958035e+01    7.427688e-01
  2.959623e+01    7.246072e-01
  2.961210e+01    7.286381e-01
  2.962798e+01    7.421098e-01
  2.964385e+01    7.401854e-01
  2.965973e+01    7.551088e-01
  2.967560e+01    7.358726e-01
  2.969148e+01    7.225052e-01
  2.970736e+01    7.347583e-01
  2.972323e+01    7.368661e-01
  2.973911e+01    7.417024e-01
  2.975498e+01    7.528296e-01
  2.977086e+01    7.233210e-01
  2.978673e+01    7.245291e-01
  2.980261e+01    7.428764e-01
  2.981848e+01    7.346195e-01
  2.983436e+01    7.326483e-01
  2.985024e+01    7.381879e-01
  2.986611e+01    7.352551e-01
  2.988199e+01    7.376816e-01
  2.989786e+01    7.244735e-01
  2.991374e+01    7.238412e-01
  2.992961e+01    7.432784e-01
  2.994549e+01    7.481981e-01
  2.996136e+01    7.649554e-01
  2.997724e+01    7.342700e-01
  2.999312e+01    7.419797e-01
  3.000899e+01    7.434295e-01
  3.002487e+01    7.548251e-01
  3.004074e+01    7.492999e-01
  3.005662e+01    7.442195e-01
  3.007249e+01    7.578610e-01
  3.008837e+01    7.442723e-01
  3.010424e+01    7.423598e-01
  3.012012e+01    7.464437e-01
  3.013600e+01    7.229944e-01
  3.015187e+01    7.197508e-01
  3.016775e+01    7.218227e-01
  3.018362e+01    7.310849e-01
  3.019950e+01    7.400574e-01
  3.021537e+01    7.280475e-01
  3.023125e+01    7.030287e-01
  3.024712e+01    7.092043e-01
  3.026300e+01    7.203064e-01
  3.027888e+01    7.161648e-01
  3.029475e+01    7.273364e-01
  3.031063e+01    7.429118e-01
  3.032650e+01    7.209417e-01
  3.034238e+01    7.406299e-01
  3.035825e+01    7.266757e-01
  3.037413e+01    7.402920e-01
  3.039000e+01    7.529073e-01
  3.040588e+01    7.463013e-01
  3.042176e+01    7.417531e-01
  3.043763e+01    7.227668e-01
  3.045351e+01    7.277407e-01
  3.046938e+01    7.086435e-01
  3.048526e+01    7.331498e-01
  3.050113e+01    7.326729e-01
  3.051701e+01    7.345265e-01
  3.053288e+01    7.334689e-01
  3.054876e+01    7.285728e-01
  3.056464e+01    6.932198e-01
  3.058051e+01    7.296053e-01
  3.059639e+01    7.413402e-01
  3.061226e+01    7.254520e-01
  3.062814e+01    7.340933e-01
  3.064401e+01    7.341357e-01
  3.065989e+01    7.126690e-01
  3.067577e+01    7.183962e-01
  3.069164e+01    7.215472e-01
  3.070752e+01    7.396634e-01
  3.072339e+01    7.343242e-01
  3.073927e+01    7.204663e-01
  3.075514e+01    7.218633e-01
  3.077102e+01    7.316196e-01
  3.078689e+01    7.343097e-01
  3.080277e+01    7.175830e-01
  3.081865e+01    7.320720e-01
  3.083452e+01    7.288452e-01
  3.085040e+01    7.216551e-01
  3.086627e+01    7.215359e-01
  3.088215e+01    7.124529e-01
  3.089802e+01    7.135029e-01
  3.091390e+01    7.188273e-01
  3.092977e+01    7.323385e-01
  3.094565e+01    7.196957e-01
  3.096153e+01    7.073680e-01
  3.097740e+01    7.286677e-01
  3.099328e+01    7.263820e-01
  3.100915e+01    7.286660e-01
  3.102503e+01    7.311012e-01
  3.104090e+01    7.111722e-01
  3.105678e+01    7.164814e-01
  3.107265e+01    7.323068e-01
  3.108853e+01    7.375122e-01
  3.110441e+01    7.366375e-01
  3.112028e+01    7.347089e-01
  3.113616e+01    7.216329e-01
  3.115203e+01    7.052395e-01
  3.116791e+01    7.356646e-01
  3.118378e+01    7.415473e-01
  3.119966e+01    7.313031e-01
  3.121553e+01    7.449677e-01
  3.123141e+01    7.359214e-01
  3.124729e+01    7.286207e-01
  3.126316e+01    7.443675e-01
  3.127904e+01    7.386279e-01
  3.129491e+01    7.641474e-01
  3.131079e+01    7.530545e-01
  3.132666e+01    7.381064e-01
  3.134254e+01    7.437373e-01
  3.135841e+01    7.507815e-01
  3.137429e+01    7.650384e-01
  3.139017e+01    7.609590e-01
  3.140604e+01    7.628348e-01
  3.142192e+01    7.747584e-01
  3.143779e+01    7.659250e-01
  3.145367e+01    7.619082e-01
  3.146954e+01    7.337835e-01
  3.148542e+01    7.507498e-01
  3.150129e+01    7.797127e-01
  3.151717e+01    7.751638e-01
  3.153305e+01    7.928647e-01
  3.154892e+01    7.923298e-01
  3.156480e+01    7.932302e-01
  3.158067e+01    8.030100e-01
  3.159655e+01    8.234228e-01
  3.161242e+01    8.104821e-01
  3.162830e+01    8.304147e-01
  3.164418e+01    8.607008e-01
  3.166005e+01    8.334020e-01
  3.167593e+01    8.910668e-01
  3.169180e+01    8.831700e-01
  3.170768e+01    9.101333e-01
  3.172355e+01    9.372239e-01
  3.173943e+01    9.626625e-01
  3.175530e+01    1.008396e+00
  3.177118e+01    1.042815e+00
  3.178706e+01    1.079403e+00
  3.180293e+01    1.174392e+00
  3.181881e+01    1.281601e+00
  3.183468e+01    1.360488e+00
  3.185056e+01    1.493965e+00
  3.186643e+01    1.625993e+00
  3.188231e+01    1.806522e+00
  3.189818e+01    1.995406e+00
  3.191406e+01    2.181299e+00
  3.192994e+01    2.391990e+00
  3.194581e+01    2.552935e+00
  3.196169e+01    2.635004e+00
  3.197756e+01    2.614323e+00
  3.199344e+01    2.559058e+00
  3.200931e+01    2.423517e+00
  3.202519e+01    2.212147e+00
  3.204106e+01    2.030808e+00
  3.205694e+01    1.809287e+00
  3.207282e+01    1.637150e+00
  3.208869e+01    1.444255e+00
  3.210457e+01    1.324146e+00
  3.212044e+01    1.221164e+00
  3.213632e+01    1.162961e+00
  3.215219e+01    1.072207e+00
  3.216807e+01    1.036054e+00
  3.218394e+01    9.861664e-01
  3.219982e+01    9.492505e-01
  3.221570e+01    9.235843e-01
  3.223157e+01    9.013959e-01
  3.224745e+01    8.871442e-01
  3.226332e+01    8.514652e-01
  3.227920e+01    8.435164e-01
  3.229507e+01    8.224027e-01
  3.231095e+01    8.008524e-01
  3.232682e+01    8.040614e-01
  3.234270e+01    8.091522e-01
  3.235858e+01    8.024223e-01
  3.237445e+01    8.064399e-01
  3.239033e+01    7.874808e-01
  3.240620e+01    7.786537e-01
  3.242208e+01    7.525284e-01
  3.243795e+01    7.619883e-01
  3.245383e+01    7.626104e-01
  3.246970e+01    7.761727e-01
  3.248558e+01    7.472374e-01
  3.250146e+01    7.331927e-01
  3.251733e+01    7.468172e-01
  3.253321e+01    7.516612e-01
  3.254908e+01    7.383937e-01
