# == pyFAI calibration ==
# Distance Sample to Detector: 0.3999999939076516 m
# PONI: 9.750e-02, 1.135e-01 m
# Rotations: -0.000175 0.000000 -0.000000 rad
# 
# == Fit2d calibration ==
# Distance Sample-beamCenter: 400.000 mm
# Center: x=1514.000, y=1300.000 pix
# Tilt: 0.010 deg  TiltPlanRot: 0.010 deg
# 
# Detector Detector	 Spline= None	 PixelSize= 7.500e-05, 7.500e-05 m
#    Detector has a mask: False 
#    Detector has a dark current: False 
#    detector has a flat field: False 
# 
# Wavelength: 6.888e-11 m
# Mask applied: user provided
# Dark current applied: False
# Flat field applied: False
# Polarization factor: 0.99
# Normalization factor: 1.0
# --> /home/myspot/data/2024_07_Rosario/Ru-CGO-ex/2024-07-27_002_Ru-CGO-ex_Activtation_ramp_000002_data_000053.dat
#       q_nm^-1             I 
  2.003187e-02    0.000000e+00
  3.590745e-02    0.000000e+00
  5.178302e-02    0.000000e+00
  6.765859e-02    2.008007e-02
  8.353417e-02    1.172677e-01
  9.940974e-02    1.032004e-01
  1.152853e-01    5.629594e-02
  1.311609e-01    8.087413e-02
  1.470365e-01    7.108381e-03
  1.629120e-01    2.824035e-02
  1.787876e-01    9.775349e-02
  1.946632e-01    1.238465e-01
  2.105388e-01    6.168776e-02
  2.264143e-01    1.288686e-02
  2.422899e-01    1.443815e-03
  2.581655e-01    1.640004e-02
  2.740411e-01    3.711265e-02
  2.899166e-01    8.768586e-02
  3.057922e-01    2.384580e-02
  3.216678e-01    2.696534e-02
  3.375433e-01    3.951435e-02
  3.534189e-01    1.714182e-02
  3.692945e-01    1.302842e-02
  3.851701e-01    2.387785e-02
  4.010456e-01    5.388064e-02
  4.169212e-01    3.191616e-02
  4.327968e-01    2.241389e-02
  4.486724e-01    3.776576e-02
  4.645479e-01    4.448924e-02
  4.804235e-01    2.176340e-02
  4.962991e-01    5.379209e-03
  5.121747e-01    3.656270e-03
  5.280502e-01    2.463798e-02
  5.439258e-01    2.931608e-02
  5.598014e-01    4.111844e-02
  5.756770e-01    5.699238e-02
  5.915525e-01    3.647536e-02
  6.074281e-01    3.879702e-02
  6.233037e-01    4.341022e-02
  6.391793e-01    2.193861e-02
  6.550548e-01    5.382153e-02
  6.709304e-01    4.062511e-02
  6.868060e-01    2.952813e-02
  7.026815e-01    4.118045e-02
  7.185571e-01    3.083422e-02
  7.344327e-01    2.600211e-02
  7.503083e-01    2.031879e-02
  7.661838e-01    6.580514e-02
  7.820594e-01    8.961343e-02
  7.979350e-01    1.417146e-01
  8.138106e-01    2.188656e-01
  8.296861e-01    2.712900e-01
  8.455617e-01    2.801290e-01
  8.614373e-01    3.252898e-01
  8.773129e-01    4.412444e-01
  8.931884e-01    5.591305e-01
  9.090640e-01    6.598365e-01
  9.249396e-01    6.362473e-01
  9.408152e-01    6.447801e-01
  9.566907e-01    7.270260e-01
  9.725663e-01    8.567265e-01
  9.884419e-01    9.467159e-01
  1.004317e+00    1.071756e+00
  1.020193e+00    1.182826e+00
  1.036069e+00    1.223617e+00
  1.051944e+00    1.281194e+00
  1.067820e+00    1.413117e+00
  1.083695e+00    1.401857e+00
  1.099571e+00    1.353481e+00
  1.115446e+00    1.458276e+00
  1.131322e+00    1.471589e+00
  1.147198e+00    1.535243e+00
  1.163073e+00    1.443207e+00
  1.178949e+00    1.440655e+00
  1.194824e+00    1.628420e+00
  1.210700e+00    1.740621e+00
  1.226575e+00    2.041407e+00
  1.242451e+00    2.250261e+00
  1.258327e+00    2.366845e+00
  1.274202e+00    2.474571e+00
  1.290078e+00    2.551832e+00
  1.305953e+00    2.528512e+00
  1.321829e+00    2.567324e+00
  1.337705e+00    2.532540e+00
  1.353580e+00    2.574577e+00
  1.369456e+00    2.667677e+00
  1.385331e+00    2.683683e+00
  1.401207e+00    2.656338e+00
  1.417082e+00    2.676694e+00
  1.432958e+00    2.779779e+00
  1.448834e+00    2.829816e+00
  1.464709e+00    2.877947e+00
  1.480585e+00    2.986649e+00
  1.496460e+00    2.929361e+00
  1.512336e+00    2.866287e+00
  1.528211e+00    2.841797e+00
  1.544087e+00    2.884432e+00
  1.559963e+00    3.055803e+00
  1.575838e+00    3.099780e+00
  1.591714e+00    3.081456e+00
  1.607589e+00    2.875628e+00
  1.623465e+00    2.853025e+00
  1.639340e+00    2.868058e+00
  1.655216e+00    2.838814e+00
  1.671092e+00    2.909060e+00
  1.686967e+00    2.799801e+00
  1.702843e+00    2.907672e+00
  1.718718e+00    2.940615e+00
  1.734594e+00    2.840578e+00
  1.750469e+00    2.828191e+00
  1.766345e+00    2.772552e+00
  1.782221e+00    2.824436e+00
  1.798096e+00    2.907437e+00
  1.813972e+00    2.731798e+00
  1.829847e+00    2.750463e+00
  1.845723e+00    2.674880e+00
  1.861598e+00    2.803551e+00
  1.877474e+00    2.853985e+00
  1.893350e+00    2.635710e+00
  1.909225e+00    2.707657e+00
  1.925101e+00    2.836680e+00
  1.940976e+00    2.848885e+00
  1.956852e+00    2.751740e+00
  1.972727e+00    2.774685e+00
  1.988603e+00    2.708940e+00
  2.004479e+00    2.893229e+00
  2.020354e+00    2.788883e+00
  2.036230e+00    2.716005e+00
  2.052105e+00    2.695572e+00
  2.067981e+00    2.693129e+00
  2.083856e+00    2.840539e+00
  2.099732e+00    2.831443e+00
  2.115608e+00    2.792364e+00
  2.131483e+00    2.820883e+00
  2.147359e+00    2.647427e+00
  2.163234e+00    2.826633e+00
  2.179110e+00    2.822922e+00
  2.194985e+00    2.792173e+00
  2.210861e+00    2.788092e+00
  2.226737e+00    2.732819e+00
  2.242612e+00    2.831572e+00
  2.258488e+00    2.820254e+00
  2.274363e+00    2.738861e+00
  2.290239e+00    2.763855e+00
  2.306115e+00    2.789801e+00
  2.321990e+00    2.757983e+00
  2.337866e+00    2.786895e+00
  2.353741e+00    2.809415e+00
  2.369617e+00    2.768129e+00
  2.385492e+00    2.843365e+00
  2.401368e+00    2.786401e+00
  2.417244e+00    2.773336e+00
  2.433119e+00    2.813266e+00
  2.448995e+00    2.855786e+00
  2.464870e+00    2.791770e+00
  2.480746e+00    2.855191e+00
  2.496621e+00    2.861106e+00
  2.512497e+00    2.817746e+00
  2.528373e+00    2.810234e+00
  2.544248e+00    2.812725e+00
  2.560124e+00    2.765041e+00
  2.575999e+00    2.856678e+00
  2.591875e+00    2.820106e+00
  2.607750e+00    2.784148e+00
  2.623626e+00    2.891668e+00
  2.639502e+00    2.932926e+00
  2.655377e+00    2.881987e+00
  2.671253e+00    2.780602e+00
  2.687128e+00    2.832708e+00
  2.703004e+00    2.890545e+00
  2.718879e+00    2.825716e+00
  2.734755e+00    2.829960e+00
  2.750631e+00    2.877629e+00
  2.766506e+00    2.959802e+00
  2.782382e+00    2.927748e+00
  2.798257e+00    2.991039e+00
  2.814133e+00    2.852998e+00
  2.830008e+00    2.764649e+00
  2.845884e+00    2.834802e+00
  2.861760e+00    2.955534e+00
  2.877635e+00    2.951982e+00
  2.893511e+00    2.950379e+00
  2.909386e+00    2.973178e+00
  2.925262e+00    2.902659e+00
  2.941137e+00    2.839369e+00
  2.957013e+00    2.837922e+00
  2.972889e+00    2.886232e+00
  2.988764e+00    2.888452e+00
  3.004640e+00    2.794285e+00
  3.020515e+00    2.856484e+00
  3.036391e+00    2.833861e+00
  3.052266e+00    2.848044e+00
  3.068142e+00    2.834282e+00
  3.084018e+00    2.775820e+00
  3.099893e+00    2.778805e+00
  3.115769e+00    2.825190e+00
  3.131644e+00    2.856581e+00
  3.147520e+00    2.931497e+00
  3.163395e+00    2.914567e+00
  3.179271e+00    2.934732e+00
  3.195147e+00    2.938423e+00
  3.211022e+00    3.010229e+00
  3.226898e+00    2.900871e+00
  3.242773e+00    2.836549e+00
  3.258649e+00    2.861768e+00
  3.274525e+00    2.920829e+00
  3.290400e+00    2.979262e+00
  3.306276e+00    2.956786e+00
  3.322151e+00    2.918666e+00
  3.338027e+00    2.955924e+00
  3.353902e+00    3.053045e+00
  3.369778e+00    2.950417e+00
  3.385654e+00    2.810687e+00
  3.401529e+00    2.879636e+00
  3.417405e+00    2.958408e+00
  3.433280e+00    3.018598e+00
  3.449156e+00    3.070013e+00
  3.465031e+00    2.974024e+00
  3.480907e+00    2.965578e+00
  3.496783e+00    2.963427e+00
  3.512658e+00    2.953035e+00
  3.528534e+00    2.959536e+00
  3.544409e+00    2.986799e+00
  3.560285e+00    3.042620e+00
  3.576160e+00    3.039832e+00
  3.592036e+00    2.906781e+00
  3.607912e+00    2.934402e+00
  3.623787e+00    3.041738e+00
  3.639663e+00    3.121386e+00
  3.655538e+00    3.159184e+00
  3.671414e+00    3.036578e+00
  3.687289e+00    2.941199e+00
  3.703165e+00    3.017589e+00
  3.719041e+00    3.036220e+00
  3.734916e+00    3.000365e+00
  3.750792e+00    3.090590e+00
  3.766667e+00    3.075782e+00
  3.782543e+00    3.022162e+00
  3.798418e+00    3.014880e+00
  3.814294e+00    3.040074e+00
  3.830170e+00    3.106586e+00
  3.846045e+00    3.049849e+00
  3.861921e+00    3.070236e+00
  3.877796e+00    3.081724e+00
  3.893672e+00    2.956419e+00
  3.909547e+00    2.992495e+00
  3.925423e+00    2.960881e+00
  3.941299e+00    2.975421e+00
  3.957174e+00    3.015218e+00
  3.973050e+00    3.007021e+00
  3.988925e+00    3.044262e+00
  4.004801e+00    3.019976e+00
  4.020676e+00    3.060103e+00
  4.036552e+00    3.053573e+00
  4.052428e+00    2.988690e+00
  4.068303e+00    2.973825e+00
  4.084179e+00    2.946378e+00
  4.100054e+00    3.002079e+00
  4.115930e+00    3.146323e+00
  4.131806e+00    3.097662e+00
  4.147681e+00    3.010341e+00
  4.163557e+00    3.029580e+00
  4.179432e+00    3.093278e+00
  4.195308e+00    3.078604e+00
  4.211183e+00    3.060833e+00
  4.227059e+00    3.080414e+00
  4.242935e+00    3.134404e+00
  4.258810e+00    3.086730e+00
  4.274686e+00    3.089309e+00
  4.290561e+00    3.055206e+00
  4.306437e+00    2.995263e+00
  4.322312e+00    3.063046e+00
  4.338188e+00    3.144622e+00
  4.354064e+00    3.068504e+00
  4.369939e+00    3.090594e+00
  4.385815e+00    3.160849e+00
  4.401690e+00    3.140381e+00
  4.417566e+00    3.058463e+00
  4.433441e+00    3.065802e+00
  4.449317e+00    3.087716e+00
  4.465193e+00    3.155400e+00
  4.481068e+00    3.183802e+00
  4.496944e+00    3.096240e+00
  4.512819e+00    3.047341e+00
  4.528695e+00    3.068845e+00
  4.544570e+00    3.121313e+00
  4.560446e+00    3.120998e+00
  4.576322e+00    3.070003e+00
  4.592197e+00    3.069766e+00
  4.608073e+00    3.116106e+00
  4.623948e+00    3.107049e+00
  4.639824e+00    3.142719e+00
  4.655699e+00    3.146549e+00
  4.671575e+00    3.170580e+00
  4.687451e+00    3.164263e+00
  4.703326e+00    3.044859e+00
  4.719202e+00    3.109210e+00
  4.735077e+00    3.165270e+00
  4.750953e+00    3.121310e+00
  4.766828e+00    3.144471e+00
  4.782704e+00    3.174424e+00
  4.798580e+00    3.200131e+00
  4.814455e+00    3.147615e+00
  4.830331e+00    3.184435e+00
  4.846206e+00    3.169432e+00
  4.862082e+00    3.183534e+00
  4.877957e+00    3.171432e+00
  4.893833e+00    3.085427e+00
  4.909709e+00    3.106103e+00
  4.925584e+00    3.023086e+00
  4.941460e+00    3.068959e+00
  4.957335e+00    3.135282e+00
  4.973211e+00    3.072065e+00
  4.989086e+00    3.084460e+00
  5.004962e+00    3.122009e+00
  5.020838e+00    3.191211e+00
  5.036713e+00    3.107476e+00
  5.052589e+00    3.146106e+00
  5.068464e+00    3.093586e+00
  5.084340e+00    3.124210e+00
  5.100216e+00    3.121775e+00
  5.116091e+00    3.125061e+00
  5.131967e+00    3.142717e+00
  5.147842e+00    3.159910e+00
  5.163718e+00    3.173365e+00
  5.179593e+00    3.132957e+00
  5.195469e+00    3.108562e+00
  5.211345e+00    3.146468e+00
  5.227220e+00    3.185966e+00
  5.243096e+00    3.117462e+00
  5.258971e+00    3.118047e+00
  5.274847e+00    3.187500e+00
  5.290722e+00    3.217648e+00
  5.306598e+00    3.196304e+00
  5.322474e+00    3.169536e+00
  5.338349e+00    3.164730e+00
  5.354225e+00    3.183020e+00
  5.370100e+00    3.147887e+00
  5.385976e+00    3.081885e+00
  5.401851e+00    3.078445e+00
  5.417727e+00    3.068156e+00
  5.433603e+00    3.088908e+00
  5.449478e+00    3.088026e+00
  5.465354e+00    3.053230e+00
  5.481229e+00    3.072769e+00
  5.497105e+00    3.059634e+00
  5.512980e+00    3.036983e+00
  5.528856e+00    3.067418e+00
  5.544732e+00    3.081169e+00
  5.560607e+00    3.058154e+00
  5.576483e+00    2.955413e+00
  5.592358e+00    3.051570e+00
  5.608234e+00    3.160869e+00
  5.624109e+00    3.153660e+00
  5.639985e+00    3.112365e+00
  5.655861e+00    3.115980e+00
  5.671736e+00    3.148436e+00
  5.687612e+00    3.103865e+00
  5.703487e+00    3.108379e+00
  5.719363e+00    3.078092e+00
  5.735238e+00    3.087814e+00
  5.751114e+00    3.078678e+00
  5.766990e+00    3.107750e+00
  5.782865e+00    3.099048e+00
  5.798741e+00    3.082057e+00
  5.814616e+00    3.128199e+00
  5.830492e+00    3.040210e+00
  5.846367e+00    3.009076e+00
  5.862243e+00    3.030867e+00
  5.878119e+00    3.013475e+00
  5.893994e+00    3.026727e+00
  5.909870e+00    3.019513e+00
  5.925745e+00    3.007133e+00
  5.941621e+00    3.063257e+00
  5.957497e+00    3.047427e+00
  5.973372e+00    3.066628e+00
  5.989248e+00    3.050384e+00
  6.005123e+00    2.995899e+00
  6.020999e+00    3.036791e+00
  6.036874e+00    3.096793e+00
  6.052750e+00    3.076663e+00
  6.068626e+00    3.022467e+00
  6.084501e+00    3.116518e+00
  6.100377e+00    3.127862e+00
  6.116252e+00    3.059810e+00
  6.132128e+00    3.017984e+00
  6.148003e+00    3.067276e+00
  6.163879e+00    3.152104e+00
  6.179755e+00    3.170798e+00
  6.195630e+00    3.051399e+00
  6.211506e+00    2.998212e+00
  6.227381e+00    3.078938e+00
  6.243257e+00    3.081739e+00
  6.259132e+00    2.973967e+00
  6.275008e+00    3.006769e+00
  6.290884e+00    3.001102e+00
  6.306759e+00    3.052706e+00
  6.322635e+00    3.086885e+00
  6.338510e+00    3.013302e+00
  6.354386e+00    3.047889e+00
  6.370261e+00    3.119277e+00
  6.386137e+00    3.035150e+00
  6.402013e+00    3.060663e+00
  6.417888e+00    3.163219e+00
  6.433764e+00    3.139168e+00
  6.449639e+00    3.043574e+00
  6.465515e+00    3.104585e+00
  6.481390e+00    3.094130e+00
  6.497266e+00    2.945295e+00
  6.513142e+00    3.030958e+00
  6.529017e+00    3.022584e+00
  6.544893e+00    2.975609e+00
  6.560768e+00    3.071838e+00
  6.576644e+00    3.140280e+00
  6.592519e+00    3.075067e+00
  6.608395e+00    3.049001e+00
  6.624271e+00    2.968963e+00
  6.640146e+00    2.962912e+00
  6.656022e+00    3.045190e+00
  6.671897e+00    3.052106e+00
  6.687773e+00    3.035599e+00
  6.703648e+00    3.053733e+00
  6.719524e+00    3.109733e+00
  6.735400e+00    3.093756e+00
  6.751275e+00    3.039644e+00
  6.767151e+00    2.984351e+00
  6.783026e+00    3.000977e+00
  6.798902e+00    3.035398e+00
  6.814777e+00    2.990230e+00
  6.830653e+00    2.980096e+00
  6.846529e+00    2.999889e+00
  6.862404e+00    3.063424e+00
  6.878280e+00    3.036145e+00
  6.894155e+00    3.066327e+00
  6.910031e+00    3.097665e+00
  6.925907e+00    3.088105e+00
  6.941782e+00    3.124465e+00
  6.957658e+00    3.063709e+00
  6.973533e+00    3.011948e+00
  6.989409e+00    3.036229e+00
  7.005284e+00    3.051395e+00
  7.021160e+00    3.023780e+00
  7.037036e+00    3.040288e+00
  7.052911e+00    3.096164e+00
  7.068787e+00    3.022381e+00
  7.084662e+00    3.014255e+00
  7.100538e+00    3.014481e+00
  7.116413e+00    3.009221e+00
  7.132289e+00    3.048055e+00
  7.148165e+00    3.030350e+00
  7.164040e+00    2.990992e+00
  7.179916e+00    2.982889e+00
  7.195791e+00    2.981334e+00
  7.211667e+00    2.962205e+00
  7.227542e+00    2.967840e+00
  7.243418e+00    3.014136e+00
  7.259294e+00    3.033246e+00
  7.275169e+00    3.030169e+00
  7.291045e+00    3.072551e+00
  7.306920e+00    3.039878e+00
  7.322796e+00    3.019588e+00
  7.338671e+00    3.034799e+00
  7.354547e+00    2.992272e+00
  7.370423e+00    3.021919e+00
  7.386298e+00    3.009844e+00
  7.402174e+00    3.056969e+00
  7.418049e+00    3.018395e+00
  7.433925e+00    3.013968e+00
  7.449800e+00    2.946923e+00
  7.465676e+00    2.973183e+00
  7.481552e+00    3.056613e+00
  7.497427e+00    3.022720e+00
  7.513303e+00    3.046265e+00
  7.529178e+00    2.963839e+00
  7.545054e+00    2.991164e+00
  7.560929e+00    3.010241e+00
  7.576805e+00    2.969563e+00
  7.592681e+00    3.007252e+00
  7.608556e+00    3.018683e+00
  7.624432e+00    2.953988e+00
  7.640307e+00    2.899391e+00
  7.656183e+00    2.905535e+00
  7.672058e+00    3.006652e+00
  7.687934e+00    3.029385e+00
  7.703810e+00    3.019135e+00
  7.719685e+00    2.975463e+00
  7.735561e+00    2.901820e+00
  7.751436e+00    2.931180e+00
  7.767312e+00    2.936119e+00
  7.783187e+00    2.961996e+00
  7.799063e+00    2.965916e+00
  7.814939e+00    2.938498e+00
  7.830814e+00    2.997165e+00
  7.846690e+00    2.967996e+00
  7.862565e+00    2.873570e+00
  7.878441e+00    2.905749e+00
  7.894317e+00    2.938344e+00
  7.910192e+00    2.896047e+00
  7.926068e+00    2.911569e+00
  7.941943e+00    2.927304e+00
  7.957819e+00    2.957932e+00
  7.973694e+00    2.934141e+00
  7.989570e+00    2.955993e+00
  8.005446e+00    2.953555e+00
  8.021321e+00    2.953552e+00
  8.037197e+00    2.971874e+00
  8.053072e+00    2.987253e+00
  8.068948e+00    3.047553e+00
  8.084823e+00    2.990175e+00
  8.100699e+00    3.001482e+00
  8.116575e+00    2.982676e+00
  8.132450e+00    2.985564e+00
  8.148326e+00    2.933220e+00
  8.164201e+00    2.972147e+00
  8.180077e+00    2.977791e+00
  8.195952e+00    2.951828e+00
  8.211828e+00    2.977264e+00
  8.227704e+00    2.974082e+00
  8.243579e+00    2.973938e+00
  8.259455e+00    2.899495e+00
  8.275330e+00    2.929624e+00
  8.291206e+00    2.906106e+00
  8.307081e+00    2.908819e+00
  8.322957e+00    2.963759e+00
  8.338833e+00    2.948814e+00
  8.354708e+00    2.899764e+00
  8.370584e+00    2.907811e+00
  8.386459e+00    2.917052e+00
  8.402335e+00    2.952105e+00
  8.418210e+00    2.874744e+00
  8.434086e+00    2.890066e+00
  8.449962e+00    2.939111e+00
  8.465837e+00    2.903812e+00
  8.481713e+00    2.941682e+00
  8.497588e+00    2.942966e+00
  8.513464e+00    2.893325e+00
  8.529339e+00    2.866243e+00
  8.545215e+00    2.924616e+00
  8.561091e+00    2.935788e+00
  8.576966e+00    2.881936e+00
  8.592842e+00    2.836598e+00
  8.608717e+00    2.881688e+00
  8.624593e+00    2.824192e+00
  8.640468e+00    2.831236e+00
  8.656344e+00    2.865360e+00
  8.672220e+00    2.839533e+00
  8.688095e+00    2.826644e+00
  8.703971e+00    2.942787e+00
  8.719846e+00    2.881442e+00
  8.735722e+00    2.816094e+00
  8.751598e+00    2.871684e+00
  8.767473e+00    2.931221e+00
  8.783349e+00    2.840709e+00
  8.799224e+00    2.804944e+00
  8.815100e+00    2.882872e+00
  8.830975e+00    2.914101e+00
  8.846851e+00    2.883597e+00
  8.862727e+00    2.847971e+00
  8.878602e+00    2.837600e+00
  8.894478e+00    2.803626e+00
  8.910353e+00    2.833403e+00
  8.926229e+00    2.833118e+00
  8.942104e+00    2.893496e+00
  8.957980e+00    2.804810e+00
  8.973856e+00    2.808159e+00
  8.989731e+00    2.825145e+00
  9.005607e+00    2.830539e+00
  9.021482e+00    2.811448e+00
  9.037358e+00    2.849070e+00
  9.053233e+00    2.832421e+00
  9.069109e+00    2.797591e+00
  9.084985e+00    2.798053e+00
  9.100860e+00    2.844717e+00
  9.116736e+00    2.873819e+00
  9.132611e+00    2.882422e+00
  9.148487e+00    2.827965e+00
  9.164362e+00    2.824677e+00
  9.180238e+00    2.853237e+00
  9.196114e+00    2.795793e+00
  9.211989e+00    2.744209e+00
  9.227865e+00    2.808987e+00
  9.243740e+00    2.822647e+00
  9.259616e+00    2.835319e+00
  9.275491e+00    2.846036e+00
  9.291367e+00    2.789844e+00
  9.307243e+00    2.781251e+00
  9.323118e+00    2.792405e+00
  9.338994e+00    2.775514e+00
  9.354869e+00    2.786354e+00
  9.370745e+00    2.807508e+00
  9.386620e+00    2.807779e+00
  9.402496e+00    2.801818e+00
  9.418372e+00    2.754962e+00
  9.434247e+00    2.780980e+00
  9.450123e+00    2.790717e+00
  9.465998e+00    2.764805e+00
  9.481874e+00    2.781341e+00
  9.497749e+00    2.758667e+00
  9.513625e+00    2.771335e+00
  9.529501e+00    2.762245e+00
  9.545376e+00    2.736649e+00
  9.561252e+00    2.779220e+00
  9.577127e+00    2.752828e+00
  9.593003e+00    2.755384e+00
  9.608878e+00    2.759798e+00
  9.624754e+00    2.782084e+00
  9.640630e+00    2.712581e+00
  9.656505e+00    2.737804e+00
  9.672381e+00    2.739296e+00
  9.688256e+00    2.793013e+00
  9.704132e+00    2.740683e+00
  9.720008e+00    2.762350e+00
  9.735883e+00    2.687081e+00
  9.751759e+00    2.785293e+00
  9.767634e+00    2.766062e+00
  9.783510e+00    2.760754e+00
  9.799385e+00    2.775902e+00
  9.815261e+00    2.704245e+00
  9.831137e+00    2.715127e+00
  9.847012e+00    2.699579e+00
  9.862888e+00    2.714922e+00
  9.878763e+00    2.707009e+00
  9.894639e+00    2.706214e+00
  9.910514e+00    2.705827e+00
  9.926390e+00    2.688379e+00
  9.942266e+00    2.695331e+00
  9.958141e+00    2.686666e+00
  9.974017e+00    2.684653e+00
  9.989892e+00    2.726271e+00
  1.000577e+01    2.693812e+00
  1.002164e+01    2.645772e+00
  1.003752e+01    2.689498e+00
  1.005339e+01    2.684259e+00
  1.006927e+01    2.670109e+00
  1.008515e+01    2.682218e+00
  1.010102e+01    2.658881e+00
  1.011690e+01    2.669755e+00
  1.013277e+01    2.675945e+00
  1.014865e+01    2.655255e+00
  1.016452e+01    2.680111e+00
  1.018040e+01    2.693443e+00
  1.019627e+01    2.650834e+00
  1.021215e+01    2.684219e+00
  1.022803e+01    2.677517e+00
  1.024390e+01    2.625722e+00
  1.025978e+01    2.636040e+00
  1.027565e+01    2.651915e+00
  1.029153e+01    2.597978e+00
  1.030740e+01    2.616976e+00
  1.032328e+01    2.664546e+00
  1.033915e+01    2.652151e+00
  1.035503e+01    2.696347e+00
  1.037091e+01    2.656184e+00
  1.038678e+01    2.666575e+00
  1.040266e+01    2.631757e+00
  1.041853e+01    2.604733e+00
  1.043441e+01    2.637872e+00
  1.045028e+01    2.641956e+00
  1.046616e+01    2.635776e+00
  1.048204e+01    2.656470e+00
  1.049791e+01    2.630345e+00
  1.051379e+01    2.589935e+00
  1.052966e+01    2.560911e+00
  1.054554e+01    2.599345e+00
  1.056141e+01    2.578146e+00
  1.057729e+01    2.583057e+00
  1.059316e+01    2.597062e+00
  1.060904e+01    2.612031e+00
  1.062492e+01    2.606442e+00
  1.064079e+01    2.630281e+00
  1.065667e+01    2.593949e+00
  1.067254e+01    2.541278e+00
  1.068842e+01    2.579320e+00
  1.070429e+01    2.622062e+00
  1.072017e+01    2.577844e+00
  1.073604e+01    2.537615e+00
  1.075192e+01    2.513082e+00
  1.076780e+01    2.491125e+00
  1.078367e+01    2.491545e+00
  1.079955e+01    2.511210e+00
  1.081542e+01    2.539776e+00
  1.083130e+01    2.503482e+00
  1.084717e+01    2.557609e+00
  1.086305e+01    2.587285e+00
  1.087892e+01    2.550936e+00
  1.089480e+01    2.531817e+00
  1.091068e+01    2.534862e+00
  1.092655e+01    2.537222e+00
  1.094243e+01    2.532607e+00
  1.095830e+01    2.546097e+00
  1.097418e+01    2.534263e+00
  1.099005e+01    2.500609e+00
  1.100593e+01    2.470252e+00
  1.102180e+01    2.524587e+00
  1.103768e+01    2.502418e+00
  1.105356e+01    2.517201e+00
  1.106943e+01    2.539349e+00
  1.108531e+01    2.484388e+00
  1.110118e+01    2.467701e+00
  1.111706e+01    2.481137e+00
  1.113293e+01    2.458284e+00
  1.114881e+01    2.463908e+00
  1.116468e+01    2.462557e+00
  1.118056e+01    2.459630e+00
  1.119644e+01    2.449006e+00
  1.121231e+01    2.439390e+00
  1.122819e+01    2.454042e+00
  1.124406e+01    2.458956e+00
  1.125994e+01    2.399451e+00
  1.127581e+01    2.457767e+00
  1.129169e+01    2.481801e+00
  1.130756e+01    2.473788e+00
  1.132344e+01    2.497118e+00
  1.133932e+01    2.470542e+00
  1.135519e+01    2.447194e+00
  1.137107e+01    2.413026e+00
  1.138694e+01    2.428349e+00
  1.140282e+01    2.442979e+00
  1.141869e+01    2.474176e+00
  1.143457e+01    2.422974e+00
  1.145045e+01    2.413008e+00
  1.146632e+01    2.445143e+00
  1.148220e+01    2.401827e+00
  1.149807e+01    2.423763e+00
  1.151395e+01    2.413602e+00
  1.152982e+01    2.367997e+00
  1.154570e+01    2.364670e+00
  1.156157e+01    2.407450e+00
  1.157745e+01    2.410930e+00
  1.159333e+01    2.389652e+00
  1.160920e+01    2.412496e+00
  1.162508e+01    2.413435e+00
  1.164095e+01    2.364384e+00
  1.165683e+01    2.376410e+00
  1.167270e+01    2.409867e+00
  1.168858e+01    2.382932e+00
  1.170445e+01    2.383647e+00
  1.172033e+01    2.405538e+00
  1.173621e+01    2.405064e+00
  1.175208e+01    2.407268e+00
  1.176796e+01    2.363029e+00
  1.178383e+01    2.375385e+00
  1.179971e+01    2.387239e+00
  1.181558e+01    2.409468e+00
  1.183146e+01    2.376704e+00
  1.184733e+01    2.342479e+00
  1.186321e+01    2.311468e+00
  1.187909e+01    2.341068e+00
  1.189496e+01    2.365494e+00
  1.191084e+01    2.329453e+00
  1.192671e+01    2.356715e+00
  1.194259e+01    2.318057e+00
  1.195846e+01    2.330081e+00
  1.197434e+01    2.365312e+00
  1.199021e+01    2.337277e+00
  1.200609e+01    2.302317e+00
  1.202197e+01    2.306802e+00
  1.203784e+01    2.346206e+00
  1.205372e+01    2.362210e+00
  1.206959e+01    2.365609e+00
  1.208547e+01    2.374468e+00
  1.210134e+01    2.374575e+00
  1.211722e+01    2.363535e+00
  1.213309e+01    2.382933e+00
  1.214897e+01    2.349609e+00
  1.216485e+01    2.351231e+00
  1.218072e+01    2.333521e+00
  1.219660e+01    2.335439e+00
  1.221247e+01    2.326472e+00
  1.222835e+01    2.329709e+00
  1.224422e+01    2.353293e+00
  1.226010e+01    2.286670e+00
  1.227597e+01    2.311386e+00
  1.229185e+01    2.328288e+00
  1.230773e+01    2.309217e+00
  1.232360e+01    2.352238e+00
  1.233948e+01    2.386151e+00
  1.235535e+01    2.330166e+00
  1.237123e+01    2.353558e+00
  1.238710e+01    2.390343e+00
  1.240298e+01    2.370698e+00
  1.241886e+01    2.354358e+00
  1.243473e+01    2.329509e+00
  1.245061e+01    2.332112e+00
  1.246648e+01    2.374021e+00
  1.248236e+01    2.412523e+00
  1.249823e+01    2.389491e+00
  1.251411e+01    2.337513e+00
  1.252998e+01    2.357146e+00
  1.254586e+01    2.306176e+00
  1.256174e+01    2.355377e+00
  1.257761e+01    2.430043e+00
  1.259349e+01    2.403501e+00
  1.260936e+01    2.383476e+00
  1.262524e+01    2.385191e+00
  1.264111e+01    2.388339e+00
  1.265699e+01    2.428880e+00
  1.267286e+01    2.426487e+00
  1.268874e+01    2.482855e+00
  1.270462e+01    2.508769e+00
  1.272049e+01    2.469181e+00
  1.273637e+01    2.549276e+00
  1.275224e+01    2.623862e+00
  1.276812e+01    2.634746e+00
  1.278399e+01    2.656319e+00
  1.279987e+01    2.726726e+00
  1.281574e+01    2.762691e+00
  1.283162e+01    2.807534e+00
  1.284750e+01    2.887285e+00
  1.286337e+01    2.930553e+00
  1.287925e+01    3.019077e+00
  1.289512e+01    3.156093e+00
  1.291100e+01    3.328863e+00
  1.292687e+01    3.522158e+00
  1.294275e+01    3.708643e+00
  1.295862e+01    3.943717e+00
  1.297450e+01    4.304265e+00
  1.299038e+01    4.761537e+00
  1.300625e+01    5.289823e+00
  1.302213e+01    5.948199e+00
  1.303800e+01    6.864908e+00
  1.305388e+01    7.957446e+00
  1.306975e+01    9.214792e+00
  1.308563e+01    1.058826e+01
  1.310150e+01    1.206190e+01
  1.311738e+01    1.347437e+01
  1.313326e+01    1.500525e+01
  1.314913e+01    1.635410e+01
  1.316501e+01    1.766208e+01
  1.318088e+01    1.868693e+01
  1.319676e+01    1.914120e+01
  1.321263e+01    1.856016e+01
  1.322851e+01    1.728209e+01
  1.324438e+01    1.508393e+01
  1.326026e+01    1.276664e+01
  1.327614e+01    1.071606e+01
  1.329201e+01    9.124277e+00
  1.330789e+01    7.712140e+00
  1.332376e+01    6.530220e+00
  1.333964e+01    5.757712e+00
  1.335551e+01    5.136565e+00
  1.337139e+01    4.632463e+00
  1.338727e+01    4.187311e+00
  1.340314e+01    3.899002e+00
  1.341902e+01    3.632983e+00
  1.343489e+01    3.457842e+00
  1.345077e+01    3.275161e+00
  1.346664e+01    3.156639e+00
  1.348252e+01    2.993977e+00
  1.349839e+01    2.875852e+00
  1.351427e+01    2.775063e+00
  1.353015e+01    2.714831e+00
  1.354602e+01    2.657357e+00
  1.356190e+01    2.568629e+00
  1.357777e+01    2.547569e+00
  1.359365e+01    2.541444e+00
  1.360952e+01    2.450935e+00
  1.362540e+01    2.408385e+00
  1.364127e+01    2.378503e+00
  1.365715e+01    2.378648e+00
  1.367303e+01    2.394504e+00
  1.368890e+01    2.338141e+00
  1.370478e+01    2.301291e+00
  1.372065e+01    2.289621e+00
  1.373653e+01    2.279109e+00
  1.375240e+01    2.255061e+00
  1.376828e+01    2.247550e+00
  1.378415e+01    2.238697e+00
  1.380003e+01    2.214787e+00
  1.381591e+01    2.202358e+00
  1.383178e+01    2.200244e+00
  1.384766e+01    2.193143e+00
  1.386353e+01    2.190276e+00
  1.387941e+01    2.156254e+00
  1.389528e+01    2.125912e+00
  1.391116e+01    2.129201e+00
  1.392703e+01    2.153313e+00
  1.394291e+01    2.135832e+00
  1.395879e+01    2.089744e+00
  1.397466e+01    2.095581e+00
  1.399054e+01    2.124671e+00
  1.400641e+01    2.070524e+00
  1.402229e+01    2.052511e+00
  1.403816e+01    2.078781e+00
  1.405404e+01    2.106529e+00
  1.406991e+01    2.084447e+00
  1.408579e+01    2.024607e+00
  1.410167e+01    2.038385e+00
  1.411754e+01    2.063100e+00
  1.413342e+01    2.032573e+00
  1.414929e+01    2.039877e+00
  1.416517e+01    2.045048e+00
  1.418104e+01    2.024279e+00
  1.419692e+01    2.039084e+00
  1.421279e+01    2.062566e+00
  1.422867e+01    1.968213e+00
  1.424455e+01    1.998181e+00
  1.426042e+01    2.015157e+00
  1.427630e+01    2.039053e+00
  1.429217e+01    1.971127e+00
  1.430805e+01    1.972526e+00
  1.432392e+01    2.044797e+00
  1.433980e+01    2.034137e+00
  1.435568e+01    2.029708e+00
  1.437155e+01    2.005764e+00
  1.438743e+01    1.950872e+00
  1.440330e+01    1.956377e+00
  1.441918e+01    1.962591e+00
  1.443505e+01    1.972936e+00
  1.445093e+01    1.971137e+00
  1.446680e+01    1.979605e+00
  1.448268e+01    1.932882e+00
  1.449856e+01    1.895270e+00
  1.451443e+01    1.934236e+00
  1.453031e+01    1.919821e+00
  1.454618e+01    1.925530e+00
  1.456206e+01    1.954759e+00
  1.457793e+01    1.949487e+00
  1.459381e+01    1.934422e+00
  1.460968e+01    1.926511e+00
  1.462556e+01    1.969636e+00
  1.464144e+01    1.918940e+00
  1.465731e+01    1.914178e+00
  1.467319e+01    1.946390e+00
  1.468906e+01    1.914443e+00
  1.470494e+01    1.931284e+00
  1.472081e+01    1.941852e+00
  1.473669e+01    1.939686e+00
  1.475256e+01    1.937264e+00
  1.476844e+01    1.909636e+00
  1.478432e+01    1.932582e+00
  1.480019e+01    1.947649e+00
  1.481607e+01    1.938057e+00
  1.483194e+01    1.928792e+00
  1.484782e+01    1.946023e+00
  1.486369e+01    1.963207e+00
  1.487957e+01    1.975491e+00
  1.489544e+01    1.946031e+00
  1.491132e+01    1.971744e+00
  1.492720e+01    1.992771e+00
  1.494307e+01    2.009737e+00
  1.495895e+01    2.040864e+00
  1.497482e+01    2.138237e+00
  1.499070e+01    2.150622e+00
  1.500657e+01    2.188927e+00
  1.502245e+01    2.219851e+00
  1.503832e+01    2.283484e+00
  1.505420e+01    2.346576e+00
  1.507008e+01    2.430795e+00
  1.508595e+01    2.582176e+00
  1.510183e+01    2.802850e+00
  1.511770e+01    3.009655e+00
  1.513358e+01    3.266400e+00
  1.514945e+01    3.660900e+00
  1.516533e+01    4.095833e+00
  1.518120e+01    4.502099e+00
  1.519708e+01    4.957621e+00
  1.521296e+01    5.265301e+00
  1.522883e+01    5.591055e+00
  1.524471e+01    5.939561e+00
  1.526058e+01    6.314713e+00
  1.527646e+01    6.424237e+00
  1.529233e+01    6.409017e+00
  1.530821e+01    6.260750e+00
  1.532409e+01    5.869198e+00
  1.533996e+01    5.367641e+00
  1.535584e+01    4.755746e+00
  1.537171e+01    4.135270e+00
  1.538759e+01    3.648206e+00
  1.540346e+01    3.261430e+00
  1.541934e+01    2.970946e+00
  1.543521e+01    2.739901e+00
  1.545109e+01    2.557935e+00
  1.546697e+01    2.415617e+00
  1.548284e+01    2.318910e+00
  1.549872e+01    2.187062e+00
  1.551459e+01    2.117174e+00
  1.553047e+01    2.033188e+00
  1.554634e+01    2.030985e+00
  1.556222e+01    2.003079e+00
  1.557809e+01    1.961432e+00
  1.559397e+01    1.890314e+00
  1.560985e+01    1.853982e+00
  1.562572e+01    1.865833e+00
  1.564160e+01    1.830133e+00
  1.565747e+01    1.821113e+00
  1.567335e+01    1.821622e+00
  1.568922e+01    1.795359e+00
  1.570510e+01    1.785891e+00
  1.572097e+01    1.770666e+00
  1.573685e+01    1.728356e+00
  1.575273e+01    1.718470e+00
  1.576860e+01    1.734164e+00
  1.578448e+01    1.729455e+00
  1.580035e+01    1.691412e+00
  1.581623e+01    1.668065e+00
  1.583210e+01    1.711193e+00
  1.584798e+01    1.720144e+00
  1.586385e+01    1.659923e+00
  1.587973e+01    1.667262e+00
  1.589561e+01    1.674913e+00
  1.591148e+01    1.662816e+00
  1.592736e+01    1.640588e+00
  1.594323e+01    1.665570e+00
  1.595911e+01    1.655136e+00
  1.597498e+01    1.635637e+00
  1.599086e+01    1.614920e+00
  1.600673e+01    1.642820e+00
  1.602261e+01    1.613130e+00
  1.603849e+01    1.630244e+00
  1.605436e+01    1.632497e+00
  1.607024e+01    1.592384e+00
  1.608611e+01    1.586818e+00
  1.610199e+01    1.630492e+00
  1.611786e+01    1.602000e+00
  1.613374e+01    1.606838e+00
  1.614961e+01    1.593714e+00
  1.616549e+01    1.609827e+00
  1.618137e+01    1.626459e+00
  1.619724e+01    1.604349e+00
  1.621312e+01    1.602419e+00
  1.622899e+01    1.599847e+00
  1.624487e+01    1.587733e+00
  1.626074e+01    1.596691e+00
  1.627662e+01    1.564948e+00
  1.629250e+01    1.539954e+00
  1.630837e+01    1.576167e+00
  1.632425e+01    1.552888e+00
  1.634012e+01    1.552764e+00
  1.635600e+01    1.562934e+00
  1.637187e+01    1.581174e+00
  1.638775e+01    1.543784e+00
  1.640362e+01    1.527803e+00
  1.641950e+01    1.530278e+00
  1.643538e+01    1.531241e+00
  1.645125e+01    1.509726e+00
  1.646713e+01    1.525950e+00
  1.648300e+01    1.503928e+00
  1.649888e+01    1.491343e+00
  1.651475e+01    1.507607e+00
  1.653063e+01    1.501332e+00
  1.654650e+01    1.495688e+00
  1.656238e+01    1.527256e+00
  1.657826e+01    1.533722e+00
  1.659413e+01    1.489482e+00
  1.661001e+01    1.499020e+00
  1.662588e+01    1.533635e+00
  1.664176e+01    1.516979e+00
  1.665763e+01    1.510469e+00
  1.667351e+01    1.497880e+00
  1.668938e+01    1.518085e+00
  1.670526e+01    1.502426e+00
  1.672114e+01    1.488869e+00
  1.673701e+01    1.513394e+00
  1.675289e+01    1.504268e+00
  1.676876e+01    1.459791e+00
  1.678464e+01    1.464159e+00
  1.680051e+01    1.467829e+00
  1.681639e+01    1.473166e+00
  1.683226e+01    1.475266e+00
  1.684814e+01    1.481502e+00
  1.686402e+01    1.448388e+00
  1.687989e+01    1.458827e+00
  1.689577e+01    1.475770e+00
  1.691164e+01    1.460003e+00
  1.692752e+01    1.436609e+00
  1.694339e+01    1.467327e+00
  1.695927e+01    1.468539e+00
  1.697514e+01    1.451079e+00
  1.699102e+01    1.420409e+00
  1.700690e+01    1.425109e+00
  1.702277e+01    1.452640e+00
  1.703865e+01    1.430652e+00
  1.705452e+01    1.378182e+00
  1.707040e+01    1.402977e+00
  1.708627e+01    1.433420e+00
  1.710215e+01    1.439476e+00
  1.711802e+01    1.406354e+00
  1.713390e+01    1.446810e+00
  1.714978e+01    1.420652e+00
  1.716565e+01    1.420434e+00
  1.718153e+01    1.428248e+00
  1.719740e+01    1.413040e+00
  1.721328e+01    1.409736e+00
  1.722915e+01    1.390585e+00
  1.724503e+01    1.410325e+00
  1.726091e+01    1.378397e+00
  1.727678e+01    1.391572e+00
  1.729266e+01    1.386140e+00
  1.730853e+01    1.396448e+00
  1.732441e+01    1.419114e+00
  1.734028e+01    1.393754e+00
  1.735616e+01    1.384165e+00
  1.737203e+01    1.384420e+00
  1.738791e+01    1.373368e+00
  1.740379e+01    1.386895e+00
  1.741966e+01    1.375937e+00
  1.743554e+01    1.384161e+00
  1.745141e+01    1.382725e+00
  1.746729e+01    1.378570e+00
  1.748316e+01    1.356884e+00
  1.749904e+01    1.345730e+00
  1.751491e+01    1.364286e+00
  1.753079e+01    1.379833e+00
  1.754667e+01    1.401890e+00
  1.756254e+01    1.388521e+00
  1.757842e+01    1.390709e+00
  1.759429e+01    1.361778e+00
  1.761017e+01    1.335145e+00
  1.762604e+01    1.319394e+00
  1.764192e+01    1.343817e+00
  1.765779e+01    1.362277e+00
  1.767367e+01    1.353570e+00
  1.768955e+01    1.324481e+00
  1.770542e+01    1.353558e+00
  1.772130e+01    1.324653e+00
  1.773717e+01    1.334805e+00
  1.775305e+01    1.338447e+00
  1.776892e+01    1.327417e+00
  1.778480e+01    1.342038e+00
  1.780067e+01    1.346785e+00
  1.781655e+01    1.324124e+00
  1.783243e+01    1.336557e+00
  1.784830e+01    1.335603e+00
  1.786418e+01    1.316730e+00
  1.788005e+01    1.312718e+00
  1.789593e+01    1.315662e+00
  1.791180e+01    1.328775e+00
  1.792768e+01    1.340397e+00
  1.794355e+01    1.349836e+00
  1.795943e+01    1.319548e+00
  1.797531e+01    1.303169e+00
  1.799118e+01    1.295599e+00
  1.800706e+01    1.314908e+00
  1.802293e+01    1.318349e+00
  1.803881e+01    1.322157e+00
  1.805468e+01    1.299653e+00
  1.807056e+01    1.317435e+00
  1.808643e+01    1.300503e+00
  1.810231e+01    1.282873e+00
  1.811819e+01    1.301961e+00
  1.813406e+01    1.293812e+00
  1.814994e+01    1.285122e+00
  1.816581e+01    1.306067e+00
  1.818169e+01    1.298191e+00
  1.819756e+01    1.316465e+00
  1.821344e+01    1.279927e+00
  1.822932e+01    1.277864e+00
  1.824519e+01    1.286039e+00
  1.826107e+01    1.303924e+00
  1.827694e+01    1.303894e+00
  1.829282e+01    1.265191e+00
  1.830869e+01    1.258525e+00
  1.832457e+01    1.274219e+00
  1.834044e+01    1.278118e+00
  1.835632e+01    1.256576e+00
  1.837220e+01    1.272085e+00
  1.838807e+01    1.264040e+00
  1.840395e+01    1.250658e+00
  1.841982e+01    1.246326e+00
  1.843570e+01    1.247780e+00
  1.845157e+01    1.271672e+00
  1.846745e+01    1.278520e+00
  1.848332e+01    1.259169e+00
  1.849920e+01    1.285145e+00
  1.851508e+01    1.283918e+00
  1.853095e+01    1.268682e+00
  1.854683e+01    1.261967e+00
  1.856270e+01    1.261735e+00
  1.857858e+01    1.260139e+00
  1.859445e+01    1.277967e+00
  1.861033e+01    1.230995e+00
  1.862620e+01    1.225948e+00
  1.864208e+01    1.219577e+00
  1.865796e+01    1.223984e+00
  1.867383e+01    1.252502e+00
  1.868971e+01    1.259648e+00
  1.870558e+01    1.244521e+00
  1.872146e+01    1.258316e+00
  1.873733e+01    1.236919e+00
  1.875321e+01    1.221950e+00
  1.876908e+01    1.220193e+00
  1.878496e+01    1.236442e+00
  1.880084e+01    1.257328e+00
  1.881671e+01    1.276891e+00
  1.883259e+01    1.236842e+00
  1.884846e+01    1.243383e+00
  1.886434e+01    1.228325e+00
  1.888021e+01    1.218085e+00
  1.889609e+01    1.237966e+00
  1.891196e+01    1.234920e+00
  1.892784e+01    1.239791e+00
  1.894372e+01    1.217100e+00
  1.895959e+01    1.236572e+00
  1.897547e+01    1.233701e+00
  1.899134e+01    1.223098e+00
  1.900722e+01    1.236492e+00
  1.902309e+01    1.225965e+00
  1.903897e+01    1.212478e+00
  1.905484e+01    1.199937e+00
  1.907072e+01    1.234945e+00
  1.908660e+01    1.218568e+00
  1.910247e+01    1.231169e+00
  1.911835e+01    1.216865e+00
  1.913422e+01    1.180741e+00
  1.915010e+01    1.195314e+00
  1.916597e+01    1.208990e+00
  1.918185e+01    1.212608e+00
  1.919773e+01    1.230606e+00
  1.921360e+01    1.224827e+00
  1.922948e+01    1.178456e+00
  1.924535e+01    1.164640e+00
  1.926123e+01    1.186757e+00
  1.927710e+01    1.190791e+00
  1.929298e+01    1.168182e+00
  1.930885e+01    1.186949e+00
  1.932473e+01    1.187354e+00
  1.934061e+01    1.180298e+00
  1.935648e+01    1.151634e+00
  1.937236e+01    1.186669e+00
  1.938823e+01    1.184020e+00
  1.940411e+01    1.183094e+00
  1.941998e+01    1.172968e+00
  1.943586e+01    1.163132e+00
  1.945173e+01    1.170492e+00
  1.946761e+01    1.193103e+00
  1.948349e+01    1.166984e+00
  1.949936e+01    1.176767e+00
  1.951524e+01    1.162782e+00
  1.953111e+01    1.178005e+00
  1.954699e+01    1.174363e+00
  1.956286e+01    1.151934e+00
  1.957874e+01    1.162016e+00
  1.959461e+01    1.189825e+00
  1.961049e+01    1.176237e+00
  1.962637e+01    1.147507e+00
  1.964224e+01    1.138739e+00
  1.965812e+01    1.136827e+00
  1.967399e+01    1.167618e+00
  1.968987e+01    1.154123e+00
  1.970574e+01    1.160439e+00
  1.972162e+01    1.146393e+00
  1.973749e+01    1.171424e+00
  1.975337e+01    1.161352e+00
  1.976925e+01    1.133944e+00
  1.978512e+01    1.148945e+00
  1.980100e+01    1.153665e+00
  1.981687e+01    1.150280e+00
  1.983275e+01    1.142042e+00
  1.984862e+01    1.150107e+00
  1.986450e+01    1.165769e+00
  1.988037e+01    1.128961e+00
  1.989625e+01    1.126484e+00
  1.991213e+01    1.146309e+00
  1.992800e+01    1.138111e+00
  1.994388e+01    1.158313e+00
  1.995975e+01    1.147740e+00
  1.997563e+01    1.141260e+00
  1.999150e+01    1.146260e+00
  2.000738e+01    1.140949e+00
  2.002325e+01    1.139685e+00
  2.003913e+01    1.125514e+00
  2.005501e+01    1.106900e+00
  2.007088e+01    1.112667e+00
  2.008676e+01    1.134549e+00
  2.010263e+01    1.127262e+00
  2.011851e+01    1.119217e+00
  2.013438e+01    1.127217e+00
  2.015026e+01    1.126606e+00
  2.016614e+01    1.103354e+00
  2.018201e+01    1.098978e+00
  2.019789e+01    1.104905e+00
  2.021376e+01    1.107980e+00
  2.022964e+01    1.116089e+00
  2.024551e+01    1.119255e+00
  2.026139e+01    1.109514e+00
  2.027726e+01    1.116897e+00
  2.029314e+01    1.134545e+00
  2.030902e+01    1.142474e+00
  2.032489e+01    1.135094e+00
  2.034077e+01    1.128687e+00
  2.035664e+01    1.119521e+00
  2.037252e+01    1.102232e+00
  2.038839e+01    1.107450e+00
  2.040427e+01    1.097630e+00
  2.042014e+01    1.103838e+00
  2.043602e+01    1.114575e+00
  2.045190e+01    1.106193e+00
  2.046777e+01    1.092286e+00
  2.048365e+01    1.096657e+00
  2.049952e+01    1.095108e+00
  2.051540e+01    1.082836e+00
  2.053127e+01    1.096056e+00
  2.054715e+01    1.105995e+00
  2.056302e+01    1.097238e+00
  2.057890e+01    1.125576e+00
  2.059478e+01    1.102197e+00
  2.061065e+01    1.085430e+00
  2.062653e+01    1.094068e+00
  2.064240e+01    1.097470e+00
  2.065828e+01    1.100789e+00
  2.067415e+01    1.111592e+00
  2.069003e+01    1.087306e+00
  2.070590e+01    1.113477e+00
  2.072178e+01    1.098857e+00
  2.073766e+01    1.089342e+00
  2.075353e+01    1.097427e+00
  2.076941e+01    1.106594e+00
  2.078528e+01    1.076290e+00
  2.080116e+01    1.051713e+00
  2.081703e+01    1.081912e+00
  2.083291e+01    1.084644e+00
  2.084878e+01    1.076139e+00
  2.086466e+01    1.095026e+00
  2.088054e+01    1.071595e+00
  2.089641e+01    1.076616e+00
  2.091229e+01    1.095434e+00
  2.092816e+01    1.096218e+00
  2.094404e+01    1.091112e+00
  2.095991e+01    1.108968e+00
  2.097579e+01    1.086695e+00
  2.099166e+01    1.090763e+00
  2.100754e+01    1.089174e+00
  2.102342e+01    1.098871e+00
  2.103929e+01    1.102405e+00
  2.105517e+01    1.079295e+00
  2.107104e+01    1.091325e+00
  2.108692e+01    1.111669e+00
  2.110279e+01    1.084360e+00
  2.111867e+01    1.094529e+00
  2.113455e+01    1.095325e+00
  2.115042e+01    1.101439e+00
  2.116630e+01    1.094742e+00
  2.118217e+01    1.102201e+00
  2.119805e+01    1.107073e+00
  2.121392e+01    1.106332e+00
  2.122980e+01    1.112182e+00
  2.124567e+01    1.135329e+00
  2.126155e+01    1.154006e+00
  2.127743e+01    1.121546e+00
  2.129330e+01    1.144064e+00
  2.130918e+01    1.128981e+00
  2.132505e+01    1.143690e+00
  2.134093e+01    1.150607e+00
  2.135680e+01    1.168275e+00
  2.137268e+01    1.171234e+00
  2.138855e+01    1.167401e+00
  2.140443e+01    1.203870e+00
  2.142031e+01    1.225689e+00
  2.143618e+01    1.202608e+00
  2.145206e+01    1.214044e+00
  2.146793e+01    1.268533e+00
  2.148381e+01    1.263513e+00
  2.149968e+01    1.273660e+00
  2.151556e+01    1.287037e+00
  2.153143e+01    1.328134e+00
  2.154731e+01    1.370243e+00
  2.156319e+01    1.405664e+00
  2.157906e+01    1.466695e+00
  2.159494e+01    1.533419e+00
  2.161081e+01    1.544162e+00
  2.162669e+01    1.623203e+00
  2.164256e+01    1.758466e+00
  2.165844e+01    1.886562e+00
  2.167431e+01    2.023580e+00
  2.169019e+01    2.158820e+00
  2.170607e+01    2.377207e+00
  2.172194e+01    2.638652e+00
  2.173782e+01    2.923998e+00
  2.175369e+01    3.331855e+00
  2.176957e+01    3.814853e+00
  2.178544e+01    4.397236e+00
  2.180132e+01    5.025819e+00
  2.181719e+01    5.797462e+00
  2.183307e+01    6.553830e+00
  2.184895e+01    7.383241e+00
  2.186482e+01    8.218969e+00
  2.188070e+01    9.082458e+00
  2.189657e+01    9.884831e+00
  2.191245e+01    1.043856e+01
  2.192832e+01    1.057978e+01
  2.194420e+01    1.038904e+01
  2.196007e+01    9.736800e+00
  2.197595e+01    8.684047e+00
  2.199183e+01    7.542442e+00
  2.200770e+01    6.446902e+00
  2.202358e+01    5.419316e+00
  2.203945e+01    4.588161e+00
  2.205533e+01    3.937214e+00
  2.207120e+01    3.387014e+00
  2.208708e+01    3.008219e+00
  2.210296e+01    2.677474e+00
  2.211883e+01    2.382484e+00
  2.213471e+01    2.191002e+00
  2.215058e+01    2.020226e+00
  2.216646e+01    1.846803e+00
  2.218233e+01    1.758700e+00
  2.219821e+01    1.656426e+00
  2.221408e+01    1.584094e+00
  2.222996e+01    1.496318e+00
  2.224584e+01    1.446140e+00
  2.226171e+01    1.400056e+00
  2.227759e+01    1.327202e+00
  2.229346e+01    1.287327e+00
  2.230934e+01    1.264023e+00
  2.232521e+01    1.244423e+00
  2.234109e+01    1.211537e+00
  2.235696e+01    1.195327e+00
  2.237284e+01    1.164210e+00
  2.238872e+01    1.145889e+00
  2.240459e+01    1.138949e+00
  2.242047e+01    1.119941e+00
  2.243634e+01    1.107980e+00
  2.245222e+01    1.082222e+00
  2.246809e+01    1.072004e+00
  2.248397e+01    1.072517e+00
  2.249984e+01    1.080752e+00
  2.251572e+01    1.044508e+00
  2.253160e+01    1.049277e+00
  2.254747e+01    1.024624e+00
  2.256335e+01    1.037613e+00
  2.257922e+01    1.036547e+00
  2.259510e+01    1.019186e+00
  2.261097e+01    1.012658e+00
  2.262685e+01    1.004859e+00
  2.264272e+01    1.018116e+00
  2.265860e+01    9.753820e-01
  2.267448e+01    9.742861e-01
  2.269035e+01    9.829734e-01
  2.270623e+01    9.919043e-01
  2.272210e+01    9.788137e-01
  2.273798e+01    9.575034e-01
  2.275385e+01    9.313704e-01
  2.276973e+01    9.479045e-01
  2.278560e+01    9.569047e-01
  2.280148e+01    9.455138e-01
  2.281736e+01    9.553049e-01
  2.283323e+01    9.345599e-01
  2.284911e+01    9.436106e-01
  2.286498e+01    9.577522e-01
  2.288086e+01    9.500224e-01
  2.289673e+01    9.443617e-01
  2.291261e+01    9.299107e-01
  2.292848e+01    9.351218e-01
  2.294436e+01    9.321352e-01
  2.296024e+01    9.226660e-01
  2.297611e+01    9.101726e-01
  2.299199e+01    9.107422e-01
  2.300786e+01    9.232250e-01
  2.302374e+01    9.103377e-01
  2.303961e+01    8.982690e-01
  2.305549e+01    9.079863e-01
  2.307137e+01    9.011685e-01
  2.308724e+01    8.826904e-01
  2.310312e+01    9.124107e-01
  2.311899e+01    8.952006e-01
  2.313487e+01    8.872908e-01
  2.315074e+01    8.812258e-01
  2.316662e+01    9.016596e-01
  2.318249e+01    9.005922e-01
  2.319837e+01    9.001674e-01
  2.321425e+01    8.844100e-01
  2.323012e+01    8.711225e-01
  2.324600e+01    8.858413e-01
  2.326187e+01    8.974689e-01
  2.327775e+01    8.884357e-01
  2.329362e+01    8.876936e-01
  2.330950e+01    8.783967e-01
  2.332537e+01    8.855627e-01
  2.334125e+01    8.887529e-01
  2.335713e+01    8.792003e-01
  2.337300e+01    8.843099e-01
  2.338888e+01    8.617896e-01
  2.340475e+01    8.604234e-01
  2.342063e+01    8.650838e-01
  2.343650e+01    8.739211e-01
  2.345238e+01    8.783029e-01
  2.346825e+01    8.557074e-01
  2.348413e+01    8.463893e-01
  2.350001e+01    8.625375e-01
  2.351588e+01    8.673670e-01
  2.353176e+01    8.564650e-01
  2.354763e+01    8.646091e-01
  2.356351e+01    8.494644e-01
  2.357938e+01    8.566841e-01
  2.359526e+01    8.579718e-01
  2.361113e+01    8.557563e-01
  2.362701e+01    8.562483e-01
  2.364289e+01    8.414897e-01
  2.365876e+01    8.430854e-01
  2.367464e+01    8.564721e-01
  2.369051e+01    8.481546e-01
  2.370639e+01    8.623163e-01
  2.372226e+01    8.425914e-01
  2.373814e+01    8.321088e-01
  2.375401e+01    8.133792e-01
  2.376989e+01    8.345799e-01
  2.378577e+01    8.281080e-01
  2.380164e+01    8.309988e-01
  2.381752e+01    8.209447e-01
  2.383339e+01    8.073907e-01
  2.384927e+01    8.013117e-01
  2.386514e+01    8.145409e-01
  2.388102e+01    8.209279e-01
  2.389689e+01    8.290803e-01
  2.391277e+01    8.105238e-01
  2.392865e+01    8.006177e-01
  2.394452e+01    8.065455e-01
  2.396040e+01    7.873685e-01
  2.397627e+01    8.005058e-01
  2.399215e+01    8.127884e-01
  2.400802e+01    7.977567e-01
  2.402390e+01    8.009450e-01
  2.403978e+01    8.098598e-01
  2.405565e+01    7.973495e-01
  2.407153e+01    8.000118e-01
  2.408740e+01    7.952816e-01
  2.410328e+01    7.964107e-01
  2.411915e+01    7.968466e-01
  2.413503e+01    7.913620e-01
  2.415090e+01    7.867452e-01
  2.416678e+01    7.940474e-01
  2.418266e+01    7.821065e-01
  2.419853e+01    7.906610e-01
  2.421441e+01    7.981626e-01
  2.423028e+01    7.747999e-01
  2.424616e+01    7.877972e-01
  2.426203e+01    7.854559e-01
  2.427791e+01    7.823922e-01
  2.429378e+01    8.135074e-01
  2.430966e+01    8.140687e-01
  2.432554e+01    8.005046e-01
  2.434141e+01    7.913322e-01
  2.435729e+01    7.917212e-01
  2.437316e+01    7.926111e-01
  2.438904e+01    7.869092e-01
  2.440491e+01    8.115140e-01
  2.442079e+01    8.047775e-01
  2.443666e+01    8.117237e-01
  2.445254e+01    8.090083e-01
  2.446842e+01    8.026447e-01
  2.448429e+01    7.921609e-01
  2.450017e+01    7.862315e-01
  2.451604e+01    7.816012e-01
  2.453192e+01    7.971808e-01
  2.454779e+01    7.962051e-01
  2.456367e+01    7.953420e-01
  2.457954e+01    7.859660e-01
  2.459542e+01    7.676006e-01
  2.461130e+01    7.792290e-01
  2.462717e+01    7.965004e-01
  2.464305e+01    8.295416e-01
  2.465892e+01    8.194529e-01
  2.467480e+01    8.147234e-01
  2.469067e+01    8.121304e-01
  2.470655e+01    7.923438e-01
  2.472242e+01    8.032321e-01
  2.473830e+01    8.059987e-01
  2.475418e+01    7.973209e-01
  2.477005e+01    8.138016e-01
  2.478593e+01    7.986443e-01
  2.480180e+01    7.927461e-01
  2.481768e+01    7.971030e-01
  2.483355e+01    8.033797e-01
  2.484943e+01    8.144298e-01
  2.486530e+01    8.181450e-01
  2.488118e+01    8.036984e-01
  2.489706e+01    8.061371e-01
  2.491293e+01    7.913418e-01
  2.492881e+01    8.228999e-01
  2.494468e+01    8.176343e-01
  2.496056e+01    8.205071e-01
  2.497643e+01    8.194256e-01
  2.499231e+01    8.119485e-01
  2.500819e+01    8.084457e-01
  2.502406e+01    8.020191e-01
  2.503994e+01    8.101021e-01
  2.505581e+01    8.080003e-01
  2.507169e+01    8.007017e-01
  2.508756e+01    8.123769e-01
  2.510344e+01    8.036547e-01
  2.511931e+01    8.167694e-01
  2.513519e+01    8.041144e-01
  2.515107e+01    8.335862e-01
  2.516694e+01    8.376452e-01
  2.518282e+01    8.379989e-01
  2.519869e+01    8.430715e-01
  2.521457e+01    8.581114e-01
  2.523044e+01    8.705170e-01
  2.524632e+01    8.611683e-01
  2.526219e+01    8.532189e-01
  2.527807e+01    8.563137e-01
  2.529395e+01    8.692278e-01
  2.530982e+01    8.875943e-01
  2.532570e+01    8.658490e-01
  2.534157e+01    9.069529e-01
  2.535745e+01    8.938522e-01
  2.537332e+01    9.074270e-01
  2.538920e+01    9.453466e-01
  2.540507e+01    9.562978e-01
  2.542095e+01    9.356547e-01
  2.543683e+01    9.390702e-01
  2.545270e+01    9.257065e-01
  2.546858e+01    9.511044e-01
  2.548445e+01    9.819882e-01
  2.550033e+01    9.947433e-01
  2.551620e+01    9.867746e-01
  2.553208e+01    1.005546e+00
  2.554795e+01    1.015727e+00
  2.556383e+01    1.012589e+00
  2.557971e+01    1.063807e+00
  2.559558e+01    1.097510e+00
  2.561146e+01    1.125750e+00
  2.562733e+01    1.167986e+00
  2.564321e+01    1.184436e+00
  2.565908e+01    1.211391e+00
  2.567496e+01    1.278645e+00
  2.569083e+01    1.362505e+00
  2.570671e+01    1.419779e+00
  2.572259e+01    1.513748e+00
  2.573846e+01    1.599456e+00
  2.575434e+01    1.740123e+00
  2.577021e+01    1.893631e+00
  2.578609e+01    2.072053e+00
  2.580196e+01    2.302687e+00
  2.581784e+01    2.562308e+00
  2.583371e+01    2.903390e+00
  2.584959e+01    3.342740e+00
  2.586547e+01    3.841700e+00
  2.588134e+01    4.406535e+00
  2.589722e+01    5.032327e+00
  2.591309e+01    5.777576e+00
  2.592897e+01    6.474541e+00
  2.594484e+01    7.322196e+00
  2.596072e+01    8.062524e+00
  2.597660e+01    8.526682e+00
  2.599247e+01    8.730934e+00
  2.600835e+01    8.704876e+00
  2.602422e+01    8.352508e+00
  2.604010e+01    7.663320e+00
  2.605597e+01    6.764627e+00
  2.607185e+01    5.826262e+00
  2.608772e+01    4.989071e+00
  2.610360e+01    4.268760e+00
  2.611948e+01    3.662301e+00
  2.613535e+01    3.168891e+00
  2.615123e+01    2.748894e+00
  2.616710e+01    2.446981e+00
  2.618298e+01    2.200769e+00
  2.619885e+01    2.015507e+00
  2.621473e+01    1.828705e+00
  2.623060e+01    1.693737e+00
  2.624648e+01    1.576658e+00
  2.626236e+01    1.496582e+00
  2.627823e+01    1.425894e+00
  2.629411e+01    1.354258e+00
  2.630998e+01    1.275381e+00
  2.632586e+01    1.203865e+00
  2.634173e+01    1.170994e+00
  2.635761e+01    1.144993e+00
  2.637348e+01    1.112472e+00
  2.638936e+01    1.089506e+00
  2.640524e+01    1.079095e+00
  2.642111e+01    1.047201e+00
  2.643699e+01    1.053964e+00
  2.645286e+01    1.038715e+00
  2.646874e+01    1.018416e+00
  2.648461e+01    9.986234e-01
  2.650049e+01    9.930356e-01
  2.651636e+01    9.820989e-01
  2.653224e+01    9.688595e-01
  2.654812e+01    9.618441e-01
  2.656399e+01    9.546627e-01
  2.657987e+01    9.385555e-01
  2.659574e+01    9.441423e-01
  2.661162e+01    9.389145e-01
  2.662749e+01    9.152015e-01
  2.664337e+01    9.466357e-01
  2.665924e+01    9.077952e-01
  2.667512e+01    9.240324e-01
  2.669100e+01    9.310728e-01
  2.670687e+01    9.449067e-01
  2.672275e+01    9.338500e-01
  2.673862e+01    9.469337e-01
  2.675450e+01    9.332281e-01
  2.677037e+01    9.185351e-01
  2.678625e+01    9.158331e-01
  2.680212e+01    9.005045e-01
  2.681800e+01    9.073541e-01
  2.683388e+01    9.115437e-01
  2.684975e+01    9.168556e-01
  2.686563e+01    9.031435e-01
  2.688150e+01    9.198365e-01
  2.689738e+01    9.073744e-01
  2.691325e+01    9.299091e-01
  2.692913e+01    9.293178e-01
  2.694501e+01    9.521691e-01
  2.696088e+01    9.663361e-01
  2.697676e+01    9.803206e-01
  2.699263e+01    9.976382e-01
  2.700851e+01    1.022524e+00
  2.702438e+01    1.049589e+00
  2.704026e+01    1.071587e+00
  2.705613e+01    1.116140e+00
  2.707201e+01    1.181361e+00
  2.708789e+01    1.239955e+00
  2.710376e+01    1.295302e+00
  2.711964e+01    1.365605e+00
  2.713551e+01    1.491899e+00
  2.715139e+01    1.642827e+00
  2.716726e+01    1.758309e+00
  2.718314e+01    1.924144e+00
  2.719901e+01    2.079858e+00
  2.721489e+01    2.267679e+00
  2.723077e+01    2.432583e+00
  2.724664e+01    2.482209e+00
  2.726252e+01    2.526935e+00
  2.727839e+01    2.474734e+00
  2.729427e+01    2.378629e+00
  2.731014e+01    2.220442e+00
  2.732602e+01    1.998818e+00
  2.734189e+01    1.821667e+00
  2.735777e+01    1.662343e+00
  2.737365e+01    1.500170e+00
  2.738952e+01    1.398591e+00
  2.740540e+01    1.292490e+00
  2.742127e+01    1.238014e+00
  2.743715e+01    1.181220e+00
  2.745302e+01    1.098649e+00
  2.746890e+01    1.046987e+00
  2.748477e+01    1.024050e+00
  2.750065e+01    1.019438e+00
  2.751653e+01    1.006790e+00
  2.753240e+01    9.635918e-01
  2.754828e+01    9.249469e-01
  2.756415e+01    9.199799e-01
  2.758003e+01    8.892083e-01
  2.759590e+01    8.899089e-01
  2.761178e+01    9.247553e-01
  2.762765e+01    8.837332e-01
  2.764353e+01    8.560328e-01
  2.765941e+01    8.631342e-01
  2.767528e+01    8.422107e-01
  2.769116e+01    8.630639e-01
  2.770703e+01    8.456871e-01
  2.772291e+01    8.509963e-01
  2.773878e+01    8.429059e-01
  2.775466e+01    8.174017e-01
  2.777054e+01    8.209693e-01
  2.778641e+01    8.243589e-01
  2.780229e+01    8.058126e-01
  2.781816e+01    8.344375e-01
  2.783404e+01    8.338122e-01
  2.784991e+01    8.197255e-01
  2.786579e+01    8.187272e-01
  2.788166e+01    8.171266e-01
  2.789754e+01    8.081126e-01
  2.791342e+01    8.204505e-01
  2.792929e+01    8.041787e-01
  2.794517e+01    8.182918e-01
  2.796104e+01    8.275952e-01
  2.797692e+01    8.120431e-01
  2.799279e+01    8.081731e-01
  2.800867e+01    8.090832e-01
  2.802454e+01    7.978311e-01
  2.804042e+01    7.928104e-01
  2.805630e+01    8.001714e-01
  2.807217e+01    8.120620e-01
  2.808805e+01    8.203313e-01
  2.810392e+01    8.119615e-01
  2.811980e+01    8.071507e-01
  2.813567e+01    7.846605e-01
  2.815155e+01    7.842318e-01
  2.816742e+01    7.955358e-01
  2.818330e+01    8.069192e-01
  2.819918e+01    7.916061e-01
  2.821505e+01    7.955789e-01
  2.823093e+01    7.874806e-01
  2.824680e+01    7.906350e-01
  2.826268e+01    7.809007e-01
  2.827855e+01    7.873538e-01
  2.829443e+01    8.054507e-01
  2.831030e+01    8.077233e-01
  2.832618e+01    8.066382e-01
  2.834206e+01    7.840708e-01
  2.835793e+01    8.055018e-01
  2.837381e+01    7.790170e-01
  2.838968e+01    7.888304e-01
  2.840556e+01    7.966878e-01
  2.842143e+01    7.868615e-01
  2.843731e+01    7.730721e-01
  2.845318e+01    7.745836e-01
  2.846906e+01    7.723213e-01
  2.848494e+01    7.693257e-01
  2.850081e+01    7.768938e-01
  2.851669e+01    7.577575e-01
  2.853256e+01    7.632207e-01
  2.854844e+01    7.418908e-01
  2.856431e+01    7.627394e-01
  2.858019e+01    7.659435e-01
  2.859606e+01    7.566131e-01
  2.861194e+01    7.567872e-01
  2.862782e+01    7.629439e-01
  2.864369e+01    7.510738e-01
  2.865957e+01    7.566392e-01
  2.867544e+01    7.730523e-01
  2.869132e+01    7.823795e-01
  2.870719e+01    7.599716e-01
  2.872307e+01    7.448837e-01
  2.873895e+01    7.436811e-01
  2.875482e+01    7.528956e-01
  2.877070e+01    7.564319e-01
  2.878657e+01    7.627968e-01
  2.880245e+01    7.593027e-01
  2.881832e+01    7.343932e-01
  2.883420e+01    7.514278e-01
  2.885007e+01    7.511596e-01
  2.886595e+01    7.376391e-01
  2.888183e+01    7.610543e-01
  2.889770e+01    7.517850e-01
  2.891358e+01    7.793112e-01
  2.892945e+01    7.479503e-01
  2.894533e+01    7.656933e-01
  2.896120e+01    7.525212e-01
  2.897708e+01    7.411261e-01
  2.899295e+01    7.285433e-01
  2.900883e+01    7.413279e-01
  2.902471e+01    7.534734e-01
  2.904058e+01    7.665153e-01
  2.905646e+01    7.560593e-01
  2.907233e+01    7.629361e-01
  2.908821e+01    7.463052e-01
  2.910408e+01    7.390864e-01
  2.911996e+01    7.486056e-01
  2.913583e+01    7.552078e-01
  2.915171e+01    7.443242e-01
  2.916759e+01    7.482516e-01
  2.918346e+01    7.374731e-01
  2.919934e+01    7.556860e-01
  2.921521e+01    7.446220e-01
  2.923109e+01    7.380871e-01
  2.924696e+01    7.451219e-01
  2.926284e+01    7.388793e-01
  2.927871e+01    7.461654e-01
  2.929459e+01    7.494888e-01
  2.931047e+01    7.331536e-01
  2.932634e+01    7.333627e-01
  2.934222e+01    7.339858e-01
  2.935809e+01    7.261620e-01
  2.937397e+01    7.206041e-01
  2.938984e+01    7.383692e-01
  2.940572e+01    7.478241e-01
  2.942159e+01    7.198638e-01
  2.943747e+01    7.177718e-01
  2.945335e+01    7.292956e-01
  2.946922e+01    7.468744e-01
  2.948510e+01    7.369238e-01
  2.950097e+01    7.488845e-01
  2.951685e+01    7.543952e-01
  2.953272e+01    7.515846e-01
  2.954860e+01    7.537572e-01
  2.956447e+01    7.441396e-01
  2.958035e+01    7.504143e-01
  2.959623e+01    7.608693e-01
  2.961210e+01    7.511191e-01
  2.962798e+01    7.531396e-01
  2.964385e+01    7.510654e-01
  2.965973e+01    7.211703e-01
  2.967560e+01    7.339273e-01
  2.969148e+01    7.334654e-01
  2.970736e+01    7.530861e-01
  2.972323e+01    7.312634e-01
  2.973911e+01    7.239090e-01
  2.975498e+01    7.228705e-01
  2.977086e+01    7.333032e-01
  2.978673e+01    7.377455e-01
  2.980261e+01    7.278476e-01
  2.981848e+01    7.282187e-01
  2.983436e+01    7.163683e-01
  2.985024e+01    7.320272e-01
  2.986611e+01    7.247609e-01
  2.988199e+01    7.309274e-01
  2.989786e+01    7.456692e-01
  2.991374e+01    7.281800e-01
  2.992961e+01    7.366582e-01
  2.994549e+01    7.531289e-01
  2.996136e+01    7.493483e-01
  2.997724e+01    7.499813e-01
  2.999312e+01    7.275664e-01
  3.000899e+01    7.317407e-01
  3.002487e+01    7.334089e-01
  3.004074e+01    7.658368e-01
  3.005662e+01    7.471458e-01
  3.007249e+01    7.416137e-01
  3.008837e+01    7.593415e-01
  3.010424e+01    7.518669e-01
  3.012012e+01    7.260920e-01
  3.013600e+01    7.341797e-01
  3.015187e+01    7.332175e-01
  3.016775e+01    7.316430e-01
  3.018362e+01    7.220844e-01
  3.019950e+01    7.250064e-01
  3.021537e+01    7.193722e-01
  3.023125e+01    7.176819e-01
  3.024712e+01    7.389110e-01
  3.026300e+01    7.290578e-01
  3.027888e+01    7.175089e-01
  3.029475e+01    7.090901e-01
  3.031063e+01    7.205902e-01
  3.032650e+01    7.276632e-01
  3.034238e+01    7.373165e-01
  3.035825e+01    7.357880e-01
  3.037413e+01    7.450607e-01
  3.039000e+01    7.332030e-01
  3.040588e+01    7.259613e-01
  3.042176e+01    7.268600e-01
  3.043763e+01    7.369550e-01
  3.045351e+01    7.193758e-01
  3.046938e+01    7.061683e-01
  3.048526e+01    7.304939e-01
  3.050113e+01    7.231414e-01
  3.051701e+01    7.450866e-01
  3.053288e+01    7.414950e-01
  3.054876e+01    7.282513e-01
  3.056464e+01    7.116326e-01
  3.058051e+01    7.174819e-01
  3.059639e+01    7.356149e-01
  3.061226e+01    7.386489e-01
  3.062814e+01    7.143307e-01
  3.064401e+01    7.352087e-01
  3.065989e+01    7.245981e-01
  3.067577e+01    7.147416e-01
  3.069164e+01    7.036089e-01
  3.070752e+01    7.178121e-01
  3.072339e+01    7.271733e-01
  3.073927e+01    7.108585e-01
  3.075514e+01    7.029467e-01
  3.077102e+01    7.332334e-01
  3.078689e+01    7.466159e-01
  3.080277e+01    7.446291e-01
  3.081865e+01    7.214286e-01
  3.083452e+01    7.287581e-01
  3.085040e+01    7.507913e-01
  3.086627e+01    7.232969e-01
  3.088215e+01    7.214147e-01
  3.089802e+01    7.182423e-01
  3.091390e+01    7.216838e-01
  3.092977e+01    7.077061e-01
  3.094565e+01    7.210260e-01
  3.096153e+01    7.274099e-01
  3.097740e+01    7.443374e-01
  3.099328e+01    7.260811e-01
  3.100915e+01    7.079447e-01
  3.102503e+01    7.282951e-01
  3.104090e+01    7.216899e-01
  3.105678e+01    7.321067e-01
  3.107265e+01    7.179183e-01
  3.108853e+01    7.162510e-01
  3.110441e+01    7.472562e-01
  3.112028e+01    7.332276e-01
  3.113616e+01    7.185282e-01
  3.115203e+01    7.333516e-01
  3.116791e+01    7.264212e-01
  3.118378e+01    7.074273e-01
  3.119966e+01    7.417442e-01
  3.121553e+01    7.598803e-01
  3.123141e+01    7.437371e-01
  3.124729e+01    7.428665e-01
  3.126316e+01    7.543019e-01
  3.127904e+01    7.253066e-01
  3.129491e+01    7.214795e-01
  3.131079e+01    7.210935e-01
  3.132666e+01    7.367238e-01
  3.134254e+01    7.627777e-01
  3.135841e+01    7.502714e-01
  3.137429e+01    7.549618e-01
  3.139017e+01    7.527823e-01
  3.140604e+01    7.415595e-01
  3.142192e+01    7.447415e-01
  3.143779e+01    7.606167e-01
  3.145367e+01    7.481527e-01
  3.146954e+01    7.545547e-01
  3.148542e+01    7.573599e-01
  3.150129e+01    7.636474e-01
  3.151717e+01    7.738356e-01
  3.153305e+01    7.963236e-01
  3.154892e+01    7.912804e-01
  3.156480e+01    7.833884e-01
  3.158067e+01    7.968169e-01
  3.159655e+01    7.888432e-01
  3.161242e+01    8.273007e-01
  3.162830e+01    8.378778e-01
  3.164418e+01    8.403198e-01
  3.166005e+01    8.410184e-01
  3.167593e+01    8.679355e-01
  3.169180e+01    9.195209e-01
  3.170768e+01    9.572746e-01
  3.172355e+01    1.006058e+00
  3.173943e+01    1.051174e+00
  3.175530e+01    1.056152e+00
  3.177118e+01    1.089453e+00
  3.178706e+01    1.148894e+00
  3.180293e+01    1.234977e+00
  3.181881e+01    1.340766e+00
  3.183468e+01    1.481118e+00
  3.185056e+01    1.583318e+00
  3.186643e+01    1.745895e+00
  3.188231e+01    1.961580e+00
  3.189818e+01    2.134600e+00
  3.191406e+01    2.324810e+00
  3.192994e+01    2.424432e+00
  3.194581e+01    2.536423e+00
  3.196169e+01    2.540691e+00
  3.197756e+01    2.444141e+00
  3.199344e+01    2.317255e+00
  3.200931e+01    2.148968e+00
  3.202519e+01    1.948042e+00
  3.204106e+01    1.775122e+00
  3.205694e+01    1.573167e+00
  3.207282e+01    1.433496e+00
  3.208869e+01    1.291268e+00
  3.210457e+01    1.192732e+00
  3.212044e+01    1.088844e+00
  3.213632e+01    1.033070e+00
  3.215219e+01    1.030080e+00
  3.216807e+01    9.856247e-01
  3.218394e+01    9.339691e-01
  3.219982e+01    8.977520e-01
  3.221570e+01    8.676318e-01
  3.223157e+01    8.638638e-01
  3.224745e+01    8.497283e-01
  3.226332e+01    8.319674e-01
  3.227920e+01    8.191825e-01
  3.229507e+01    7.985455e-01
  3.231095e+01    7.991386e-01
  3.232682e+01    7.941889e-01
  3.234270e+01    7.969750e-01
  3.235858e+01    7.828973e-01
  3.237445e+01    7.742069e-01
  3.239033e+01    7.781348e-01
  3.240620e+01    7.700658e-01
  3.242208e+01    7.776563e-01
  3.243795e+01    7.567156e-01
  3.245383e+01    7.505844e-01
  3.246970e+01    7.264178e-01
  3.248558e+01    7.233466e-01
  3.250146e+01    7.405638e-01
  3.251733e+01    7.338406e-01
  3.253321e+01    7.509018e-01
  3.254908e+01    7.619820e-01
