# == pyFAI calibration ==
# Distance Sample to Detector: 0.3999999939076516 m
# PONI: 9.750e-02, 1.135e-01 m
# Rotations: -0.000175 0.000000 -0.000000 rad
# 
# == Fit2d calibration ==
# Distance Sample-beamCenter: 400.000 mm
# Center: x=1514.000, y=1300.000 pix
# Tilt: 0.010 deg  TiltPlanRot: 0.010 deg
# 
# Detector Detector	 Spline= None	 PixelSize= 7.500e-05, 7.500e-05 m
#    Detector has a mask: False 
#    Detector has a dark current: False 
#    detector has a flat field: False 
# 
# Wavelength: 6.888e-11 m
# Mask applied: user provided
# Dark current applied: False
# Flat field applied: False
# Polarization factor: 0.99
# Normalization factor: 1.0
# --> /home/myspot/data/2024_07_Rosario/Ru-CGO-ex/2024-07-27_002_Ru-CGO-ex_Activtation_ramp_000002_data_000055.dat
#       q_nm^-1             I 
  2.003187e-02    0.000000e+00
  3.590745e-02    7.159866e-02
  5.178302e-02    4.981937e-02
  6.765859e-02    3.248854e-02
  8.353417e-02    1.551817e-01
  9.940974e-02    1.282079e-01
  1.152853e-01    4.338396e-02
  1.311609e-01    2.671503e-03
  1.470365e-01    3.817253e-02
  1.629120e-01    3.525850e-02
  1.787876e-01    2.469849e-04
  1.946632e-01    2.098427e-02
  2.105388e-01    7.626974e-03
  2.264143e-01    2.936199e-02
  2.422899e-01    2.536620e-02
  2.581655e-01    2.427946e-02
  2.740411e-01    3.519700e-02
  2.899166e-01    4.041730e-02
  3.057922e-01    4.927848e-02
  3.216678e-01    6.322207e-02
  3.375433e-01    4.191621e-02
  3.534189e-01    3.679363e-02
  3.692945e-01    2.968474e-03
  3.851701e-01    4.006355e-02
  4.010456e-01    4.743779e-02
  4.169212e-01    4.881172e-02
  4.327968e-01    6.258765e-02
  4.486724e-01    4.545849e-02
  4.645479e-01    3.845576e-02
  4.804235e-01    3.920858e-02
  4.962991e-01    2.831169e-02
  5.121747e-01    5.878910e-02
  5.280502e-01    5.274732e-02
  5.439258e-01    2.852779e-02
  5.598014e-01    2.346932e-02
  5.756770e-01    2.410388e-02
  5.915525e-01    3.881803e-02
  6.074281e-01    6.424636e-02
  6.233037e-01    4.685795e-02
  6.391793e-01    3.149517e-02
  6.550548e-01    3.579784e-02
  6.709304e-01    5.279284e-02
  6.868060e-01    5.061164e-02
  7.026815e-01    3.158389e-02
  7.185571e-01    3.637947e-02
  7.344327e-01    3.305063e-02
  7.503083e-01    3.638204e-02
  7.661838e-01    8.319178e-02
  7.820594e-01    1.166289e-01
  7.979350e-01    1.447064e-01
  8.138106e-01    1.726366e-01
  8.296861e-01    2.063314e-01
  8.455617e-01    2.914619e-01
  8.614373e-01    3.682497e-01
  8.773129e-01    5.026920e-01
  8.931884e-01    5.159256e-01
  9.090640e-01    4.796326e-01
  9.249396e-01    6.020858e-01
  9.408152e-01    7.442181e-01
  9.566907e-01    8.578414e-01
  9.725663e-01    8.585500e-01
  9.884419e-01    1.028933e+00
  1.004317e+00    1.000218e+00
  1.020193e+00    9.797543e-01
  1.036069e+00    1.158279e+00
  1.051944e+00    1.227765e+00
  1.067820e+00    1.179675e+00
  1.083695e+00    1.251802e+00
  1.099571e+00    1.326007e+00
  1.115446e+00    1.507211e+00
  1.131322e+00    1.383576e+00
  1.147198e+00    1.382603e+00
  1.163073e+00    1.459133e+00
  1.178949e+00    1.582948e+00
  1.194824e+00    1.671313e+00
  1.210700e+00    1.901643e+00
  1.226575e+00    2.221948e+00
  1.242451e+00    2.359439e+00
  1.258327e+00    2.421466e+00
  1.274202e+00    2.473518e+00
  1.290078e+00    2.599783e+00
  1.305953e+00    2.483112e+00
  1.321829e+00    2.614501e+00
  1.337705e+00    2.677224e+00
  1.353580e+00    2.684745e+00
  1.369456e+00    2.532549e+00
  1.385331e+00    2.640056e+00
  1.401207e+00    2.703990e+00
  1.417082e+00    2.700571e+00
  1.432958e+00    2.560023e+00
  1.448834e+00    2.734987e+00
  1.464709e+00    2.993660e+00
  1.480585e+00    2.821965e+00
  1.496460e+00    2.851317e+00
  1.512336e+00    2.887902e+00
  1.528211e+00    2.952397e+00
  1.544087e+00    3.018952e+00
  1.559963e+00    2.974134e+00
  1.575838e+00    3.036870e+00
  1.591714e+00    3.081328e+00
  1.607589e+00    3.222124e+00
  1.623465e+00    3.195330e+00
  1.639340e+00    2.957898e+00
  1.655216e+00    2.937103e+00
  1.671092e+00    3.037617e+00
  1.686967e+00    2.992939e+00
  1.702843e+00    2.995306e+00
  1.718718e+00    2.808308e+00
  1.734594e+00    2.831774e+00
  1.750469e+00    2.794330e+00
  1.766345e+00    2.855500e+00
  1.782221e+00    2.757496e+00
  1.798096e+00    2.751677e+00
  1.813972e+00    2.749003e+00
  1.829847e+00    2.714241e+00
  1.845723e+00    2.765862e+00
  1.861598e+00    2.843212e+00
  1.877474e+00    2.946253e+00
  1.893350e+00    2.916132e+00
  1.909225e+00    2.809602e+00
  1.925101e+00    2.744267e+00
  1.940976e+00    2.726639e+00
  1.956852e+00    2.789903e+00
  1.972727e+00    2.825750e+00
  1.988603e+00    2.875922e+00
  2.004479e+00    2.841080e+00
  2.020354e+00    2.790723e+00
  2.036230e+00    2.781617e+00
  2.052105e+00    2.799751e+00
  2.067981e+00    2.788701e+00
  2.083856e+00    2.733452e+00
  2.099732e+00    2.806314e+00
  2.115608e+00    2.848359e+00
  2.131483e+00    2.798868e+00
  2.147359e+00    2.703195e+00
  2.163234e+00    2.626456e+00
  2.179110e+00    2.781490e+00
  2.194985e+00    2.815039e+00
  2.210861e+00    2.784402e+00
  2.226737e+00    2.841986e+00
  2.242612e+00    2.718086e+00
  2.258488e+00    2.737109e+00
  2.274363e+00    2.794253e+00
  2.290239e+00    2.807169e+00
  2.306115e+00    2.800033e+00
  2.321990e+00    2.767026e+00
  2.337866e+00    2.692852e+00
  2.353741e+00    2.718385e+00
  2.369617e+00    2.843409e+00
  2.385492e+00    2.725423e+00
  2.401368e+00    2.656168e+00
  2.417244e+00    2.677487e+00
  2.433119e+00    2.758483e+00
  2.448995e+00    2.766717e+00
  2.464870e+00    2.830937e+00
  2.480746e+00    2.874740e+00
  2.496621e+00    2.854524e+00
  2.512497e+00    2.765894e+00
  2.528373e+00    2.768458e+00
  2.544248e+00    2.845216e+00
  2.560124e+00    2.750583e+00
  2.575999e+00    2.763363e+00
  2.591875e+00    2.796059e+00
  2.607750e+00    2.875711e+00
  2.623626e+00    2.900698e+00
  2.639502e+00    2.872947e+00
  2.655377e+00    2.886964e+00
  2.671253e+00    2.857918e+00
  2.687128e+00    2.858766e+00
  2.703004e+00    2.970620e+00
  2.718879e+00    2.863350e+00
  2.734755e+00    2.829682e+00
  2.750631e+00    2.795232e+00
  2.766506e+00    2.770377e+00
  2.782382e+00    2.781585e+00
  2.798257e+00    2.788603e+00
  2.814133e+00    2.927232e+00
  2.830008e+00    2.868524e+00
  2.845884e+00    2.884959e+00
  2.861760e+00    2.800088e+00
  2.877635e+00    2.806566e+00
  2.893511e+00    2.851802e+00
  2.909386e+00    2.867566e+00
  2.925262e+00    2.815133e+00
  2.941137e+00    2.832127e+00
  2.957013e+00    2.891312e+00
  2.972889e+00    2.914955e+00
  2.988764e+00    2.961869e+00
  3.004640e+00    2.899408e+00
  3.020515e+00    2.827065e+00
  3.036391e+00    3.003426e+00
  3.052266e+00    2.924263e+00
  3.068142e+00    2.821181e+00
  3.084018e+00    2.859247e+00
  3.099893e+00    2.852766e+00
  3.115769e+00    2.862402e+00
  3.131644e+00    2.874765e+00
  3.147520e+00    2.856376e+00
  3.163395e+00    2.934319e+00
  3.179271e+00    3.045293e+00
  3.195147e+00    3.054071e+00
  3.211022e+00    2.945124e+00
  3.226898e+00    2.967803e+00
  3.242773e+00    2.857305e+00
  3.258649e+00    2.956388e+00
  3.274525e+00    2.949785e+00
  3.290400e+00    2.910969e+00
  3.306276e+00    2.923738e+00
  3.322151e+00    2.950410e+00
  3.338027e+00    2.997133e+00
  3.353902e+00    2.945077e+00
  3.369778e+00    2.943852e+00
  3.385654e+00    2.951108e+00
  3.401529e+00    2.964574e+00
  3.417405e+00    3.022305e+00
  3.433280e+00    3.036812e+00
  3.449156e+00    2.943101e+00
  3.465031e+00    2.943068e+00
  3.480907e+00    2.914083e+00
  3.496783e+00    3.031290e+00
  3.512658e+00    3.021749e+00
  3.528534e+00    3.013357e+00
  3.544409e+00    2.963880e+00
  3.560285e+00    2.918907e+00
  3.576160e+00    2.890976e+00
  3.592036e+00    2.907502e+00
  3.607912e+00    3.000764e+00
  3.623787e+00    3.018819e+00
  3.639663e+00    3.058962e+00
  3.655538e+00    3.082634e+00
  3.671414e+00    3.063533e+00
  3.687289e+00    2.979054e+00
  3.703165e+00    3.054865e+00
  3.719041e+00    2.998309e+00
  3.734916e+00    2.954622e+00
  3.750792e+00    3.040489e+00
  3.766667e+00    3.014936e+00
  3.782543e+00    2.964890e+00
  3.798418e+00    2.989079e+00
  3.814294e+00    2.993568e+00
  3.830170e+00    3.060001e+00
  3.846045e+00    3.033890e+00
  3.861921e+00    3.037152e+00
  3.877796e+00    3.000529e+00
  3.893672e+00    2.983104e+00
  3.909547e+00    3.032888e+00
  3.925423e+00    2.956532e+00
  3.941299e+00    2.985879e+00
  3.957174e+00    3.132583e+00
  3.973050e+00    3.118458e+00
  3.988925e+00    3.036613e+00
  4.004801e+00    3.100098e+00
  4.020676e+00    3.166650e+00
  4.036552e+00    3.087121e+00
  4.052428e+00    3.015065e+00
  4.068303e+00    2.956727e+00
  4.084179e+00    2.986678e+00
  4.100054e+00    3.019300e+00
  4.115930e+00    3.101541e+00
  4.131806e+00    3.094613e+00
  4.147681e+00    3.058149e+00
  4.163557e+00    3.094290e+00
  4.179432e+00    3.057756e+00
  4.195308e+00    3.055231e+00
  4.211183e+00    3.115993e+00
  4.227059e+00    3.166687e+00
  4.242935e+00    3.054141e+00
  4.258810e+00    2.996644e+00
  4.274686e+00    3.011227e+00
  4.290561e+00    3.047317e+00
  4.306437e+00    3.047127e+00
  4.322312e+00    2.946381e+00
  4.338188e+00    3.022349e+00
  4.354064e+00    3.011804e+00
  4.369939e+00    2.991859e+00
  4.385815e+00    2.988595e+00
  4.401690e+00    3.026089e+00
  4.417566e+00    3.035889e+00
  4.433441e+00    3.080797e+00
  4.449317e+00    3.103900e+00
  4.465193e+00    3.101856e+00
  4.481068e+00    3.069521e+00
  4.496944e+00    3.002985e+00
  4.512819e+00    3.105073e+00
  4.528695e+00    3.168635e+00
  4.544570e+00    3.221551e+00
  4.560446e+00    3.094302e+00
  4.576322e+00    3.061502e+00
  4.592197e+00    3.057016e+00
  4.608073e+00    3.122243e+00
  4.623948e+00    3.101065e+00
  4.639824e+00    3.090070e+00
  4.655699e+00    3.074316e+00
  4.671575e+00    3.036044e+00
  4.687451e+00    3.052176e+00
  4.703326e+00    3.138473e+00
  4.719202e+00    3.181837e+00
  4.735077e+00    3.083359e+00
  4.750953e+00    3.093823e+00
  4.766828e+00    3.151922e+00
  4.782704e+00    3.166780e+00
  4.798580e+00    3.159936e+00
  4.814455e+00    3.088722e+00
  4.830331e+00    3.143330e+00
  4.846206e+00    3.062263e+00
  4.862082e+00    3.118405e+00
  4.877957e+00    3.193254e+00
  4.893833e+00    3.138669e+00
  4.909709e+00    3.077048e+00
  4.925584e+00    3.138469e+00
  4.941460e+00    3.171627e+00
  4.957335e+00    3.152766e+00
  4.973211e+00    3.170363e+00
  4.989086e+00    3.079794e+00
  5.004962e+00    3.129287e+00
  5.020838e+00    3.085978e+00
  5.036713e+00    3.153685e+00
  5.052589e+00    3.160751e+00
  5.068464e+00    3.141881e+00
  5.084340e+00    3.139030e+00
  5.100216e+00    3.104262e+00
  5.116091e+00    3.092083e+00
  5.131967e+00    3.166504e+00
  5.147842e+00    3.149943e+00
  5.163718e+00    3.114161e+00
  5.179593e+00    3.189747e+00
  5.195469e+00    3.208103e+00
  5.211345e+00    3.086065e+00
  5.227220e+00    3.091402e+00
  5.243096e+00    3.147941e+00
  5.258971e+00    3.108837e+00
  5.274847e+00    3.162228e+00
  5.290722e+00    3.172169e+00
  5.306598e+00    3.171670e+00
  5.322474e+00    3.114649e+00
  5.338349e+00    3.147864e+00
  5.354225e+00    3.106127e+00
  5.370100e+00    3.136050e+00
  5.385976e+00    3.075273e+00
  5.401851e+00    3.141602e+00
  5.417727e+00    3.157116e+00
  5.433603e+00    3.110742e+00
  5.449478e+00    3.106974e+00
  5.465354e+00    3.048240e+00
  5.481229e+00    3.027904e+00
  5.497105e+00    2.975435e+00
  5.512980e+00    3.043015e+00
  5.528856e+00    3.143988e+00
  5.544732e+00    3.171695e+00
  5.560607e+00    3.188943e+00
  5.576483e+00    3.120855e+00
  5.592358e+00    3.114079e+00
  5.608234e+00    3.081918e+00
  5.624109e+00    3.082576e+00
  5.639985e+00    3.066671e+00
  5.655861e+00    3.057740e+00
  5.671736e+00    3.116880e+00
  5.687612e+00    3.083169e+00
  5.703487e+00    3.045075e+00
  5.719363e+00    3.023258e+00
  5.735238e+00    2.999006e+00
  5.751114e+00    3.013708e+00
  5.766990e+00    3.023834e+00
  5.782865e+00    3.005770e+00
  5.798741e+00    3.089435e+00
  5.814616e+00    3.100530e+00
  5.830492e+00    2.965258e+00
  5.846367e+00    2.961744e+00
  5.862243e+00    3.028120e+00
  5.878119e+00    3.091574e+00
  5.893994e+00    3.076094e+00
  5.909870e+00    3.020633e+00
  5.925745e+00    3.078918e+00
  5.941621e+00    3.001470e+00
  5.957497e+00    3.005937e+00
  5.973372e+00    2.990751e+00
  5.989248e+00    3.032940e+00
  6.005123e+00    3.078048e+00
  6.020999e+00    3.019662e+00
  6.036874e+00    2.997707e+00
  6.052750e+00    3.031985e+00
  6.068626e+00    2.983128e+00
  6.084501e+00    3.045590e+00
  6.100377e+00    3.087524e+00
  6.116252e+00    3.126735e+00
  6.132128e+00    3.030892e+00
  6.148003e+00    3.054094e+00
  6.163879e+00    3.087855e+00
  6.179755e+00    3.034869e+00
  6.195630e+00    3.108666e+00
  6.211506e+00    3.202994e+00
  6.227381e+00    3.096985e+00
  6.243257e+00    3.108584e+00
  6.259132e+00    3.136761e+00
  6.275008e+00    3.077885e+00
  6.290884e+00    3.079960e+00
  6.306759e+00    3.052099e+00
  6.322635e+00    3.001675e+00
  6.338510e+00    3.031557e+00
  6.354386e+00    3.060315e+00
  6.370261e+00    3.074008e+00
  6.386137e+00    3.001816e+00
  6.402013e+00    2.972580e+00
  6.417888e+00    3.034994e+00
  6.433764e+00    3.091207e+00
  6.449639e+00    3.040118e+00
  6.465515e+00    3.102572e+00
  6.481390e+00    3.073811e+00
  6.497266e+00    3.050002e+00
  6.513142e+00    3.022541e+00
  6.529017e+00    3.040876e+00
  6.544893e+00    3.054471e+00
  6.560768e+00    3.097724e+00
  6.576644e+00    3.049217e+00
  6.592519e+00    3.042891e+00
  6.608395e+00    3.033805e+00
  6.624271e+00    3.050003e+00
  6.640146e+00    2.997964e+00
  6.656022e+00    3.020809e+00
  6.671897e+00    3.114375e+00
  6.687773e+00    3.104406e+00
  6.703648e+00    3.052609e+00
  6.719524e+00    3.030657e+00
  6.735400e+00    3.024056e+00
  6.751275e+00    3.075249e+00
  6.767151e+00    3.072628e+00
  6.783026e+00    3.019152e+00
  6.798902e+00    3.018526e+00
  6.814777e+00    3.015775e+00
  6.830653e+00    2.988978e+00
  6.846529e+00    3.062850e+00
  6.862404e+00    3.092646e+00
  6.878280e+00    2.982201e+00
  6.894155e+00    2.989539e+00
  6.910031e+00    3.057159e+00
  6.925907e+00    2.988166e+00
  6.941782e+00    3.013580e+00
  6.957658e+00    3.099945e+00
  6.973533e+00    2.953075e+00
  6.989409e+00    2.927664e+00
  7.005284e+00    3.015115e+00
  7.021160e+00    3.014378e+00
  7.037036e+00    2.967947e+00
  7.052911e+00    3.017738e+00
  7.068787e+00    3.059832e+00
  7.084662e+00    3.026643e+00
  7.100538e+00    3.020663e+00
  7.116413e+00    3.052416e+00
  7.132289e+00    3.067663e+00
  7.148165e+00    3.090321e+00
  7.164040e+00    3.039028e+00
  7.179916e+00    2.983701e+00
  7.195791e+00    3.024605e+00
  7.211667e+00    3.044436e+00
  7.227542e+00    3.063528e+00
  7.243418e+00    3.045878e+00
  7.259294e+00    3.014547e+00
  7.275169e+00    2.984177e+00
  7.291045e+00    2.990795e+00
  7.306920e+00    2.940366e+00
  7.322796e+00    2.963010e+00
  7.338671e+00    2.986713e+00
  7.354547e+00    2.980727e+00
  7.370423e+00    3.024325e+00
  7.386298e+00    3.014421e+00
  7.402174e+00    2.945097e+00
  7.418049e+00    3.008449e+00
  7.433925e+00    2.987516e+00
  7.449800e+00    2.969517e+00
  7.465676e+00    2.967721e+00
  7.481552e+00    2.976021e+00
  7.497427e+00    2.943845e+00
  7.513303e+00    2.981520e+00
  7.529178e+00    3.001131e+00
  7.545054e+00    3.000968e+00
  7.560929e+00    2.947684e+00
  7.576805e+00    2.992182e+00
  7.592681e+00    2.981593e+00
  7.608556e+00    2.984960e+00
  7.624432e+00    3.011267e+00
  7.640307e+00    2.936180e+00
  7.656183e+00    3.002090e+00
  7.672058e+00    3.037930e+00
  7.687934e+00    2.942550e+00
  7.703810e+00    2.925049e+00
  7.719685e+00    2.994843e+00
  7.735561e+00    2.932888e+00
  7.751436e+00    2.988601e+00
  7.767312e+00    2.929011e+00
  7.783187e+00    2.919419e+00
  7.799063e+00    2.981602e+00
  7.814939e+00    2.992571e+00
  7.830814e+00    2.941816e+00
  7.846690e+00    2.877103e+00
  7.862565e+00    2.935899e+00
  7.878441e+00    2.908453e+00
  7.894317e+00    2.966194e+00
  7.910192e+00    2.931444e+00
  7.926068e+00    2.906444e+00
  7.941943e+00    2.966326e+00
  7.957819e+00    2.897387e+00
  7.973694e+00    2.937082e+00
  7.989570e+00    2.961365e+00
  8.005446e+00    2.958291e+00
  8.021321e+00    3.017312e+00
  8.037197e+00    2.959030e+00
  8.053072e+00    2.983785e+00
  8.068948e+00    2.947430e+00
  8.084823e+00    2.920908e+00
  8.100699e+00    2.967545e+00
  8.116575e+00    2.938044e+00
  8.132450e+00    2.934768e+00
  8.148326e+00    2.931835e+00
  8.164201e+00    2.984757e+00
  8.180077e+00    2.992101e+00
  8.195952e+00    2.928051e+00
  8.211828e+00    2.909593e+00
  8.227704e+00    2.934026e+00
  8.243579e+00    2.974409e+00
  8.259455e+00    2.974258e+00
  8.275330e+00    2.965031e+00
  8.291206e+00    2.899442e+00
  8.307081e+00    2.930250e+00
  8.322957e+00    2.954627e+00
  8.338833e+00    2.899568e+00
  8.354708e+00    2.847856e+00
  8.370584e+00    2.909283e+00
  8.386459e+00    2.915094e+00
  8.402335e+00    2.858167e+00
  8.418210e+00    2.880736e+00
  8.434086e+00    2.891626e+00
  8.449962e+00    2.924932e+00
  8.465837e+00    2.946376e+00
  8.481713e+00    2.889011e+00
  8.497588e+00    2.909884e+00
  8.513464e+00    2.884471e+00
  8.529339e+00    2.864197e+00
  8.545215e+00    2.887927e+00
  8.561091e+00    2.884413e+00
  8.576966e+00    2.838636e+00
  8.592842e+00    2.922521e+00
  8.608717e+00    2.899918e+00
  8.624593e+00    2.867746e+00
  8.640468e+00    2.851003e+00
  8.656344e+00    2.847449e+00
  8.672220e+00    2.863963e+00
  8.688095e+00    2.869872e+00
  8.703971e+00    2.888458e+00
  8.719846e+00    2.855136e+00
  8.735722e+00    2.858312e+00
  8.751598e+00    2.857322e+00
  8.767473e+00    2.927137e+00
  8.783349e+00    2.892835e+00
  8.799224e+00    2.891740e+00
  8.815100e+00    2.860537e+00
  8.830975e+00    2.830078e+00
  8.846851e+00    2.832702e+00
  8.862727e+00    2.825922e+00
  8.878602e+00    2.862245e+00
  8.894478e+00    2.881615e+00
  8.910353e+00    2.841232e+00
  8.926229e+00    2.880790e+00
  8.942104e+00    2.843372e+00
  8.957980e+00    2.792706e+00
  8.973856e+00    2.809020e+00
  8.989731e+00    2.748938e+00
  9.005607e+00    2.858889e+00
  9.021482e+00    2.848584e+00
  9.037358e+00    2.764307e+00
  9.053233e+00    2.774857e+00
  9.069109e+00    2.807323e+00
  9.084985e+00    2.766139e+00
  9.100860e+00    2.741640e+00
  9.116736e+00    2.744509e+00
  9.132611e+00    2.786077e+00
  9.148487e+00    2.729758e+00
  9.164362e+00    2.790484e+00
  9.180238e+00    2.793727e+00
  9.196114e+00    2.794793e+00
  9.211989e+00    2.818551e+00
  9.227865e+00    2.805312e+00
  9.243740e+00    2.757957e+00
  9.259616e+00    2.766401e+00
  9.275491e+00    2.821517e+00
  9.291367e+00    2.834550e+00
  9.307243e+00    2.801579e+00
  9.323118e+00    2.751334e+00
  9.338994e+00    2.791516e+00
  9.354869e+00    2.767763e+00
  9.370745e+00    2.810795e+00
  9.386620e+00    2.807926e+00
  9.402496e+00    2.736046e+00
  9.418372e+00    2.754591e+00
  9.434247e+00    2.797927e+00
  9.450123e+00    2.827346e+00
  9.465998e+00    2.756222e+00
  9.481874e+00    2.721098e+00
  9.497749e+00    2.737850e+00
  9.513625e+00    2.777006e+00
  9.529501e+00    2.736130e+00
  9.545376e+00    2.731870e+00
  9.561252e+00    2.779691e+00
  9.577127e+00    2.745290e+00
  9.593003e+00    2.725937e+00
  9.608878e+00    2.795045e+00
  9.624754e+00    2.772276e+00
  9.640630e+00    2.773411e+00
  9.656505e+00    2.759152e+00
  9.672381e+00    2.754640e+00
  9.688256e+00    2.765129e+00
  9.704132e+00    2.762914e+00
  9.720008e+00    2.799412e+00
  9.735883e+00    2.790138e+00
  9.751759e+00    2.735590e+00
  9.767634e+00    2.695339e+00
  9.783510e+00    2.695904e+00
  9.799385e+00    2.655713e+00
  9.815261e+00    2.727499e+00
  9.831137e+00    2.698911e+00
  9.847012e+00    2.723804e+00
  9.862888e+00    2.711437e+00
  9.878763e+00    2.648929e+00
  9.894639e+00    2.659475e+00
  9.910514e+00    2.672150e+00
  9.926390e+00    2.674752e+00
  9.942266e+00    2.669289e+00
  9.958141e+00    2.585726e+00
  9.974017e+00    2.639573e+00
  9.989892e+00    2.715886e+00
  1.000577e+01    2.646976e+00
  1.002164e+01    2.632944e+00
  1.003752e+01    2.675620e+00
  1.005339e+01    2.663194e+00
  1.006927e+01    2.666106e+00
  1.008515e+01    2.683975e+00
  1.010102e+01    2.663446e+00
  1.011690e+01    2.692430e+00
  1.013277e+01    2.677719e+00
  1.014865e+01    2.672901e+00
  1.016452e+01    2.733701e+00
  1.018040e+01    2.650747e+00
  1.019627e+01    2.654045e+00
  1.021215e+01    2.659298e+00
  1.022803e+01    2.637065e+00
  1.024390e+01    2.665114e+00
  1.025978e+01    2.710993e+00
  1.027565e+01    2.665210e+00
  1.029153e+01    2.645795e+00
  1.030740e+01    2.695176e+00
  1.032328e+01    2.680020e+00
  1.033915e+01    2.617804e+00
  1.035503e+01    2.629499e+00
  1.037091e+01    2.649373e+00
  1.038678e+01    2.669188e+00
  1.040266e+01    2.590506e+00
  1.041853e+01    2.629977e+00
  1.043441e+01    2.626840e+00
  1.045028e+01    2.567704e+00
  1.046616e+01    2.576250e+00
  1.048204e+01    2.602188e+00
  1.049791e+01    2.629344e+00
  1.051379e+01    2.649945e+00
  1.052966e+01    2.624899e+00
  1.054554e+01    2.574106e+00
  1.056141e+01    2.569420e+00
  1.057729e+01    2.603988e+00
  1.059316e+01    2.628681e+00
  1.060904e+01    2.604470e+00
  1.062492e+01    2.575125e+00
  1.064079e+01    2.595544e+00
  1.065667e+01    2.601239e+00
  1.067254e+01    2.567631e+00
  1.068842e+01    2.531071e+00
  1.070429e+01    2.578570e+00
  1.072017e+01    2.559751e+00
  1.073604e+01    2.557772e+00
  1.075192e+01    2.606560e+00
  1.076780e+01    2.606354e+00
  1.078367e+01    2.595336e+00
  1.079955e+01    2.542490e+00
  1.081542e+01    2.549564e+00
  1.083130e+01    2.572547e+00
  1.084717e+01    2.560922e+00
  1.086305e+01    2.554557e+00
  1.087892e+01    2.537381e+00
  1.089480e+01    2.524048e+00
  1.091068e+01    2.499260e+00
  1.092655e+01    2.506167e+00
  1.094243e+01    2.542129e+00
  1.095830e+01    2.501070e+00
  1.097418e+01    2.515384e+00
  1.099005e+01    2.499155e+00
  1.100593e+01    2.496920e+00
  1.102180e+01    2.469177e+00
  1.103768e+01    2.493918e+00
  1.105356e+01    2.505497e+00
  1.106943e+01    2.475829e+00
  1.108531e+01    2.460690e+00
  1.110118e+01    2.490825e+00
  1.111706e+01    2.494945e+00
  1.113293e+01    2.483370e+00
  1.114881e+01    2.498293e+00
  1.116468e+01    2.491982e+00
  1.118056e+01    2.430283e+00
  1.119644e+01    2.487978e+00
  1.121231e+01    2.484574e+00
  1.122819e+01    2.429328e+00
  1.124406e+01    2.429348e+00
  1.125994e+01    2.459965e+00
  1.127581e+01    2.457557e+00
  1.129169e+01    2.425387e+00
  1.130756e+01    2.437915e+00
  1.132344e+01    2.501699e+00
  1.133932e+01    2.498842e+00
  1.135519e+01    2.409139e+00
  1.137107e+01    2.383025e+00
  1.138694e+01    2.410929e+00
  1.140282e+01    2.439565e+00
  1.141869e+01    2.468102e+00
  1.143457e+01    2.408935e+00
  1.145045e+01    2.425129e+00
  1.146632e+01    2.433033e+00
  1.148220e+01    2.421284e+00
  1.149807e+01    2.428361e+00
  1.151395e+01    2.430453e+00
  1.152982e+01    2.436862e+00
  1.154570e+01    2.428621e+00
  1.156157e+01    2.403175e+00
  1.157745e+01    2.387582e+00
  1.159333e+01    2.402166e+00
  1.160920e+01    2.420604e+00
  1.162508e+01    2.384807e+00
  1.164095e+01    2.397627e+00
  1.165683e+01    2.390023e+00
  1.167270e+01    2.390363e+00
  1.168858e+01    2.368628e+00
  1.170445e+01    2.389461e+00
  1.172033e+01    2.392272e+00
  1.173621e+01    2.352736e+00
  1.175208e+01    2.370991e+00
  1.176796e+01    2.391213e+00
  1.178383e+01    2.379418e+00
  1.179971e+01    2.407770e+00
  1.181558e+01    2.390734e+00
  1.183146e+01    2.359530e+00
  1.184733e+01    2.346907e+00
  1.186321e+01    2.373271e+00
  1.187909e+01    2.362394e+00
  1.189496e+01    2.329444e+00
  1.191084e+01    2.339536e+00
  1.192671e+01    2.335958e+00
  1.194259e+01    2.317226e+00
  1.195846e+01    2.292134e+00
  1.197434e+01    2.307239e+00
  1.199021e+01    2.376167e+00
  1.200609e+01    2.385937e+00
  1.202197e+01    2.402864e+00
  1.203784e+01    2.374611e+00
  1.205372e+01    2.324138e+00
  1.206959e+01    2.362628e+00
  1.208547e+01    2.330944e+00
  1.210134e+01    2.320924e+00
  1.211722e+01    2.304936e+00
  1.213309e+01    2.291097e+00
  1.214897e+01    2.302140e+00
  1.216485e+01    2.279475e+00
  1.218072e+01    2.311149e+00
  1.219660e+01    2.332700e+00
  1.221247e+01    2.263750e+00
  1.222835e+01    2.289795e+00
  1.224422e+01    2.317693e+00
  1.226010e+01    2.321112e+00
  1.227597e+01    2.357099e+00
  1.229185e+01    2.349658e+00
  1.230773e+01    2.318042e+00
  1.232360e+01    2.348908e+00
  1.233948e+01    2.362914e+00
  1.235535e+01    2.365172e+00
  1.237123e+01    2.381880e+00
  1.238710e+01    2.339626e+00
  1.240298e+01    2.332257e+00
  1.241886e+01    2.376513e+00
  1.243473e+01    2.358583e+00
  1.245061e+01    2.357568e+00
  1.246648e+01    2.341721e+00
  1.248236e+01    2.365452e+00
  1.249823e+01    2.343273e+00
  1.251411e+01    2.329896e+00
  1.252998e+01    2.355469e+00
  1.254586e+01    2.352168e+00
  1.256174e+01    2.360983e+00
  1.257761e+01    2.366191e+00
  1.259349e+01    2.415285e+00
  1.260936e+01    2.427645e+00
  1.262524e+01    2.389857e+00
  1.264111e+01    2.418167e+00
  1.265699e+01    2.432173e+00
  1.267286e+01    2.476206e+00
  1.268874e+01    2.481760e+00
  1.270462e+01    2.485203e+00
  1.272049e+01    2.530834e+00
  1.273637e+01    2.541188e+00
  1.275224e+01    2.555169e+00
  1.276812e+01    2.571464e+00
  1.278399e+01    2.618017e+00
  1.279987e+01    2.652596e+00
  1.281574e+01    2.725004e+00
  1.283162e+01    2.786714e+00
  1.284750e+01    2.854135e+00
  1.286337e+01    2.927437e+00
  1.287925e+01    3.056914e+00
  1.289512e+01    3.200626e+00
  1.291100e+01    3.299505e+00
  1.292687e+01    3.462126e+00
  1.294275e+01    3.654638e+00
  1.295862e+01    3.951047e+00
  1.297450e+01    4.269561e+00
  1.299038e+01    4.689821e+00
  1.300625e+01    5.214177e+00
  1.302213e+01    5.944947e+00
  1.303800e+01    6.838449e+00
  1.305388e+01    7.917596e+00
  1.306975e+01    9.218499e+00
  1.308563e+01    1.057314e+01
  1.310150e+01    1.210845e+01
  1.311738e+01    1.357483e+01
  1.313326e+01    1.506370e+01
  1.314913e+01    1.649517e+01
  1.316501e+01    1.776277e+01
  1.318088e+01    1.868745e+01
  1.319676e+01    1.904208e+01
  1.321263e+01    1.853783e+01
  1.322851e+01    1.706251e+01
  1.324438e+01    1.483204e+01
  1.326026e+01    1.259160e+01
  1.327614e+01    1.055669e+01
  1.329201e+01    8.939983e+00
  1.330789e+01    7.575963e+00
  1.332376e+01    6.530516e+00
  1.333964e+01    5.690183e+00
  1.335551e+01    5.036810e+00
  1.337139e+01    4.642151e+00
  1.338727e+01    4.236178e+00
  1.340314e+01    3.856966e+00
  1.341902e+01    3.593797e+00
  1.343489e+01    3.375697e+00
  1.345077e+01    3.212006e+00
  1.346664e+01    3.117940e+00
  1.348252e+01    2.975100e+00
  1.349839e+01    2.867570e+00
  1.351427e+01    2.775865e+00
  1.353015e+01    2.729843e+00
  1.354602e+01    2.645535e+00
  1.356190e+01    2.599838e+00
  1.357777e+01    2.618098e+00
  1.359365e+01    2.523125e+00
  1.360952e+01    2.458474e+00
  1.362540e+01    2.466577e+00
  1.364127e+01    2.419302e+00
  1.365715e+01    2.336213e+00
  1.367303e+01    2.290847e+00
  1.368890e+01    2.271609e+00
  1.370478e+01    2.255067e+00
  1.372065e+01    2.280012e+00
  1.373653e+01    2.301066e+00
  1.375240e+01    2.258521e+00
  1.376828e+01    2.207318e+00
  1.378415e+01    2.188416e+00
  1.380003e+01    2.180836e+00
  1.381591e+01    2.123132e+00
  1.383178e+01    2.168164e+00
  1.384766e+01    2.146891e+00
  1.386353e+01    2.156973e+00
  1.387941e+01    2.151193e+00
  1.389528e+01    2.177367e+00
  1.391116e+01    2.172083e+00
  1.392703e+01    2.124042e+00
  1.394291e+01    2.087377e+00
  1.395879e+01    2.086841e+00
  1.397466e+01    2.045815e+00
  1.399054e+01    2.033020e+00
  1.400641e+01    2.073259e+00
  1.402229e+01    2.057652e+00
  1.403816e+01    2.080132e+00
  1.405404e+01    2.046823e+00
  1.406991e+01    2.038664e+00
  1.408579e+01    2.039275e+00
  1.410167e+01    2.038620e+00
  1.411754e+01    2.025122e+00
  1.413342e+01    2.021483e+00
  1.414929e+01    2.005583e+00
  1.416517e+01    2.021200e+00
  1.418104e+01    2.028700e+00
  1.419692e+01    2.025040e+00
  1.421279e+01    2.000409e+00
  1.422867e+01    1.964242e+00
  1.424455e+01    1.976757e+00
  1.426042e+01    1.988987e+00
  1.427630e+01    1.961385e+00
  1.429217e+01    1.954639e+00
  1.430805e+01    1.985298e+00
  1.432392e+01    1.931227e+00
  1.433980e+01    1.887909e+00
  1.435568e+01    1.943498e+00
  1.437155e+01    1.921768e+00
  1.438743e+01    1.905901e+00
  1.440330e+01    1.992455e+00
  1.441918e+01    1.998345e+00
  1.443505e+01    1.986965e+00
  1.445093e+01    1.977504e+00
  1.446680e+01    1.947273e+00
  1.448268e+01    1.921995e+00
  1.449856e+01    1.917002e+00
  1.451443e+01    1.951608e+00
  1.453031e+01    1.951054e+00
  1.454618e+01    1.922058e+00
  1.456206e+01    1.927953e+00
  1.457793e+01    1.939519e+00
  1.459381e+01    1.952971e+00
  1.460968e+01    1.929777e+00
  1.462556e+01    1.928257e+00
  1.464144e+01    1.964993e+00
  1.465731e+01    1.937138e+00
  1.467319e+01    1.890709e+00
  1.468906e+01    1.942724e+00
  1.470494e+01    1.905760e+00
  1.472081e+01    1.899776e+00
  1.473669e+01    1.920349e+00
  1.475256e+01    1.896394e+00
  1.476844e+01    1.895677e+00
  1.478432e+01    1.932960e+00
  1.480019e+01    1.941894e+00
  1.481607e+01    1.930514e+00
  1.483194e+01    1.932305e+00
  1.484782e+01    1.937119e+00
  1.486369e+01    1.956935e+00
  1.487957e+01    1.957929e+00
  1.489544e+01    1.935977e+00
  1.491132e+01    1.973085e+00
  1.492720e+01    1.972461e+00
  1.494307e+01    1.982069e+00
  1.495895e+01    2.027678e+00
  1.497482e+01    2.042704e+00
  1.499070e+01    2.055847e+00
  1.500657e+01    2.101748e+00
  1.502245e+01    2.181680e+00
  1.503832e+01    2.282057e+00
  1.505420e+01    2.390822e+00
  1.507008e+01    2.435430e+00
  1.508595e+01    2.603294e+00
  1.510183e+01    2.824666e+00
  1.511770e+01    3.039866e+00
  1.513358e+01    3.277376e+00
  1.514945e+01    3.676244e+00
  1.516533e+01    4.088733e+00
  1.518120e+01    4.475222e+00
  1.519708e+01    4.963127e+00
  1.521296e+01    5.379115e+00
  1.522883e+01    5.612242e+00
  1.524471e+01    5.933053e+00
  1.526058e+01    6.250749e+00
  1.527646e+01    6.401654e+00
  1.529233e+01    6.357330e+00
  1.530821e+01    6.212347e+00
  1.532409e+01    5.831898e+00
  1.533996e+01    5.239400e+00
  1.535584e+01    4.643461e+00
  1.537171e+01    4.017070e+00
  1.538759e+01    3.605464e+00
  1.540346e+01    3.223997e+00
  1.541934e+01    2.913543e+00
  1.543521e+01    2.728205e+00
  1.545109e+01    2.537280e+00
  1.546697e+01    2.448998e+00
  1.548284e+01    2.284710e+00
  1.549872e+01    2.207802e+00
  1.551459e+01    2.156922e+00
  1.553047e+01    2.095078e+00
  1.554634e+01    2.013987e+00
  1.556222e+01    1.965089e+00
  1.557809e+01    1.916571e+00
  1.559397e+01    1.883200e+00
  1.560985e+01    1.859389e+00
  1.562572e+01    1.876620e+00
  1.564160e+01    1.831826e+00
  1.565747e+01    1.817724e+00
  1.567335e+01    1.803028e+00
  1.568922e+01    1.772704e+00
  1.570510e+01    1.756423e+00
  1.572097e+01    1.741713e+00
  1.573685e+01    1.762818e+00
  1.575273e+01    1.735415e+00
  1.576860e+01    1.716170e+00
  1.578448e+01    1.707597e+00
  1.580035e+01    1.699175e+00
  1.581623e+01    1.683669e+00
  1.583210e+01    1.680327e+00
  1.584798e+01    1.673384e+00
  1.586385e+01    1.686169e+00
  1.587973e+01    1.677890e+00
  1.589561e+01    1.676465e+00
  1.591148e+01    1.693359e+00
  1.592736e+01    1.673964e+00
  1.594323e+01    1.643976e+00
  1.595911e+01    1.635383e+00
  1.597498e+01    1.631891e+00
  1.599086e+01    1.648305e+00
  1.600673e+01    1.654857e+00
  1.602261e+01    1.639423e+00
  1.603849e+01    1.661645e+00
  1.605436e+01    1.639898e+00
  1.607024e+01    1.627510e+00
  1.608611e+01    1.611892e+00
  1.610199e+01    1.580903e+00
  1.611786e+01    1.605689e+00
  1.613374e+01    1.624404e+00
  1.614961e+01    1.603988e+00
  1.616549e+01    1.562400e+00
  1.618137e+01    1.563892e+00
  1.619724e+01    1.575216e+00
  1.621312e+01    1.555451e+00
  1.622899e+01    1.551597e+00
  1.624487e+01    1.591641e+00
  1.626074e+01    1.546379e+00
  1.627662e+01    1.537886e+00
  1.629250e+01    1.533426e+00
  1.630837e+01    1.544357e+00
  1.632425e+01    1.532747e+00
  1.634012e+01    1.533855e+00
  1.635600e+01    1.569679e+00
  1.637187e+01    1.545344e+00
  1.638775e+01    1.539777e+00
  1.640362e+01    1.546130e+00
  1.641950e+01    1.579701e+00
  1.643538e+01    1.546811e+00
  1.645125e+01    1.540107e+00
  1.646713e+01    1.546943e+00
  1.648300e+01    1.503608e+00
  1.649888e+01    1.548582e+00
  1.651475e+01    1.526765e+00
  1.653063e+01    1.502673e+00
  1.654650e+01    1.536373e+00
  1.656238e+01    1.542578e+00
  1.657826e+01    1.509194e+00
  1.659413e+01    1.494128e+00
  1.661001e+01    1.508379e+00
  1.662588e+01    1.517118e+00
  1.664176e+01    1.504256e+00
  1.665763e+01    1.498826e+00
  1.667351e+01    1.474340e+00
  1.668938e+01    1.466797e+00
  1.670526e+01    1.472766e+00
  1.672114e+01    1.492616e+00
  1.673701e+01    1.483182e+00
  1.675289e+01    1.470105e+00
  1.676876e+01    1.460351e+00
  1.678464e+01    1.467945e+00
  1.680051e+01    1.482986e+00
  1.681639e+01    1.464885e+00
  1.683226e+01    1.486841e+00
  1.684814e+01    1.491627e+00
  1.686402e+01    1.444232e+00
  1.687989e+01    1.427761e+00
  1.689577e+01    1.453569e+00
  1.691164e+01    1.451068e+00
  1.692752e+01    1.461990e+00
  1.694339e+01    1.469321e+00
  1.695927e+01    1.435951e+00
  1.697514e+01    1.467666e+00
  1.699102e+01    1.438612e+00
  1.700690e+01    1.459946e+00
  1.702277e+01    1.460546e+00
  1.703865e+01    1.460975e+00
  1.705452e+01    1.440396e+00
  1.707040e+01    1.441123e+00
  1.708627e+01    1.419828e+00
  1.710215e+01    1.411778e+00
  1.711802e+01    1.413977e+00
  1.713390e+01    1.399274e+00
  1.714978e+01    1.376217e+00
  1.716565e+01    1.410757e+00
  1.718153e+01    1.447023e+00
  1.719740e+01    1.438698e+00
  1.721328e+01    1.412653e+00
  1.722915e+01    1.421744e+00
  1.724503e+01    1.405448e+00
  1.726091e+01    1.400858e+00
  1.727678e+01    1.411440e+00
  1.729266e+01    1.408707e+00
  1.730853e+01    1.392603e+00
  1.732441e+01    1.377489e+00
  1.734028e+01    1.388873e+00
  1.735616e+01    1.381290e+00
  1.737203e+01    1.407291e+00
  1.738791e+01    1.366454e+00
  1.740379e+01    1.367278e+00
  1.741966e+01    1.366266e+00
  1.743554e+01    1.373620e+00
  1.745141e+01    1.376156e+00
  1.746729e+01    1.359735e+00
  1.748316e+01    1.351447e+00
  1.749904e+01    1.367546e+00
  1.751491e+01    1.339758e+00
  1.753079e+01    1.356807e+00
  1.754667e+01    1.374282e+00
  1.756254e+01    1.399900e+00
  1.757842e+01    1.356389e+00
  1.759429e+01    1.356603e+00
  1.761017e+01    1.353614e+00
  1.762604e+01    1.318608e+00
  1.764192e+01    1.331504e+00
  1.765779e+01    1.330684e+00
  1.767367e+01    1.341130e+00
  1.768955e+01    1.335258e+00
  1.770542e+01    1.330647e+00
  1.772130e+01    1.340995e+00
  1.773717e+01    1.331171e+00
  1.775305e+01    1.325836e+00
  1.776892e+01    1.323048e+00
  1.778480e+01    1.354885e+00
  1.780067e+01    1.353030e+00
  1.781655e+01    1.345330e+00
  1.783243e+01    1.309375e+00
  1.784830e+01    1.324163e+00
  1.786418e+01    1.299695e+00
  1.788005e+01    1.304984e+00
  1.789593e+01    1.313341e+00
  1.791180e+01    1.309440e+00
  1.792768e+01    1.330442e+00
  1.794355e+01    1.342359e+00
  1.795943e+01    1.314614e+00
  1.797531e+01    1.306642e+00
  1.799118e+01    1.297216e+00
  1.800706e+01    1.306971e+00
  1.802293e+01    1.302307e+00
  1.803881e+01    1.294728e+00
  1.805468e+01    1.314503e+00
  1.807056e+01    1.299690e+00
  1.808643e+01    1.283605e+00
  1.810231e+01    1.289639e+00
  1.811819e+01    1.305181e+00
  1.813406e+01    1.282111e+00
  1.814994e+01    1.268817e+00
  1.816581e+01    1.282354e+00
  1.818169e+01    1.277037e+00
  1.819756e+01    1.285218e+00
  1.821344e+01    1.270059e+00
  1.822932e+01    1.281659e+00
  1.824519e+01    1.292143e+00
  1.826107e+01    1.289878e+00
  1.827694e+01    1.285788e+00
  1.829282e+01    1.302404e+00
  1.830869e+01    1.307405e+00
  1.832457e+01    1.315044e+00
  1.834044e+01    1.262444e+00
  1.835632e+01    1.271990e+00
  1.837220e+01    1.275081e+00
  1.838807e+01    1.292354e+00
  1.840395e+01    1.282748e+00
  1.841982e+01    1.271570e+00
  1.843570e+01    1.256176e+00
  1.845157e+01    1.260032e+00
  1.846745e+01    1.235542e+00
  1.848332e+01    1.220473e+00
  1.849920e+01    1.242349e+00
  1.851508e+01    1.260608e+00
  1.853095e+01    1.282524e+00
  1.854683e+01    1.276039e+00
  1.856270e+01    1.273327e+00
  1.857858e+01    1.253111e+00
  1.859445e+01    1.245527e+00
  1.861033e+01    1.244224e+00
  1.862620e+01    1.238736e+00
  1.864208e+01    1.242691e+00
  1.865796e+01    1.259786e+00
  1.867383e+01    1.224627e+00
  1.868971e+01    1.215016e+00
  1.870558e+01    1.257198e+00
  1.872146e+01    1.250744e+00
  1.873733e+01    1.222128e+00
  1.875321e+01    1.217975e+00
  1.876908e+01    1.209742e+00
  1.878496e+01    1.216740e+00
  1.880084e+01    1.207554e+00
  1.881671e+01    1.221605e+00
  1.883259e+01    1.230279e+00
  1.884846e+01    1.227111e+00
  1.886434e+01    1.229465e+00
  1.888021e+01    1.226140e+00
  1.889609e+01    1.241041e+00
  1.891196e+01    1.210461e+00
  1.892784e+01    1.240369e+00
  1.894372e+01    1.189824e+00
  1.895959e+01    1.194176e+00
  1.897547e+01    1.191543e+00
  1.899134e+01    1.192951e+00
  1.900722e+01    1.178677e+00
  1.902309e+01    1.199612e+00
  1.903897e+01    1.226360e+00
  1.905484e+01    1.230006e+00
  1.907072e+01    1.201972e+00
  1.908660e+01    1.184224e+00
  1.910247e+01    1.185440e+00
  1.911835e+01    1.193403e+00
  1.913422e+01    1.184777e+00
  1.915010e+01    1.179571e+00
  1.916597e+01    1.200283e+00
  1.918185e+01    1.195953e+00
  1.919773e+01    1.204292e+00
  1.921360e+01    1.182980e+00
  1.922948e+01    1.180140e+00
  1.924535e+01    1.154105e+00
  1.926123e+01    1.171722e+00
  1.927710e+01    1.190959e+00
  1.929298e+01    1.168167e+00
  1.930885e+01    1.179758e+00
  1.932473e+01    1.176105e+00
  1.934061e+01    1.169004e+00
  1.935648e+01    1.175649e+00
  1.937236e+01    1.206585e+00
  1.938823e+01    1.223875e+00
  1.940411e+01    1.206675e+00
  1.941998e+01    1.170199e+00
  1.943586e+01    1.157226e+00
  1.945173e+01    1.174919e+00
  1.946761e+01    1.169143e+00
  1.948349e+01    1.157962e+00
  1.949936e+01    1.163555e+00
  1.951524e+01    1.154129e+00
  1.953111e+01    1.147799e+00
  1.954699e+01    1.164573e+00
  1.956286e+01    1.151206e+00
  1.957874e+01    1.158127e+00
  1.959461e+01    1.176767e+00
  1.961049e+01    1.156512e+00
  1.962637e+01    1.159280e+00
  1.964224e+01    1.138889e+00
  1.965812e+01    1.141340e+00
  1.967399e+01    1.154673e+00
  1.968987e+01    1.161530e+00
  1.970574e+01    1.157871e+00
  1.972162e+01    1.148298e+00
  1.973749e+01    1.149626e+00
  1.975337e+01    1.149042e+00
  1.976925e+01    1.146420e+00
  1.978512e+01    1.144039e+00
  1.980100e+01    1.132800e+00
  1.981687e+01    1.151490e+00
  1.983275e+01    1.138856e+00
  1.984862e+01    1.142457e+00
  1.986450e+01    1.132343e+00
  1.988037e+01    1.142750e+00
  1.989625e+01    1.136787e+00
  1.991213e+01    1.137893e+00
  1.992800e+01    1.152535e+00
  1.994388e+01    1.145636e+00
  1.995975e+01    1.145345e+00
  1.997563e+01    1.137360e+00
  1.999150e+01    1.123948e+00
  2.000738e+01    1.116330e+00
  2.002325e+01    1.143339e+00
  2.003913e+01    1.135252e+00
  2.005501e+01    1.127540e+00
  2.007088e+01    1.144410e+00
  2.008676e+01    1.140092e+00
  2.010263e+01    1.112971e+00
  2.011851e+01    1.138320e+00
  2.013438e+01    1.135519e+00
  2.015026e+01    1.115247e+00
  2.016614e+01    1.115965e+00
  2.018201e+01    1.131702e+00
  2.019789e+01    1.135580e+00
  2.021376e+01    1.088266e+00
  2.022964e+01    1.096416e+00
  2.024551e+01    1.126183e+00
  2.026139e+01    1.124324e+00
  2.027726e+01    1.108922e+00
  2.029314e+01    1.113171e+00
  2.030902e+01    1.126996e+00
  2.032489e+01    1.099932e+00
  2.034077e+01    1.072064e+00
  2.035664e+01    1.101431e+00
  2.037252e+01    1.118753e+00
  2.038839e+01    1.104028e+00
  2.040427e+01    1.095637e+00
  2.042014e+01    1.115305e+00
  2.043602e+01    1.097560e+00
  2.045190e+01    1.114059e+00
  2.046777e+01    1.084613e+00
  2.048365e+01    1.100587e+00
  2.049952e+01    1.100799e+00
  2.051540e+01    1.132495e+00
  2.053127e+01    1.096696e+00
  2.054715e+01    1.098412e+00
  2.056302e+01    1.096336e+00
  2.057890e+01    1.088511e+00
  2.059478e+01    1.088971e+00
  2.061065e+01    1.094898e+00
  2.062653e+01    1.092224e+00
  2.064240e+01    1.093437e+00
  2.065828e+01    1.101440e+00
  2.067415e+01    1.103706e+00
  2.069003e+01    1.068941e+00
  2.070590e+01    1.091548e+00
  2.072178e+01    1.085090e+00
  2.073766e+01    1.090759e+00
  2.075353e+01    1.093469e+00
  2.076941e+01    1.099351e+00
  2.078528e+01    1.078679e+00
  2.080116e+01    1.094237e+00
  2.081703e+01    1.093710e+00
  2.083291e+01    1.082371e+00
  2.084878e+01    1.100945e+00
  2.086466e+01    1.093582e+00
  2.088054e+01    1.099707e+00
  2.089641e+01    1.095258e+00
  2.091229e+01    1.086169e+00
  2.092816e+01    1.092546e+00
  2.094404e+01    1.103003e+00
  2.095991e+01    1.104204e+00
  2.097579e+01    1.094386e+00
  2.099166e+01    1.081789e+00
  2.100754e+01    1.088635e+00
  2.102342e+01    1.078462e+00
  2.103929e+01    1.097828e+00
  2.105517e+01    1.092583e+00
  2.107104e+01    1.099229e+00
  2.108692e+01    1.085941e+00
  2.110279e+01    1.106234e+00
  2.111867e+01    1.103619e+00
  2.113455e+01    1.103608e+00
  2.115042e+01    1.118321e+00
  2.116630e+01    1.091913e+00
  2.118217e+01    1.116034e+00
  2.119805e+01    1.104539e+00
  2.121392e+01    1.103969e+00
  2.122980e+01    1.126556e+00
  2.124567e+01    1.124006e+00
  2.126155e+01    1.126873e+00
  2.127743e+01    1.132105e+00
  2.129330e+01    1.141708e+00
  2.130918e+01    1.147490e+00
  2.132505e+01    1.147182e+00
  2.134093e+01    1.131903e+00
  2.135680e+01    1.138488e+00
  2.137268e+01    1.155002e+00
  2.138855e+01    1.164716e+00
  2.140443e+01    1.196661e+00
  2.142031e+01    1.193026e+00
  2.143618e+01    1.201495e+00
  2.145206e+01    1.244596e+00
  2.146793e+01    1.273074e+00
  2.148381e+01    1.281275e+00
  2.149968e+01    1.304637e+00
  2.151556e+01    1.331372e+00
  2.153143e+01    1.338944e+00
  2.154731e+01    1.358975e+00
  2.156319e+01    1.432513e+00
  2.157906e+01    1.460858e+00
  2.159494e+01    1.469467e+00
  2.161081e+01    1.549136e+00
  2.162669e+01    1.638471e+00
  2.164256e+01    1.709764e+00
  2.165844e+01    1.858633e+00
  2.167431e+01    2.008837e+00
  2.169019e+01    2.159684e+00
  2.170607e+01    2.371522e+00
  2.172194e+01    2.643509e+00
  2.173782e+01    2.955737e+00
  2.175369e+01    3.382133e+00
  2.176957e+01    3.884365e+00
  2.178544e+01    4.458060e+00
  2.180132e+01    5.136803e+00
  2.181719e+01    5.782821e+00
  2.183307e+01    6.510613e+00
  2.184895e+01    7.328383e+00
  2.186482e+01    8.196575e+00
  2.188070e+01    9.075040e+00
  2.189657e+01    9.846926e+00
  2.191245e+01    1.041913e+01
  2.192832e+01    1.060020e+01
  2.194420e+01    1.032942e+01
  2.196007e+01    9.586734e+00
  2.197595e+01    8.568348e+00
  2.199183e+01    7.434868e+00
  2.200770e+01    6.349718e+00
  2.202358e+01    5.293339e+00
  2.203945e+01    4.510446e+00
  2.205533e+01    3.902111e+00
  2.207120e+01    3.388388e+00
  2.208708e+01    2.969764e+00
  2.210296e+01    2.651841e+00
  2.211883e+01    2.379215e+00
  2.213471e+01    2.149515e+00
  2.215058e+01    1.976376e+00
  2.216646e+01    1.833805e+00
  2.218233e+01    1.716046e+00
  2.219821e+01    1.603781e+00
  2.221408e+01    1.543947e+00
  2.222996e+01    1.482989e+00
  2.224584e+01    1.437850e+00
  2.226171e+01    1.392746e+00
  2.227759e+01    1.329308e+00
  2.229346e+01    1.255121e+00
  2.230934e+01    1.248073e+00
  2.232521e+01    1.217434e+00
  2.234109e+01    1.178603e+00
  2.235696e+01    1.188667e+00
  2.237284e+01    1.151998e+00
  2.238872e+01    1.137886e+00
  2.240459e+01    1.116199e+00
  2.242047e+01    1.092073e+00
  2.243634e+01    1.100496e+00
  2.245222e+01    1.089665e+00
  2.246809e+01    1.062682e+00
  2.248397e+01    1.060665e+00
  2.249984e+01    1.062487e+00
  2.251572e+01    1.056549e+00
  2.253160e+01    1.032287e+00
  2.254747e+01    1.032391e+00
  2.256335e+01    1.011875e+00
  2.257922e+01    1.004124e+00
  2.259510e+01    1.005315e+00
  2.261097e+01    9.886326e-01
  2.262685e+01    9.784862e-01
  2.264272e+01    9.963409e-01
  2.265860e+01    9.933065e-01
  2.267448e+01    9.993907e-01
  2.269035e+01    9.922587e-01
  2.270623e+01    9.923179e-01
  2.272210e+01    9.543221e-01
  2.273798e+01    9.736162e-01
  2.275385e+01    9.753726e-01
  2.276973e+01    9.553194e-01
  2.278560e+01    9.581420e-01
  2.280148e+01    9.577755e-01
  2.281736e+01    9.506124e-01
  2.283323e+01    9.568425e-01
  2.284911e+01    9.328102e-01
  2.286498e+01    9.218650e-01
  2.288086e+01    9.190080e-01
  2.289673e+01    9.097370e-01
  2.291261e+01    9.242529e-01
  2.292848e+01    9.315199e-01
  2.294436e+01    9.429714e-01
  2.296024e+01    9.157014e-01
  2.297611e+01    9.043983e-01
  2.299199e+01    9.170455e-01
  2.300786e+01    9.159880e-01
  2.302374e+01    9.091693e-01
  2.303961e+01    9.056624e-01
  2.305549e+01    9.076016e-01
  2.307137e+01    9.056684e-01
  2.308724e+01    9.077770e-01
  2.310312e+01    9.030028e-01
  2.311899e+01    9.133703e-01
  2.313487e+01    9.197228e-01
  2.315074e+01    8.968548e-01
  2.316662e+01    8.861908e-01
  2.318249e+01    8.908764e-01
  2.319837e+01    9.121290e-01
  2.321425e+01    8.960418e-01
  2.323012e+01    8.878246e-01
  2.324600e+01    8.910102e-01
  2.326187e+01    8.653745e-01
  2.327775e+01    8.518502e-01
  2.329362e+01    8.780736e-01
  2.330950e+01    8.693543e-01
  2.332537e+01    8.683372e-01
  2.334125e+01    8.716939e-01
  2.335713e+01    9.043893e-01
  2.337300e+01    8.877124e-01
  2.338888e+01    8.840917e-01
  2.340475e+01    8.668804e-01
  2.342063e+01    8.530146e-01
  2.343650e+01    8.724201e-01
  2.345238e+01    8.804526e-01
  2.346825e+01    8.621205e-01
  2.348413e+01    8.515804e-01
  2.350001e+01    8.525968e-01
  2.351588e+01    8.630771e-01
  2.353176e+01    8.607848e-01
  2.354763e+01    8.540345e-01
  2.356351e+01    8.503640e-01
  2.357938e+01    8.449888e-01
  2.359526e+01    8.621733e-01
  2.361113e+01    8.527907e-01
  2.362701e+01    8.469326e-01
  2.364289e+01    8.532368e-01
  2.365876e+01    8.544509e-01
  2.367464e+01    8.399944e-01
  2.369051e+01    8.311503e-01
  2.370639e+01    8.457983e-01
  2.372226e+01    8.451509e-01
  2.373814e+01    8.357643e-01
  2.375401e+01    8.325828e-01
  2.376989e+01    8.157950e-01
  2.378577e+01    8.165108e-01
  2.380164e+01    8.362677e-01
  2.381752e+01    8.277277e-01
  2.383339e+01    8.190525e-01
  2.384927e+01    8.096879e-01
  2.386514e+01    8.034594e-01
  2.388102e+01    8.041605e-01
  2.389689e+01    8.215690e-01
  2.391277e+01    8.334265e-01
  2.392865e+01    8.080796e-01
  2.394452e+01    8.223699e-01
  2.396040e+01    8.302852e-01
  2.397627e+01    8.105122e-01
  2.399215e+01    8.075022e-01
  2.400802e+01    8.128039e-01
  2.402390e+01    8.065960e-01
  2.403978e+01    7.999763e-01
  2.405565e+01    8.184293e-01
  2.407153e+01    8.191321e-01
  2.408740e+01    7.837105e-01
  2.410328e+01    8.128172e-01
  2.411915e+01    8.029192e-01
  2.413503e+01    7.948760e-01
  2.415090e+01    7.904589e-01
  2.416678e+01    7.925327e-01
  2.418266e+01    7.915974e-01
  2.419853e+01    7.816401e-01
  2.421441e+01    7.927039e-01
  2.423028e+01    7.975736e-01
  2.424616e+01    7.897093e-01
  2.426203e+01    7.911748e-01
  2.427791e+01    8.074981e-01
  2.429378e+01    7.850561e-01
  2.430966e+01    7.890748e-01
  2.432554e+01    8.008945e-01
  2.434141e+01    8.094440e-01
  2.435729e+01    7.962858e-01
  2.437316e+01    8.045843e-01
  2.438904e+01    8.026321e-01
  2.440491e+01    7.881042e-01
  2.442079e+01    8.013328e-01
  2.443666e+01    8.172673e-01
  2.445254e+01    8.167086e-01
  2.446842e+01    7.997615e-01
  2.448429e+01    7.742369e-01
  2.450017e+01    7.900901e-01
  2.451604e+01    7.821501e-01
  2.453192e+01    8.098166e-01
  2.454779e+01    8.137351e-01
  2.456367e+01    7.995805e-01
  2.457954e+01    7.907012e-01
  2.459542e+01    8.036428e-01
  2.461130e+01    7.919839e-01
  2.462717e+01    7.867809e-01
  2.464305e+01    8.079214e-01
  2.465892e+01    8.018637e-01
  2.467480e+01    8.105420e-01
  2.469067e+01    8.054714e-01
  2.470655e+01    8.051431e-01
  2.472242e+01    7.983491e-01
  2.473830e+01    8.056814e-01
  2.475418e+01    7.903033e-01
  2.477005e+01    8.030024e-01
  2.478593e+01    7.964261e-01
  2.480180e+01    8.010293e-01
  2.481768e+01    8.022570e-01
  2.483355e+01    7.995101e-01
  2.484943e+01    8.170863e-01
  2.486530e+01    8.186122e-01
  2.488118e+01    7.812746e-01
  2.489706e+01    7.826164e-01
  2.491293e+01    7.991844e-01
  2.492881e+01    8.037924e-01
  2.494468e+01    8.019201e-01
  2.496056e+01    8.025377e-01
  2.497643e+01    8.131476e-01
  2.499231e+01    8.134898e-01
  2.500819e+01    8.090134e-01
  2.502406e+01    8.213283e-01
  2.503994e+01    8.283319e-01
  2.505581e+01    8.284064e-01
  2.507169e+01    8.238416e-01
  2.508756e+01    8.200627e-01
  2.510344e+01    8.202236e-01
  2.511931e+01    8.323845e-01
  2.513519e+01    8.418715e-01
  2.515107e+01    8.254901e-01
  2.516694e+01    8.323826e-01
  2.518282e+01    8.407597e-01
  2.519869e+01    8.422214e-01
  2.521457e+01    8.564405e-01
  2.523044e+01    8.361022e-01
  2.524632e+01    8.436073e-01
  2.526219e+01    8.693811e-01
  2.527807e+01    8.790953e-01
  2.529395e+01    8.547784e-01
  2.530982e+01    8.659219e-01
  2.532570e+01    8.858407e-01
  2.534157e+01    8.967071e-01
  2.535745e+01    8.955619e-01
  2.537332e+01    9.056215e-01
  2.538920e+01    8.942533e-01
  2.540507e+01    8.999299e-01
  2.542095e+01    9.220009e-01
  2.543683e+01    9.365011e-01
  2.545270e+01    9.216182e-01
  2.546858e+01    9.434429e-01
  2.548445e+01    9.617315e-01
  2.550033e+01    9.840720e-01
  2.551620e+01    1.006140e+00
  2.553208e+01    9.994044e-01
  2.554795e+01    1.032068e+00
  2.556383e+01    1.055950e+00
  2.557971e+01    1.064101e+00
  2.559558e+01    1.093068e+00
  2.561146e+01    1.091889e+00
  2.562733e+01    1.156857e+00
  2.564321e+01    1.210657e+00
  2.565908e+01    1.236453e+00
  2.567496e+01    1.289626e+00
  2.569083e+01    1.377914e+00
  2.570671e+01    1.435316e+00
  2.572259e+01    1.503453e+00
  2.573846e+01    1.625812e+00
  2.575434e+01    1.749486e+00
  2.577021e+01    1.897415e+00
  2.578609e+01    2.085772e+00
  2.580196e+01    2.272884e+00
  2.581784e+01    2.574871e+00
  2.583371e+01    2.956496e+00
  2.584959e+01    3.393186e+00
  2.586547e+01    3.880608e+00
  2.588134e+01    4.439498e+00
  2.589722e+01    5.117252e+00
  2.591309e+01    5.823134e+00
  2.592897e+01    6.603938e+00
  2.594484e+01    7.358101e+00
  2.596072e+01    8.071176e+00
  2.597660e+01    8.483720e+00
  2.599247e+01    8.729865e+00
  2.600835e+01    8.617541e+00
  2.602422e+01    8.240134e+00
  2.604010e+01    7.492240e+00
  2.605597e+01    6.560915e+00
  2.607185e+01    5.685853e+00
  2.608772e+01    4.887153e+00
  2.610360e+01    4.199574e+00
  2.611948e+01    3.564837e+00
  2.613535e+01    3.096951e+00
  2.615123e+01    2.754904e+00
  2.616710e+01    2.441663e+00
  2.618298e+01    2.163338e+00
  2.619885e+01    1.962092e+00
  2.621473e+01    1.828687e+00
  2.623060e+01    1.696500e+00
  2.624648e+01    1.568466e+00
  2.626236e+01    1.488783e+00
  2.627823e+01    1.408322e+00
  2.629411e+01    1.357974e+00
  2.630998e+01    1.294879e+00
  2.632586e+01    1.228342e+00
  2.634173e+01    1.166536e+00
  2.635761e+01    1.132773e+00
  2.637348e+01    1.103428e+00
  2.638936e+01    1.074194e+00
  2.640524e+01    1.047625e+00
  2.642111e+01    1.025669e+00
  2.643699e+01    1.028376e+00
  2.645286e+01    1.009199e+00
  2.646874e+01    1.004913e+00
  2.648461e+01    9.973566e-01
  2.650049e+01    9.670030e-01
  2.651636e+01    9.697608e-01
  2.653224e+01    9.617487e-01
  2.654812e+01    9.634102e-01
  2.656399e+01    9.430295e-01
  2.657987e+01    9.496779e-01
  2.659574e+01    9.334089e-01
  2.661162e+01    9.148465e-01
  2.662749e+01    9.286908e-01
  2.664337e+01    9.133866e-01
  2.665924e+01    9.245328e-01
  2.667512e+01    9.200135e-01
  2.669100e+01    9.196162e-01
  2.670687e+01    9.043406e-01
  2.672275e+01    9.244579e-01
  2.673862e+01    9.401701e-01
  2.675450e+01    9.175450e-01
  2.677037e+01    9.085162e-01
  2.678625e+01    9.033168e-01
  2.680212e+01    9.044600e-01
  2.681800e+01    9.009049e-01
  2.683388e+01    9.122490e-01
  2.684975e+01    9.330541e-01
  2.686563e+01    9.312432e-01
  2.688150e+01    9.215726e-01
  2.689738e+01    9.303296e-01
  2.691325e+01    9.437065e-01
  2.692913e+01    9.568835e-01
  2.694501e+01    9.470261e-01
  2.696088e+01    9.544989e-01
  2.697676e+01    9.718491e-01
  2.699263e+01    9.930595e-01
  2.700851e+01    1.035648e+00
  2.702438e+01    1.060349e+00
  2.704026e+01    1.081632e+00
  2.705613e+01    1.112958e+00
  2.707201e+01    1.174249e+00
  2.708789e+01    1.208338e+00
  2.710376e+01    1.282531e+00
  2.711964e+01    1.389794e+00
  2.713551e+01    1.499250e+00
  2.715139e+01    1.611665e+00
  2.716726e+01    1.750898e+00
  2.718314e+01    1.945678e+00
  2.719901e+01    2.131787e+00
  2.721489e+01    2.311250e+00
  2.723077e+01    2.422627e+00
  2.724664e+01    2.495072e+00
  2.726252e+01    2.501017e+00
  2.727839e+01    2.476333e+00
  2.729427e+01    2.347491e+00
  2.731014e+01    2.147780e+00
  2.732602e+01    1.951801e+00
  2.734189e+01    1.778314e+00
  2.735777e+01    1.594982e+00
  2.737365e+01    1.453161e+00
  2.738952e+01    1.390226e+00
  2.740540e+01    1.286214e+00
  2.742127e+01    1.217560e+00
  2.743715e+01    1.144177e+00
  2.745302e+01    1.082832e+00
  2.746890e+01    1.041903e+00
  2.748477e+01    1.007205e+00
  2.750065e+01    9.892331e-01
  2.751653e+01    9.939542e-01
  2.753240e+01    9.626278e-01
  2.754828e+01    9.277774e-01
  2.756415e+01    9.063332e-01
  2.758003e+01    8.945615e-01
  2.759590e+01    8.977262e-01
  2.761178e+01    8.837734e-01
  2.762765e+01    8.765096e-01
  2.764353e+01    8.674223e-01
  2.765941e+01    8.691280e-01
  2.767528e+01    8.649639e-01
  2.769116e+01    8.661620e-01
  2.770703e+01    8.635181e-01
  2.772291e+01    8.583495e-01
  2.773878e+01    8.557020e-01
  2.775466e+01    8.524188e-01
  2.777054e+01    8.360880e-01
  2.778641e+01    8.395483e-01
  2.780229e+01    8.292786e-01
  2.781816e+01    8.112082e-01
  2.783404e+01    8.328789e-01
  2.784991e+01    8.297048e-01
  2.786579e+01    8.291874e-01
  2.788166e+01    8.313544e-01
  2.789754e+01    8.305690e-01
  2.791342e+01    8.166361e-01
  2.792929e+01    8.104065e-01
  2.794517e+01    8.181019e-01
  2.796104e+01    8.048281e-01
  2.797692e+01    7.958695e-01
  2.799279e+01    7.629971e-01
  2.800867e+01    7.796732e-01
  2.802454e+01    7.910401e-01
  2.804042e+01    7.937955e-01
  2.805630e+01    7.845843e-01
  2.807217e+01    7.845507e-01
  2.808805e+01    7.835508e-01
  2.810392e+01    8.024521e-01
  2.811980e+01    7.990218e-01
  2.813567e+01    7.615133e-01
  2.815155e+01    7.657834e-01
  2.816742e+01    7.841936e-01
  2.818330e+01    7.775328e-01
  2.819918e+01    7.740006e-01
  2.821505e+01    8.005604e-01
  2.823093e+01    8.115354e-01
  2.824680e+01    7.854346e-01
  2.826268e+01    7.889485e-01
  2.827855e+01    7.992923e-01
  2.829443e+01    7.463075e-01
  2.831030e+01    7.650539e-01
  2.832618e+01    7.738634e-01
  2.834206e+01    7.741346e-01
  2.835793e+01    7.516229e-01
  2.837381e+01    7.543736e-01
  2.838968e+01    7.764794e-01
  2.840556e+01    7.914230e-01
  2.842143e+01    7.842587e-01
  2.843731e+01    7.855408e-01
  2.845318e+01    7.913625e-01
  2.846906e+01    7.853595e-01
  2.848494e+01    7.737439e-01
  2.850081e+01    7.700810e-01
  2.851669e+01    7.657540e-01
  2.853256e+01    7.679316e-01
  2.854844e+01    7.784249e-01
  2.856431e+01    7.889529e-01
  2.858019e+01    7.863540e-01
  2.859606e+01    7.871220e-01
  2.861194e+01    7.398213e-01
  2.862782e+01    7.551794e-01
  2.864369e+01    7.815051e-01
  2.865957e+01    7.701070e-01
  2.867544e+01    7.725338e-01
  2.869132e+01    7.579046e-01
  2.870719e+01    7.527798e-01
  2.872307e+01    7.530633e-01
  2.873895e+01    7.493958e-01
  2.875482e+01    7.516374e-01
  2.877070e+01    7.498441e-01
  2.878657e+01    7.612743e-01
  2.880245e+01    7.629637e-01
  2.881832e+01    7.598119e-01
  2.883420e+01    7.623978e-01
  2.885007e+01    7.584817e-01
  2.886595e+01    7.524028e-01
  2.888183e+01    7.673109e-01
  2.889770e+01    7.690691e-01
  2.891358e+01    7.569159e-01
  2.892945e+01    7.515624e-01
  2.894533e+01    7.609621e-01
  2.896120e+01    7.590116e-01
  2.897708e+01    7.552159e-01
  2.899295e+01    7.526169e-01
  2.900883e+01    7.493901e-01
  2.902471e+01    7.757544e-01
  2.904058e+01    7.551799e-01
  2.905646e+01    7.448822e-01
  2.907233e+01    7.467565e-01
  2.908821e+01    7.418799e-01
  2.910408e+01    7.578993e-01
  2.911996e+01    7.585327e-01
  2.913583e+01    7.454494e-01
  2.915171e+01    7.261097e-01
  2.916759e+01    7.358133e-01
  2.918346e+01    7.400335e-01
  2.919934e+01    7.611880e-01
  2.921521e+01    7.614905e-01
  2.923109e+01    7.472339e-01
  2.924696e+01    7.311725e-01
  2.926284e+01    7.415653e-01
  2.927871e+01    7.608559e-01
  2.929459e+01    7.531598e-01
  2.931047e+01    7.236879e-01
  2.932634e+01    7.495976e-01
  2.934222e+01    7.439581e-01
  2.935809e+01    7.556049e-01
  2.937397e+01    7.585557e-01
  2.938984e+01    7.203358e-01
  2.940572e+01    7.437667e-01
  2.942159e+01    7.341888e-01
  2.943747e+01    7.298844e-01
  2.945335e+01    7.151524e-01
  2.946922e+01    7.265834e-01
  2.948510e+01    7.325584e-01
  2.950097e+01    7.219892e-01
  2.951685e+01    7.416772e-01
  2.953272e+01    7.332075e-01
  2.954860e+01    7.355406e-01
  2.956447e+01    7.633755e-01
  2.958035e+01    7.387747e-01
  2.959623e+01    7.329418e-01
  2.961210e+01    7.500239e-01
  2.962798e+01    7.382076e-01
  2.964385e+01    7.164557e-01
  2.965973e+01    7.119144e-01
  2.967560e+01    7.249045e-01
  2.969148e+01    7.104629e-01
  2.970736e+01    7.341114e-01
  2.972323e+01    7.242526e-01
  2.973911e+01    7.235066e-01
  2.975498e+01    7.357996e-01
  2.977086e+01    7.486640e-01
  2.978673e+01    7.353622e-01
  2.980261e+01    7.260367e-01
  2.981848e+01    7.256260e-01
  2.983436e+01    7.331613e-01
  2.985024e+01    7.342814e-01
  2.986611e+01    7.279967e-01
  2.988199e+01    7.155613e-01
  2.989786e+01    7.200497e-01
  2.991374e+01    7.306195e-01
  2.992961e+01    7.196252e-01
  2.994549e+01    7.183036e-01
  2.996136e+01    7.251755e-01
  2.997724e+01    7.214013e-01
  2.999312e+01    7.232348e-01
  3.000899e+01    7.476025e-01
  3.002487e+01    7.430947e-01
  3.004074e+01    7.223317e-01
  3.005662e+01    7.385730e-01
  3.007249e+01    7.378519e-01
  3.008837e+01    7.340151e-01
  3.010424e+01    7.187046e-01
  3.012012e+01    7.383597e-01
  3.013600e+01    7.507145e-01
  3.015187e+01    7.166412e-01
  3.016775e+01    7.323160e-01
  3.018362e+01    7.472473e-01
  3.019950e+01    7.256153e-01
  3.021537e+01    7.206241e-01
  3.023125e+01    7.150221e-01
  3.024712e+01    7.165043e-01
  3.026300e+01    7.376587e-01
  3.027888e+01    7.165655e-01
  3.029475e+01    7.007253e-01
  3.031063e+01    7.234428e-01
  3.032650e+01    7.201364e-01
  3.034238e+01    7.318010e-01
  3.035825e+01    7.176114e-01
  3.037413e+01    7.328550e-01
  3.039000e+01    7.215083e-01
  3.040588e+01    7.193672e-01
  3.042176e+01    7.177965e-01
  3.043763e+01    7.225509e-01
  3.045351e+01    7.331542e-01
  3.046938e+01    7.071702e-01
  3.048526e+01    7.208436e-01
  3.050113e+01    7.339252e-01
  3.051701e+01    7.077486e-01
  3.053288e+01    7.138093e-01
  3.054876e+01    7.191975e-01
  3.056464e+01    7.312062e-01
  3.058051e+01    7.316000e-01
  3.059639e+01    7.257850e-01
  3.061226e+01    7.237243e-01
  3.062814e+01    7.240407e-01
  3.064401e+01    7.321792e-01
  3.065989e+01    7.293629e-01
  3.067577e+01    6.996804e-01
  3.069164e+01    7.077535e-01
  3.070752e+01    7.085707e-01
  3.072339e+01    7.291052e-01
  3.073927e+01    7.433038e-01
  3.075514e+01    7.269709e-01
  3.077102e+01    7.130207e-01
  3.078689e+01    7.054983e-01
  3.080277e+01    7.260111e-01
  3.081865e+01    7.216609e-01
  3.083452e+01    7.274379e-01
  3.085040e+01    7.369922e-01
  3.086627e+01    7.104557e-01
  3.088215e+01    7.060823e-01
  3.089802e+01    7.230355e-01
  3.091390e+01    7.387602e-01
  3.092977e+01    7.220882e-01
  3.094565e+01    7.189633e-01
  3.096153e+01    7.208171e-01
  3.097740e+01    7.121338e-01
  3.099328e+01    7.245721e-01
  3.100915e+01    7.096342e-01
  3.102503e+01    7.138887e-01
  3.104090e+01    7.175800e-01
  3.105678e+01    7.281687e-01
  3.107265e+01    7.253963e-01
  3.108853e+01    7.066799e-01
  3.110441e+01    7.211242e-01
  3.112028e+01    7.623908e-01
  3.113616e+01    7.328832e-01
  3.115203e+01    7.316695e-01
  3.116791e+01    7.297284e-01
  3.118378e+01    7.279699e-01
  3.119966e+01    7.264895e-01
  3.121553e+01    7.521802e-01
  3.123141e+01    7.568828e-01
  3.124729e+01    7.490881e-01
  3.126316e+01    7.571289e-01
  3.127904e+01    7.397631e-01
  3.129491e+01    7.388054e-01
  3.131079e+01    7.489650e-01
  3.132666e+01    7.660583e-01
  3.134254e+01    7.569688e-01
  3.135841e+01    7.626502e-01
  3.137429e+01    7.341813e-01
  3.139017e+01    7.362471e-01
  3.140604e+01    7.587972e-01
  3.142192e+01    7.730718e-01
  3.143779e+01    7.616680e-01
  3.145367e+01    7.468383e-01
  3.146954e+01    7.620311e-01
  3.148542e+01    7.709666e-01
  3.150129e+01    7.612758e-01
  3.151717e+01    7.616355e-01
  3.153305e+01    7.993841e-01
  3.154892e+01    7.902512e-01
  3.156480e+01    8.168317e-01
  3.158067e+01    8.278944e-01
  3.159655e+01    8.066797e-01
  3.161242e+01    8.078191e-01
  3.162830e+01    8.051980e-01
  3.164418e+01    8.226828e-01
  3.166005e+01    8.554740e-01
  3.167593e+01    8.615789e-01
  3.169180e+01    8.891770e-01
  3.170768e+01    9.310732e-01
  3.172355e+01    9.637074e-01
  3.173943e+01    9.953157e-01
  3.175530e+01    1.043973e+00
  3.177118e+01    1.094893e+00
  3.178706e+01    1.145717e+00
  3.180293e+01    1.236350e+00
  3.181881e+01    1.327921e+00
  3.183468e+01    1.446619e+00
  3.185056e+01    1.640005e+00
  3.186643e+01    1.818417e+00
  3.188231e+01    1.897809e+00
  3.189818e+01    2.100172e+00
  3.191406e+01    2.316558e+00
  3.192994e+01    2.429582e+00
  3.194581e+01    2.494127e+00
  3.196169e+01    2.493140e+00
  3.197756e+01    2.405375e+00
  3.199344e+01    2.241204e+00
  3.200931e+01    2.061143e+00
  3.202519e+01    1.868761e+00
  3.204106e+01    1.735764e+00
  3.205694e+01    1.568450e+00
  3.207282e+01    1.422671e+00
  3.208869e+01    1.265876e+00
  3.210457e+01    1.153265e+00
  3.212044e+01    1.101832e+00
  3.213632e+01    1.052983e+00
  3.215219e+01    1.001332e+00
  3.216807e+01    9.628303e-01
  3.218394e+01    9.422274e-01
  3.219982e+01    9.053314e-01
  3.221570e+01    8.703173e-01
  3.223157e+01    8.650638e-01
  3.224745e+01    8.589760e-01
  3.226332e+01    8.252092e-01
  3.227920e+01    8.258851e-01
  3.229507e+01    8.002108e-01
  3.231095e+01    7.851573e-01
  3.232682e+01    7.941498e-01
  3.234270e+01    7.871513e-01
  3.235858e+01    7.874789e-01
  3.237445e+01    7.564458e-01
  3.239033e+01    7.495017e-01
  3.240620e+01    7.435004e-01
  3.242208e+01    7.500600e-01
  3.243795e+01    7.589126e-01
  3.245383e+01    7.396439e-01
  3.246970e+01    7.241030e-01
  3.248558e+01    7.144146e-01
  3.250146e+01    7.159433e-01
  3.251733e+01    7.495649e-01
  3.253321e+01    7.454371e-01
  3.254908e+01    7.550710e-01
