# == pyFAI calibration ==
# Distance Sample to Detector: 0.3999999939076516 m
# PONI: 9.750e-02, 1.135e-01 m
# Rotations: -0.000175 0.000000 -0.000000 rad
# 
# == Fit2d calibration ==
# Distance Sample-beamCenter: 400.000 mm
# Center: x=1514.000, y=1300.000 pix
# Tilt: 0.010 deg  TiltPlanRot: 0.010 deg
# 
# Detector Detector	 Spline= None	 PixelSize= 7.500e-05, 7.500e-05 m
#    Detector has a mask: False 
#    Detector has a dark current: False 
#    detector has a flat field: False 
# 
# Wavelength: 6.888e-11 m
# Mask applied: user provided
# Dark current applied: False
# Flat field applied: False
# Polarization factor: 0.99
# Normalization factor: 1.0
# --> /home/myspot/data/2024_07_Rosario/Ru-CGO-ex/2024-07-27_002_Ru-CGO-ex_Activtation_ramp_000002_data_000035.dat
#       q_nm^-1             I 
  2.003187e-02    0.000000e+00
  3.590745e-02    0.000000e+00
  5.178302e-02    0.000000e+00
  6.765859e-02    1.985621e-02
  8.353417e-02    4.769114e-02
  9.940974e-02    5.517389e-02
  1.152853e-01    6.630480e-02
  1.311609e-01    9.859085e-02
  1.470365e-01    9.804101e-02
  1.629120e-01    6.073531e-02
  1.787876e-01    7.950236e-02
  1.946632e-01    6.426973e-02
  2.105388e-01    4.719185e-02
  2.264143e-01    8.378960e-02
  2.422899e-01    3.212946e-02
  2.581655e-01    5.545342e-03
  2.740411e-01    3.894551e-02
  2.899166e-01    3.210964e-02
  3.057922e-01    4.737050e-02
  3.216678e-01    1.047715e-01
  3.375433e-01    6.055192e-02
  3.534189e-01    3.642720e-02
  3.692945e-01    4.259357e-02
  3.851701e-01    7.190705e-02
  4.010456e-01    5.180774e-02
  4.169212e-01    4.865136e-02
  4.327968e-01    4.255154e-02
  4.486724e-01    6.591729e-02
  4.645479e-01    7.006526e-02
  4.804235e-01    5.513391e-02
  4.962991e-01    5.607212e-02
  5.121747e-01    3.144740e-02
  5.280502e-01    3.706170e-02
  5.439258e-01    4.963811e-02
  5.598014e-01    5.341200e-02
  5.756770e-01    4.885528e-02
  5.915525e-01    1.748745e-02
  6.074281e-01    2.229022e-02
  6.233037e-01    3.912668e-02
  6.391793e-01    4.309892e-02
  6.550548e-01    5.878630e-02
  6.709304e-01    5.099385e-02
  6.868060e-01    3.597782e-02
  7.026815e-01    4.336398e-02
  7.185571e-01    2.844628e-02
  7.344327e-01    5.462553e-02
  7.503083e-01    8.209626e-02
  7.661838e-01    6.360485e-02
  7.820594e-01    8.487341e-02
  7.979350e-01    1.613913e-01
  8.138106e-01    2.099808e-01
  8.296861e-01    2.313220e-01
  8.455617e-01    2.351100e-01
  8.614373e-01    3.054940e-01
  8.773129e-01    4.063225e-01
  8.931884e-01    5.218551e-01
  9.090640e-01    5.558158e-01
  9.249396e-01    6.036193e-01
  9.408152e-01    6.894577e-01
  9.566907e-01    7.699181e-01
  9.725663e-01    9.137931e-01
  9.884419e-01    1.057075e+00
  1.004317e+00    1.085430e+00
  1.020193e+00    1.118981e+00
  1.036069e+00    1.154451e+00
  1.051944e+00    1.193325e+00
  1.067820e+00    1.313685e+00
  1.083695e+00    1.399546e+00
  1.099571e+00    1.456715e+00
  1.115446e+00    1.479475e+00
  1.131322e+00    1.492923e+00
  1.147198e+00    1.496354e+00
  1.163073e+00    1.532658e+00
  1.178949e+00    1.601600e+00
  1.194824e+00    1.637714e+00
  1.210700e+00    1.862196e+00
  1.226575e+00    2.234320e+00
  1.242451e+00    2.356477e+00
  1.258327e+00    2.484203e+00
  1.274202e+00    2.426329e+00
  1.290078e+00    2.477899e+00
  1.305953e+00    2.517158e+00
  1.321829e+00    2.633090e+00
  1.337705e+00    2.707727e+00
  1.353580e+00    2.539403e+00
  1.369456e+00    2.675529e+00
  1.385331e+00    2.710243e+00
  1.401207e+00    2.635225e+00
  1.417082e+00    2.719346e+00
  1.432958e+00    2.962998e+00
  1.448834e+00    3.006815e+00
  1.464709e+00    2.923819e+00
  1.480585e+00    2.959723e+00
  1.496460e+00    2.900203e+00
  1.512336e+00    2.788646e+00
  1.528211e+00    2.908236e+00
  1.544087e+00    3.013403e+00
  1.559963e+00    3.068489e+00
  1.575838e+00    3.038427e+00
  1.591714e+00    3.025505e+00
  1.607589e+00    3.063240e+00
  1.623465e+00    2.866915e+00
  1.639340e+00    2.997123e+00
  1.655216e+00    3.090712e+00
  1.671092e+00    2.913588e+00
  1.686967e+00    2.885119e+00
  1.702843e+00    2.817775e+00
  1.718718e+00    2.885409e+00
  1.734594e+00    2.850913e+00
  1.750469e+00    2.939447e+00
  1.766345e+00    3.005971e+00
  1.782221e+00    2.909478e+00
  1.798096e+00    2.902511e+00
  1.813972e+00    2.875166e+00
  1.829847e+00    2.882409e+00
  1.845723e+00    2.841117e+00
  1.861598e+00    2.758697e+00
  1.877474e+00    2.902221e+00
  1.893350e+00    2.913422e+00
  1.909225e+00    2.793517e+00
  1.925101e+00    2.759384e+00
  1.940976e+00    2.811622e+00
  1.956852e+00    2.780113e+00
  1.972727e+00    2.685542e+00
  1.988603e+00    2.717246e+00
  2.004479e+00    2.690526e+00
  2.020354e+00    2.745857e+00
  2.036230e+00    2.878472e+00
  2.052105e+00    2.962104e+00
  2.067981e+00    2.849928e+00
  2.083856e+00    2.820887e+00
  2.099732e+00    2.623264e+00
  2.115608e+00    2.753447e+00
  2.131483e+00    2.719839e+00
  2.147359e+00    2.738242e+00
  2.163234e+00    2.776518e+00
  2.179110e+00    2.902905e+00
  2.194985e+00    2.782655e+00
  2.210861e+00    2.757252e+00
  2.226737e+00    2.898589e+00
  2.242612e+00    2.892637e+00
  2.258488e+00    2.768676e+00
  2.274363e+00    2.721255e+00
  2.290239e+00    2.716376e+00
  2.306115e+00    2.806558e+00
  2.321990e+00    2.857216e+00
  2.337866e+00    2.805052e+00
  2.353741e+00    2.747329e+00
  2.369617e+00    2.769831e+00
  2.385492e+00    2.786191e+00
  2.401368e+00    2.917062e+00
  2.417244e+00    2.784535e+00
  2.433119e+00    2.804243e+00
  2.448995e+00    2.849869e+00
  2.464870e+00    2.885278e+00
  2.480746e+00    2.773232e+00
  2.496621e+00    2.816370e+00
  2.512497e+00    2.823625e+00
  2.528373e+00    2.852690e+00
  2.544248e+00    2.863135e+00
  2.560124e+00    2.776180e+00
  2.575999e+00    2.822637e+00
  2.591875e+00    2.768011e+00
  2.607750e+00    2.762016e+00
  2.623626e+00    2.785696e+00
  2.639502e+00    2.917530e+00
  2.655377e+00    2.851178e+00
  2.671253e+00    2.833059e+00
  2.687128e+00    2.824802e+00
  2.703004e+00    2.739250e+00
  2.718879e+00    2.880313e+00
  2.734755e+00    2.847999e+00
  2.750631e+00    2.813500e+00
  2.766506e+00    2.852052e+00
  2.782382e+00    2.904403e+00
  2.798257e+00    2.899994e+00
  2.814133e+00    2.857693e+00
  2.830008e+00    2.806894e+00
  2.845884e+00    2.870367e+00
  2.861760e+00    2.836508e+00
  2.877635e+00    2.841297e+00
  2.893511e+00    2.874635e+00
  2.909386e+00    2.856380e+00
  2.925262e+00    2.909278e+00
  2.941137e+00    2.927999e+00
  2.957013e+00    2.910054e+00
  2.972889e+00    2.922015e+00
  2.988764e+00    2.903497e+00
  3.004640e+00    2.905067e+00
  3.020515e+00    2.857510e+00
  3.036391e+00    2.905452e+00
  3.052266e+00    2.913308e+00
  3.068142e+00    2.860473e+00
  3.084018e+00    2.835126e+00
  3.099893e+00    2.894954e+00
  3.115769e+00    2.946286e+00
  3.131644e+00    2.916798e+00
  3.147520e+00    2.875993e+00
  3.163395e+00    2.875142e+00
  3.179271e+00    2.890738e+00
  3.195147e+00    2.929212e+00
  3.211022e+00    2.802222e+00
  3.226898e+00    2.877311e+00
  3.242773e+00    2.870399e+00
  3.258649e+00    2.859815e+00
  3.274525e+00    2.955821e+00
  3.290400e+00    2.989819e+00
  3.306276e+00    2.974314e+00
  3.322151e+00    2.934855e+00
  3.338027e+00    2.966788e+00
  3.353902e+00    2.958536e+00
  3.369778e+00    2.954653e+00
  3.385654e+00    2.950561e+00
  3.401529e+00    3.003173e+00
  3.417405e+00    2.990533e+00
  3.433280e+00    2.947599e+00
  3.449156e+00    2.972853e+00
  3.465031e+00    2.928913e+00
  3.480907e+00    2.934464e+00
  3.496783e+00    3.045307e+00
  3.512658e+00    2.976229e+00
  3.528534e+00    2.927671e+00
  3.544409e+00    2.988330e+00
  3.560285e+00    3.002811e+00
  3.576160e+00    3.047422e+00
  3.592036e+00    3.038786e+00
  3.607912e+00    2.947533e+00
  3.623787e+00    2.899579e+00
  3.639663e+00    2.966773e+00
  3.655538e+00    3.058815e+00
  3.671414e+00    2.994218e+00
  3.687289e+00    3.004315e+00
  3.703165e+00    2.946127e+00
  3.719041e+00    3.060717e+00
  3.734916e+00    3.014143e+00
  3.750792e+00    3.003795e+00
  3.766667e+00    2.924828e+00
  3.782543e+00    3.001322e+00
  3.798418e+00    3.008549e+00
  3.814294e+00    2.961784e+00
  3.830170e+00    2.979128e+00
  3.846045e+00    3.051946e+00
  3.861921e+00    3.107400e+00
  3.877796e+00    3.054599e+00
  3.893672e+00    3.027273e+00
  3.909547e+00    2.955724e+00
  3.925423e+00    2.947267e+00
  3.941299e+00    3.032856e+00
  3.957174e+00    2.941174e+00
  3.973050e+00    2.902566e+00
  3.988925e+00    3.001509e+00
  4.004801e+00    2.977258e+00
  4.020676e+00    3.030251e+00
  4.036552e+00    3.081460e+00
  4.052428e+00    2.987448e+00
  4.068303e+00    3.030303e+00
  4.084179e+00    3.097450e+00
  4.100054e+00    3.053483e+00
  4.115930e+00    3.089681e+00
  4.131806e+00    3.069809e+00
  4.147681e+00    3.078384e+00
  4.163557e+00    3.083529e+00
  4.179432e+00    3.045433e+00
  4.195308e+00    3.129687e+00
  4.211183e+00    3.128292e+00
  4.227059e+00    3.077071e+00
  4.242935e+00    3.073657e+00
  4.258810e+00    3.001364e+00
  4.274686e+00    3.006444e+00
  4.290561e+00    3.025575e+00
  4.306437e+00    3.076144e+00
  4.322312e+00    3.090169e+00
  4.338188e+00    3.126297e+00
  4.354064e+00    3.139001e+00
  4.369939e+00    3.123451e+00
  4.385815e+00    3.132159e+00
  4.401690e+00    3.116895e+00
  4.417566e+00    3.088201e+00
  4.433441e+00    3.038433e+00
  4.449317e+00    3.068387e+00
  4.465193e+00    3.072536e+00
  4.481068e+00    3.016494e+00
  4.496944e+00    3.110776e+00
  4.512819e+00    3.083144e+00
  4.528695e+00    2.956093e+00
  4.544570e+00    3.004369e+00
  4.560446e+00    3.015671e+00
  4.576322e+00    3.039829e+00
  4.592197e+00    3.043474e+00
  4.608073e+00    3.017526e+00
  4.623948e+00    3.031359e+00
  4.639824e+00    3.121985e+00
  4.655699e+00    3.175282e+00
  4.671575e+00    3.065742e+00
  4.687451e+00    3.117615e+00
  4.703326e+00    3.105141e+00
  4.719202e+00    3.096164e+00
  4.735077e+00    3.053221e+00
  4.750953e+00    3.116608e+00
  4.766828e+00    3.095932e+00
  4.782704e+00    3.125652e+00
  4.798580e+00    3.175521e+00
  4.814455e+00    3.145373e+00
  4.830331e+00    3.114136e+00
  4.846206e+00    3.207762e+00
  4.862082e+00    3.134906e+00
  4.877957e+00    3.139018e+00
  4.893833e+00    3.165410e+00
  4.909709e+00    3.208279e+00
  4.925584e+00    3.103719e+00
  4.941460e+00    3.071432e+00
  4.957335e+00    3.141653e+00
  4.973211e+00    3.109920e+00
  4.989086e+00    3.103743e+00
  5.004962e+00    3.168710e+00
  5.020838e+00    3.166475e+00
  5.036713e+00    3.139385e+00
  5.052589e+00    3.164589e+00
  5.068464e+00    3.154785e+00
  5.084340e+00    3.124191e+00
  5.100216e+00    3.121534e+00
  5.116091e+00    3.089036e+00
  5.131967e+00    3.041515e+00
  5.147842e+00    3.035368e+00
  5.163718e+00    3.038845e+00
  5.179593e+00    3.106587e+00
  5.195469e+00    3.077513e+00
  5.211345e+00    3.085844e+00
  5.227220e+00    3.116936e+00
  5.243096e+00    3.117354e+00
  5.258971e+00    3.088315e+00
  5.274847e+00    3.152246e+00
  5.290722e+00    3.122474e+00
  5.306598e+00    3.099532e+00
  5.322474e+00    3.184452e+00
  5.338349e+00    3.171921e+00
  5.354225e+00    3.091887e+00
  5.370100e+00    3.135603e+00
  5.385976e+00    3.167043e+00
  5.401851e+00    3.164348e+00
  5.417727e+00    3.063840e+00
  5.433603e+00    3.019015e+00
  5.449478e+00    2.995832e+00
  5.465354e+00    3.075198e+00
  5.481229e+00    3.108537e+00
  5.497105e+00    3.081181e+00
  5.512980e+00    3.070590e+00
  5.528856e+00    3.042976e+00
  5.544732e+00    3.065029e+00
  5.560607e+00    3.115307e+00
  5.576483e+00    3.069323e+00
  5.592358e+00    3.021877e+00
  5.608234e+00    2.985808e+00
  5.624109e+00    3.111591e+00
  5.639985e+00    3.108191e+00
  5.655861e+00    3.061066e+00
  5.671736e+00    3.017913e+00
  5.687612e+00    3.078186e+00
  5.703487e+00    3.127986e+00
  5.719363e+00    3.026468e+00
  5.735238e+00    2.992492e+00
  5.751114e+00    3.028032e+00
  5.766990e+00    3.042307e+00
  5.782865e+00    3.030291e+00
  5.798741e+00    3.053796e+00
  5.814616e+00    3.024910e+00
  5.830492e+00    3.028038e+00
  5.846367e+00    3.014992e+00
  5.862243e+00    3.037329e+00
  5.878119e+00    3.011702e+00
  5.893994e+00    3.036018e+00
  5.909870e+00    3.012780e+00
  5.925745e+00    3.041564e+00
  5.941621e+00    3.082388e+00
  5.957497e+00    3.130352e+00
  5.973372e+00    2.997134e+00
  5.989248e+00    2.961513e+00
  6.005123e+00    3.039169e+00
  6.020999e+00    2.992450e+00
  6.036874e+00    3.095439e+00
  6.052750e+00    3.000669e+00
  6.068626e+00    3.000994e+00
  6.084501e+00    3.045327e+00
  6.100377e+00    3.054426e+00
  6.116252e+00    3.076523e+00
  6.132128e+00    3.079215e+00
  6.148003e+00    3.037216e+00
  6.163879e+00    2.986885e+00
  6.179755e+00    3.032804e+00
  6.195630e+00    3.048029e+00
  6.211506e+00    3.031270e+00
  6.227381e+00    3.084479e+00
  6.243257e+00    3.104415e+00
  6.259132e+00    3.097608e+00
  6.275008e+00    3.030684e+00
  6.290884e+00    3.051820e+00
  6.306759e+00    3.088314e+00
  6.322635e+00    3.034871e+00
  6.338510e+00    2.993906e+00
  6.354386e+00    3.058260e+00
  6.370261e+00    3.098331e+00
  6.386137e+00    3.040631e+00
  6.402013e+00    3.084229e+00
  6.417888e+00    3.000370e+00
  6.433764e+00    3.041773e+00
  6.449639e+00    3.108784e+00
  6.465515e+00    3.055049e+00
  6.481390e+00    3.082672e+00
  6.497266e+00    3.086365e+00
  6.513142e+00    3.062618e+00
  6.529017e+00    3.060529e+00
  6.544893e+00    3.107413e+00
  6.560768e+00    3.079021e+00
  6.576644e+00    3.095515e+00
  6.592519e+00    3.063838e+00
  6.608395e+00    3.053668e+00
  6.624271e+00    3.047289e+00
  6.640146e+00    3.003943e+00
  6.656022e+00    3.021063e+00
  6.671897e+00    3.034408e+00
  6.687773e+00    3.016032e+00
  6.703648e+00    3.077879e+00
  6.719524e+00    3.149351e+00
  6.735400e+00    3.085707e+00
  6.751275e+00    3.052590e+00
  6.767151e+00    3.025265e+00
  6.783026e+00    3.043921e+00
  6.798902e+00    3.050210e+00
  6.814777e+00    3.025173e+00
  6.830653e+00    3.060243e+00
  6.846529e+00    3.007592e+00
  6.862404e+00    3.061053e+00
  6.878280e+00    3.083265e+00
  6.894155e+00    3.052451e+00
  6.910031e+00    2.973258e+00
  6.925907e+00    3.044609e+00
  6.941782e+00    3.048724e+00
  6.957658e+00    3.007126e+00
  6.973533e+00    2.999921e+00
  6.989409e+00    3.049170e+00
  7.005284e+00    3.035310e+00
  7.021160e+00    3.044307e+00
  7.037036e+00    3.034050e+00
  7.052911e+00    2.970471e+00
  7.068787e+00    3.028078e+00
  7.084662e+00    3.088272e+00
  7.100538e+00    3.089645e+00
  7.116413e+00    3.067868e+00
  7.132289e+00    3.043004e+00
  7.148165e+00    3.004426e+00
  7.164040e+00    3.008573e+00
  7.179916e+00    3.021026e+00
  7.195791e+00    3.076363e+00
  7.211667e+00    3.036911e+00
  7.227542e+00    2.988728e+00
  7.243418e+00    3.090387e+00
  7.259294e+00    3.031203e+00
  7.275169e+00    2.962049e+00
  7.291045e+00    2.991940e+00
  7.306920e+00    2.940548e+00
  7.322796e+00    2.969671e+00
  7.338671e+00    3.070768e+00
  7.354547e+00    3.049326e+00
  7.370423e+00    3.012242e+00
  7.386298e+00    2.957142e+00
  7.402174e+00    3.042454e+00
  7.418049e+00    3.104363e+00
  7.433925e+00    3.003105e+00
  7.449800e+00    2.925093e+00
  7.465676e+00    2.955008e+00
  7.481552e+00    2.938309e+00
  7.497427e+00    3.029547e+00
  7.513303e+00    3.047924e+00
  7.529178e+00    3.005459e+00
  7.545054e+00    2.993389e+00
  7.560929e+00    2.981864e+00
  7.576805e+00    2.952825e+00
  7.592681e+00    2.951473e+00
  7.608556e+00    2.947617e+00
  7.624432e+00    2.939095e+00
  7.640307e+00    2.898572e+00
  7.656183e+00    2.922543e+00
  7.672058e+00    2.912424e+00
  7.687934e+00    2.914480e+00
  7.703810e+00    2.880534e+00
  7.719685e+00    2.926039e+00
  7.735561e+00    2.957880e+00
  7.751436e+00    2.954056e+00
  7.767312e+00    2.905868e+00
  7.783187e+00    2.910494e+00
  7.799063e+00    2.937385e+00
  7.814939e+00    2.861364e+00
  7.830814e+00    2.974735e+00
  7.846690e+00    2.954991e+00
  7.862565e+00    2.985171e+00
  7.878441e+00    2.929686e+00
  7.894317e+00    2.932395e+00
  7.910192e+00    2.950239e+00
  7.926068e+00    2.918583e+00
  7.941943e+00    2.909882e+00
  7.957819e+00    2.831776e+00
  7.973694e+00    2.933364e+00
  7.989570e+00    2.967618e+00
  8.005446e+00    2.931145e+00
  8.021321e+00    2.887012e+00
  8.037197e+00    2.912881e+00
  8.053072e+00    2.968574e+00
  8.068948e+00    2.936995e+00
  8.084823e+00    2.931808e+00
  8.100699e+00    2.959141e+00
  8.116575e+00    2.978851e+00
  8.132450e+00    2.922894e+00
  8.148326e+00    2.937199e+00
  8.164201e+00    2.946911e+00
  8.180077e+00    2.895743e+00
  8.195952e+00    2.946436e+00
  8.211828e+00    2.925405e+00
  8.227704e+00    2.947975e+00
  8.243579e+00    3.000093e+00
  8.259455e+00    2.930024e+00
  8.275330e+00    2.870331e+00
  8.291206e+00    2.914290e+00
  8.307081e+00    2.877224e+00
  8.322957e+00    2.879422e+00
  8.338833e+00    2.856947e+00
  8.354708e+00    2.920921e+00
  8.370584e+00    2.976651e+00
  8.386459e+00    2.878764e+00
  8.402335e+00    2.889276e+00
  8.418210e+00    2.908890e+00
  8.434086e+00    2.936997e+00
  8.449962e+00    2.912047e+00
  8.465837e+00    2.891619e+00
  8.481713e+00    2.955427e+00
  8.497588e+00    2.922335e+00
  8.513464e+00    2.856097e+00
  8.529339e+00    2.841123e+00
  8.545215e+00    2.892868e+00
  8.561091e+00    2.857621e+00
  8.576966e+00    2.864657e+00
  8.592842e+00    2.855673e+00
  8.608717e+00    2.815249e+00
  8.624593e+00    2.828120e+00
  8.640468e+00    2.830313e+00
  8.656344e+00    2.858669e+00
  8.672220e+00    2.881567e+00
  8.688095e+00    2.932146e+00
  8.703971e+00    2.903755e+00
  8.719846e+00    2.874404e+00
  8.735722e+00    2.783111e+00
  8.751598e+00    2.824765e+00
  8.767473e+00    2.918002e+00
  8.783349e+00    2.846375e+00
  8.799224e+00    2.828326e+00
  8.815100e+00    2.856336e+00
  8.830975e+00    2.911952e+00
  8.846851e+00    2.843730e+00
  8.862727e+00    2.814468e+00
  8.878602e+00    2.817537e+00
  8.894478e+00    2.906470e+00
  8.910353e+00    2.856729e+00
  8.926229e+00    2.840232e+00
  8.942104e+00    2.787249e+00
  8.957980e+00    2.805383e+00
  8.973856e+00    2.814408e+00
  8.989731e+00    2.830970e+00
  9.005607e+00    2.782643e+00
  9.021482e+00    2.783821e+00
  9.037358e+00    2.865595e+00
  9.053233e+00    2.848437e+00
  9.069109e+00    2.783229e+00
  9.084985e+00    2.789791e+00
  9.100860e+00    2.812779e+00
  9.116736e+00    2.787206e+00
  9.132611e+00    2.812250e+00
  9.148487e+00    2.821296e+00
  9.164362e+00    2.829810e+00
  9.180238e+00    2.821201e+00
  9.196114e+00    2.792445e+00
  9.211989e+00    2.830923e+00
  9.227865e+00    2.833998e+00
  9.243740e+00    2.778947e+00
  9.259616e+00    2.834978e+00
  9.275491e+00    2.847201e+00
  9.291367e+00    2.837252e+00
  9.307243e+00    2.753970e+00
  9.323118e+00    2.788377e+00
  9.338994e+00    2.806160e+00
  9.354869e+00    2.859765e+00
  9.370745e+00    2.792854e+00
  9.386620e+00    2.733064e+00
  9.402496e+00    2.772403e+00
  9.418372e+00    2.806504e+00
  9.434247e+00    2.792408e+00
  9.450123e+00    2.733849e+00
  9.465998e+00    2.720958e+00
  9.481874e+00    2.783472e+00
  9.497749e+00    2.785342e+00
  9.513625e+00    2.828379e+00
  9.529501e+00    2.731314e+00
  9.545376e+00    2.717702e+00
  9.561252e+00    2.763701e+00
  9.577127e+00    2.785829e+00
  9.593003e+00    2.824435e+00
  9.608878e+00    2.774840e+00
  9.624754e+00    2.717481e+00
  9.640630e+00    2.721163e+00
  9.656505e+00    2.767057e+00
  9.672381e+00    2.772628e+00
  9.688256e+00    2.770589e+00
  9.704132e+00    2.744884e+00
  9.720008e+00    2.745965e+00
  9.735883e+00    2.745004e+00
  9.751759e+00    2.796712e+00
  9.767634e+00    2.796546e+00
  9.783510e+00    2.758470e+00
  9.799385e+00    2.727245e+00
  9.815261e+00    2.768852e+00
  9.831137e+00    2.732017e+00
  9.847012e+00    2.707638e+00
  9.862888e+00    2.673550e+00
  9.878763e+00    2.677247e+00
  9.894639e+00    2.734918e+00
  9.910514e+00    2.695872e+00
  9.926390e+00    2.705899e+00
  9.942266e+00    2.679371e+00
  9.958141e+00    2.704321e+00
  9.974017e+00    2.707396e+00
  9.989892e+00    2.727761e+00
  1.000577e+01    2.675012e+00
  1.002164e+01    2.645166e+00
  1.003752e+01    2.681875e+00
  1.005339e+01    2.668405e+00
  1.006927e+01    2.655322e+00
  1.008515e+01    2.667035e+00
  1.010102e+01    2.678040e+00
  1.011690e+01    2.674649e+00
  1.013277e+01    2.696900e+00
  1.014865e+01    2.679748e+00
  1.016452e+01    2.622497e+00
  1.018040e+01    2.647807e+00
  1.019627e+01    2.688921e+00
  1.021215e+01    2.641162e+00
  1.022803e+01    2.648968e+00
  1.024390e+01    2.659757e+00
  1.025978e+01    2.632460e+00
  1.027565e+01    2.660142e+00
  1.029153e+01    2.661983e+00
  1.030740e+01    2.653241e+00
  1.032328e+01    2.640532e+00
  1.033915e+01    2.650707e+00
  1.035503e+01    2.657755e+00
  1.037091e+01    2.643203e+00
  1.038678e+01    2.668451e+00
  1.040266e+01    2.646003e+00
  1.041853e+01    2.594164e+00
  1.043441e+01    2.625732e+00
  1.045028e+01    2.657701e+00
  1.046616e+01    2.621733e+00
  1.048204e+01    2.584835e+00
  1.049791e+01    2.642475e+00
  1.051379e+01    2.608530e+00
  1.052966e+01    2.609379e+00
  1.054554e+01    2.540966e+00
  1.056141e+01    2.545595e+00
  1.057729e+01    2.561744e+00
  1.059316e+01    2.582153e+00
  1.060904e+01    2.592669e+00
  1.062492e+01    2.583831e+00
  1.064079e+01    2.617325e+00
  1.065667e+01    2.621351e+00
  1.067254e+01    2.598290e+00
  1.068842e+01    2.592910e+00
  1.070429e+01    2.613863e+00
  1.072017e+01    2.579265e+00
  1.073604e+01    2.558269e+00
  1.075192e+01    2.560812e+00
  1.076780e+01    2.598819e+00
  1.078367e+01    2.568718e+00
  1.079955e+01    2.539069e+00
  1.081542e+01    2.476424e+00
  1.083130e+01    2.493432e+00
  1.084717e+01    2.533180e+00
  1.086305e+01    2.545489e+00
  1.087892e+01    2.523746e+00
  1.089480e+01    2.506170e+00
  1.091068e+01    2.497221e+00
  1.092655e+01    2.520021e+00
  1.094243e+01    2.481308e+00
  1.095830e+01    2.514587e+00
  1.097418e+01    2.518218e+00
  1.099005e+01    2.483840e+00
  1.100593e+01    2.477897e+00
  1.102180e+01    2.537800e+00
  1.103768e+01    2.508768e+00
  1.105356e+01    2.426265e+00
  1.106943e+01    2.494181e+00
  1.108531e+01    2.499717e+00
  1.110118e+01    2.461716e+00
  1.111706e+01    2.487391e+00
  1.113293e+01    2.484061e+00
  1.114881e+01    2.483231e+00
  1.116468e+01    2.469446e+00
  1.118056e+01    2.493609e+00
  1.119644e+01    2.507086e+00
  1.121231e+01    2.452844e+00
  1.122819e+01    2.452182e+00
  1.124406e+01    2.450767e+00
  1.125994e+01    2.458158e+00
  1.127581e+01    2.521188e+00
  1.129169e+01    2.500103e+00
  1.130756e+01    2.451221e+00
  1.132344e+01    2.416770e+00
  1.133932e+01    2.445465e+00
  1.135519e+01    2.450642e+00
  1.137107e+01    2.441757e+00
  1.138694e+01    2.433540e+00
  1.140282e+01    2.455447e+00
  1.141869e+01    2.444765e+00
  1.143457e+01    2.423527e+00
  1.145045e+01    2.469117e+00
  1.146632e+01    2.440363e+00
  1.148220e+01    2.430506e+00
  1.149807e+01    2.422494e+00
  1.151395e+01    2.392704e+00
  1.152982e+01    2.391704e+00
  1.154570e+01    2.404446e+00
  1.156157e+01    2.398248e+00
  1.157745e+01    2.372946e+00
  1.159333e+01    2.444232e+00
  1.160920e+01    2.418318e+00
  1.162508e+01    2.385248e+00
  1.164095e+01    2.382974e+00
  1.165683e+01    2.377485e+00
  1.167270e+01    2.368837e+00
  1.168858e+01    2.433542e+00
  1.170445e+01    2.379669e+00
  1.172033e+01    2.379555e+00
  1.173621e+01    2.373834e+00
  1.175208e+01    2.399991e+00
  1.176796e+01    2.366286e+00
  1.178383e+01    2.349540e+00
  1.179971e+01    2.356398e+00
  1.181558e+01    2.352611e+00
  1.183146e+01    2.373014e+00
  1.184733e+01    2.375642e+00
  1.186321e+01    2.336714e+00
  1.187909e+01    2.380219e+00
  1.189496e+01    2.386289e+00
  1.191084e+01    2.333912e+00
  1.192671e+01    2.333810e+00
  1.194259e+01    2.408044e+00
  1.195846e+01    2.310947e+00
  1.197434e+01    2.327539e+00
  1.199021e+01    2.325327e+00
  1.200609e+01    2.388892e+00
  1.202197e+01    2.366542e+00
  1.203784e+01    2.331531e+00
  1.205372e+01    2.338140e+00
  1.206959e+01    2.324691e+00
  1.208547e+01    2.320785e+00
  1.210134e+01    2.378213e+00
  1.211722e+01    2.306550e+00
  1.213309e+01    2.344183e+00
  1.214897e+01    2.356553e+00
  1.216485e+01    2.388049e+00
  1.218072e+01    2.362439e+00
  1.219660e+01    2.386058e+00
  1.221247e+01    2.370105e+00
  1.222835e+01    2.314355e+00
  1.224422e+01    2.280201e+00
  1.226010e+01    2.351041e+00
  1.227597e+01    2.356600e+00
  1.229185e+01    2.331300e+00
  1.230773e+01    2.332957e+00
  1.232360e+01    2.365640e+00
  1.233948e+01    2.404517e+00
  1.235535e+01    2.398469e+00
  1.237123e+01    2.302531e+00
  1.238710e+01    2.305043e+00
  1.240298e+01    2.316510e+00
  1.241886e+01    2.313270e+00
  1.243473e+01    2.346537e+00
  1.245061e+01    2.364770e+00
  1.246648e+01    2.361592e+00
  1.248236e+01    2.395521e+00
  1.249823e+01    2.370466e+00
  1.251411e+01    2.381016e+00
  1.252998e+01    2.381248e+00
  1.254586e+01    2.406900e+00
  1.256174e+01    2.359748e+00
  1.257761e+01    2.347139e+00
  1.259349e+01    2.397093e+00
  1.260936e+01    2.429433e+00
  1.262524e+01    2.457044e+00
  1.264111e+01    2.466864e+00
  1.265699e+01    2.435355e+00
  1.267286e+01    2.468767e+00
  1.268874e+01    2.523078e+00
  1.270462e+01    2.523477e+00
  1.272049e+01    2.508070e+00
  1.273637e+01    2.583569e+00
  1.275224e+01    2.563429e+00
  1.276812e+01    2.594180e+00
  1.278399e+01    2.657438e+00
  1.279987e+01    2.713094e+00
  1.281574e+01    2.740311e+00
  1.283162e+01    2.758251e+00
  1.284750e+01    2.874580e+00
  1.286337e+01    3.001447e+00
  1.287925e+01    3.056604e+00
  1.289512e+01    3.120499e+00
  1.291100e+01    3.308223e+00
  1.292687e+01    3.516393e+00
  1.294275e+01    3.723661e+00
  1.295862e+01    3.978514e+00
  1.297450e+01    4.304965e+00
  1.299038e+01    4.710382e+00
  1.300625e+01    5.221480e+00
  1.302213e+01    5.895264e+00
  1.303800e+01    6.756633e+00
  1.305388e+01    7.875797e+00
  1.306975e+01    9.067089e+00
  1.308563e+01    1.056032e+01
  1.310150e+01    1.213926e+01
  1.311738e+01    1.372902e+01
  1.313326e+01    1.515590e+01
  1.314913e+01    1.659207e+01
  1.316501e+01    1.785469e+01
  1.318088e+01    1.904704e+01
  1.319676e+01    1.961330e+01
  1.321263e+01    1.921671e+01
  1.322851e+01    1.788227e+01
  1.324438e+01    1.582474e+01
  1.326026e+01    1.335439e+01
  1.327614e+01    1.112342e+01
  1.329201e+01    9.398113e+00
  1.330789e+01    7.956889e+00
  1.332376e+01    6.854925e+00
  1.333964e+01    5.986331e+00
  1.335551e+01    5.297230e+00
  1.337139e+01    4.810234e+00
  1.338727e+01    4.373072e+00
  1.340314e+01    3.997473e+00
  1.341902e+01    3.691358e+00
  1.343489e+01    3.482667e+00
  1.345077e+01    3.286756e+00
  1.346664e+01    3.140059e+00
  1.348252e+01    3.039506e+00
  1.349839e+01    2.938301e+00
  1.351427e+01    2.833071e+00
  1.353015e+01    2.750241e+00
  1.354602e+01    2.650578e+00
  1.356190e+01    2.594240e+00
  1.357777e+01    2.589133e+00
  1.359365e+01    2.506038e+00
  1.360952e+01    2.427217e+00
  1.362540e+01    2.401611e+00
  1.364127e+01    2.413077e+00
  1.365715e+01    2.388079e+00
  1.367303e+01    2.356371e+00
  1.368890e+01    2.352226e+00
  1.370478e+01    2.333303e+00
  1.372065e+01    2.325993e+00
  1.373653e+01    2.289979e+00
  1.375240e+01    2.235538e+00
  1.376828e+01    2.246874e+00
  1.378415e+01    2.215292e+00
  1.380003e+01    2.166067e+00
  1.381591e+01    2.191577e+00
  1.383178e+01    2.222132e+00
  1.384766e+01    2.208569e+00
  1.386353e+01    2.148687e+00
  1.387941e+01    2.141144e+00
  1.389528e+01    2.155798e+00
  1.391116e+01    2.135945e+00
  1.392703e+01    2.088661e+00
  1.394291e+01    2.061362e+00
  1.395879e+01    2.079042e+00
  1.397466e+01    2.076961e+00
  1.399054e+01    2.084204e+00
  1.400641e+01    2.085773e+00
  1.402229e+01    2.069306e+00
  1.403816e+01    2.067150e+00
  1.405404e+01    2.042691e+00
  1.406991e+01    2.075296e+00
  1.408579e+01    2.036138e+00
  1.410167e+01    2.023469e+00
  1.411754e+01    2.024509e+00
  1.413342e+01    1.990487e+00
  1.414929e+01    2.012998e+00
  1.416517e+01    2.029371e+00
  1.418104e+01    2.017811e+00
  1.419692e+01    2.037143e+00
  1.421279e+01    2.016112e+00
  1.422867e+01    2.024407e+00
  1.424455e+01    2.032720e+00
  1.426042e+01    2.013153e+00
  1.427630e+01    2.002644e+00
  1.429217e+01    1.987118e+00
  1.430805e+01    2.007328e+00
  1.432392e+01    1.980209e+00
  1.433980e+01    1.996297e+00
  1.435568e+01    1.989727e+00
  1.437155e+01    1.984091e+00
  1.438743e+01    1.943415e+00
  1.440330e+01    1.925895e+00
  1.441918e+01    1.958571e+00
  1.443505e+01    1.945403e+00
  1.445093e+01    1.958108e+00
  1.446680e+01    1.941790e+00
  1.448268e+01    1.932030e+00
  1.449856e+01    1.954918e+00
  1.451443e+01    1.936255e+00
  1.453031e+01    1.914070e+00
  1.454618e+01    1.959522e+00
  1.456206e+01    1.943581e+00
  1.457793e+01    1.953053e+00
  1.459381e+01    1.943071e+00
  1.460968e+01    1.913618e+00
  1.462556e+01    1.921130e+00
  1.464144e+01    1.939636e+00
  1.465731e+01    1.964009e+00
  1.467319e+01    1.952555e+00
  1.468906e+01    1.952470e+00
  1.470494e+01    1.995790e+00
  1.472081e+01    1.921769e+00
  1.473669e+01    1.905286e+00
  1.475256e+01    1.936926e+00
  1.476844e+01    1.959875e+00
  1.478432e+01    1.945488e+00
  1.480019e+01    1.903531e+00
  1.481607e+01    1.918183e+00
  1.483194e+01    1.982549e+00
  1.484782e+01    2.005863e+00
  1.486369e+01    1.959446e+00
  1.487957e+01    1.956469e+00
  1.489544e+01    1.975051e+00
  1.491132e+01    1.970495e+00
  1.492720e+01    1.980361e+00
  1.494307e+01    2.018248e+00
  1.495895e+01    2.062708e+00
  1.497482e+01    2.044844e+00
  1.499070e+01    2.108684e+00
  1.500657e+01    2.134143e+00
  1.502245e+01    2.193838e+00
  1.503832e+01    2.242666e+00
  1.505420e+01    2.281102e+00
  1.507008e+01    2.490343e+00
  1.508595e+01    2.670836e+00
  1.510183e+01    2.792486e+00
  1.511770e+01    3.011566e+00
  1.513358e+01    3.280996e+00
  1.514945e+01    3.574851e+00
  1.516533e+01    4.025542e+00
  1.518120e+01    4.451866e+00
  1.519708e+01    4.913348e+00
  1.521296e+01    5.334671e+00
  1.522883e+01    5.700469e+00
  1.524471e+01    5.977480e+00
  1.526058e+01    6.233874e+00
  1.527646e+01    6.518640e+00
  1.529233e+01    6.523586e+00
  1.530821e+01    6.390300e+00
  1.532409e+01    6.011813e+00
  1.533996e+01    5.446470e+00
  1.535584e+01    4.820622e+00
  1.537171e+01    4.299592e+00
  1.538759e+01    3.857986e+00
  1.540346e+01    3.419748e+00
  1.541934e+01    3.006232e+00
  1.543521e+01    2.781206e+00
  1.545109e+01    2.612625e+00
  1.546697e+01    2.426605e+00
  1.548284e+01    2.336697e+00
  1.549872e+01    2.230001e+00
  1.551459e+01    2.156950e+00
  1.553047e+01    2.113755e+00
  1.554634e+01    2.079860e+00
  1.556222e+01    2.012512e+00
  1.557809e+01    1.983892e+00
  1.559397e+01    1.909662e+00
  1.560985e+01    1.895338e+00
  1.562572e+01    1.860738e+00
  1.564160e+01    1.834269e+00
  1.565747e+01    1.828498e+00
  1.567335e+01    1.806169e+00
  1.568922e+01    1.796670e+00
  1.570510e+01    1.772054e+00
  1.572097e+01    1.770056e+00
  1.573685e+01    1.754093e+00
  1.575273e+01    1.732483e+00
  1.576860e+01    1.713623e+00
  1.578448e+01    1.714653e+00
  1.580035e+01    1.725514e+00
  1.581623e+01    1.707501e+00
  1.583210e+01    1.711666e+00
  1.584798e+01    1.664859e+00
  1.586385e+01    1.637529e+00
  1.587973e+01    1.667686e+00
  1.589561e+01    1.707898e+00
  1.591148e+01    1.656426e+00
  1.592736e+01    1.606683e+00
  1.594323e+01    1.647821e+00
  1.595911e+01    1.652638e+00
  1.597498e+01    1.631157e+00
  1.599086e+01    1.606262e+00
  1.600673e+01    1.650131e+00
  1.602261e+01    1.658404e+00
  1.603849e+01    1.644261e+00
  1.605436e+01    1.649875e+00
  1.607024e+01    1.630691e+00
  1.608611e+01    1.604499e+00
  1.610199e+01    1.611081e+00
  1.611786e+01    1.603789e+00
  1.613374e+01    1.595018e+00
  1.614961e+01    1.593623e+00
  1.616549e+01    1.581265e+00
  1.618137e+01    1.568566e+00
  1.619724e+01    1.585489e+00
  1.621312e+01    1.601633e+00
  1.622899e+01    1.603852e+00
  1.624487e+01    1.574751e+00
  1.626074e+01    1.526784e+00
  1.627662e+01    1.542492e+00
  1.629250e+01    1.554086e+00
  1.630837e+01    1.542577e+00
  1.632425e+01    1.559201e+00
  1.634012e+01    1.555188e+00
  1.635600e+01    1.553972e+00
  1.637187e+01    1.551480e+00
  1.638775e+01    1.552962e+00
  1.640362e+01    1.571939e+00
  1.641950e+01    1.570357e+00
  1.643538e+01    1.562848e+00
  1.645125e+01    1.582888e+00
  1.646713e+01    1.567143e+00
  1.648300e+01    1.487871e+00
  1.649888e+01    1.486248e+00
  1.651475e+01    1.524783e+00
  1.653063e+01    1.520439e+00
  1.654650e+01    1.549603e+00
  1.656238e+01    1.556776e+00
  1.657826e+01    1.560035e+00
  1.659413e+01    1.519235e+00
  1.661001e+01    1.501915e+00
  1.662588e+01    1.514030e+00
  1.664176e+01    1.549629e+00
  1.665763e+01    1.530783e+00
  1.667351e+01    1.490778e+00
  1.668938e+01    1.492330e+00
  1.670526e+01    1.522835e+00
  1.672114e+01    1.513176e+00
  1.673701e+01    1.492902e+00
  1.675289e+01    1.481082e+00
  1.676876e+01    1.501123e+00
  1.678464e+01    1.492751e+00
  1.680051e+01    1.469446e+00
  1.681639e+01    1.472588e+00
  1.683226e+01    1.472308e+00
  1.684814e+01    1.467986e+00
  1.686402e+01    1.496079e+00
  1.687989e+01    1.477052e+00
  1.689577e+01    1.463918e+00
  1.691164e+01    1.439526e+00
  1.692752e+01    1.490408e+00
  1.694339e+01    1.463061e+00
  1.695927e+01    1.451237e+00
  1.697514e+01    1.454869e+00
  1.699102e+01    1.452332e+00
  1.700690e+01    1.438720e+00
  1.702277e+01    1.424003e+00
  1.703865e+01    1.437740e+00
  1.705452e+01    1.454017e+00
  1.707040e+01    1.440745e+00
  1.708627e+01    1.438737e+00
  1.710215e+01    1.427287e+00
  1.711802e+01    1.434782e+00
  1.713390e+01    1.421004e+00
  1.714978e+01    1.411384e+00
  1.716565e+01    1.414845e+00
  1.718153e+01    1.409350e+00
  1.719740e+01    1.439811e+00
  1.721328e+01    1.402159e+00
  1.722915e+01    1.399703e+00
  1.724503e+01    1.423055e+00
  1.726091e+01    1.420063e+00
  1.727678e+01    1.392040e+00
  1.729266e+01    1.406308e+00
  1.730853e+01    1.403864e+00
  1.732441e+01    1.423759e+00
  1.734028e+01    1.399825e+00
  1.735616e+01    1.400709e+00
  1.737203e+01    1.386514e+00
  1.738791e+01    1.400606e+00
  1.740379e+01    1.389154e+00
  1.741966e+01    1.384073e+00
  1.743554e+01    1.377635e+00
  1.745141e+01    1.376567e+00
  1.746729e+01    1.397379e+00
  1.748316e+01    1.411017e+00
  1.749904e+01    1.361616e+00
  1.751491e+01    1.362113e+00
  1.753079e+01    1.382699e+00
  1.754667e+01    1.382563e+00
  1.756254e+01    1.361674e+00
  1.757842e+01    1.360597e+00
  1.759429e+01    1.345052e+00
  1.761017e+01    1.366799e+00
  1.762604e+01    1.383468e+00
  1.764192e+01    1.385997e+00
  1.765779e+01    1.366142e+00
  1.767367e+01    1.369788e+00
  1.768955e+01    1.369017e+00
  1.770542e+01    1.341854e+00
  1.772130e+01    1.334296e+00
  1.773717e+01    1.356741e+00
  1.775305e+01    1.349590e+00
  1.776892e+01    1.347200e+00
  1.778480e+01    1.339401e+00
  1.780067e+01    1.331805e+00
  1.781655e+01    1.320191e+00
  1.783243e+01    1.315469e+00
  1.784830e+01    1.324877e+00
  1.786418e+01    1.349249e+00
  1.788005e+01    1.373631e+00
  1.789593e+01    1.346237e+00
  1.791180e+01    1.343991e+00
  1.792768e+01    1.316231e+00
  1.794355e+01    1.314760e+00
  1.795943e+01    1.302330e+00
  1.797531e+01    1.300078e+00
  1.799118e+01    1.292221e+00
  1.800706e+01    1.321100e+00
  1.802293e+01    1.322071e+00
  1.803881e+01    1.313509e+00
  1.805468e+01    1.316824e+00
  1.807056e+01    1.303810e+00
  1.808643e+01    1.322599e+00
  1.810231e+01    1.304316e+00
  1.811819e+01    1.306783e+00
  1.813406e+01    1.302014e+00
  1.814994e+01    1.320832e+00
  1.816581e+01    1.317507e+00
  1.818169e+01    1.296093e+00
  1.819756e+01    1.281635e+00
  1.821344e+01    1.285475e+00
  1.822932e+01    1.279223e+00
  1.824519e+01    1.287158e+00
  1.826107e+01    1.329886e+00
  1.827694e+01    1.328096e+00
  1.829282e+01    1.290178e+00
  1.830869e+01    1.274344e+00
  1.832457e+01    1.280698e+00
  1.834044e+01    1.272551e+00
  1.835632e+01    1.271542e+00
  1.837220e+01    1.273536e+00
  1.838807e+01    1.276332e+00
  1.840395e+01    1.244732e+00
  1.841982e+01    1.259012e+00
  1.843570e+01    1.269874e+00
  1.845157e+01    1.254560e+00
  1.846745e+01    1.253076e+00
  1.848332e+01    1.256568e+00
  1.849920e+01    1.262110e+00
  1.851508e+01    1.238948e+00
  1.853095e+01    1.232427e+00
  1.854683e+01    1.239690e+00
  1.856270e+01    1.239463e+00
  1.857858e+01    1.276801e+00
  1.859445e+01    1.233564e+00
  1.861033e+01    1.225559e+00
  1.862620e+01    1.233832e+00
  1.864208e+01    1.210748e+00
  1.865796e+01    1.250133e+00
  1.867383e+01    1.244459e+00
  1.868971e+01    1.217101e+00
  1.870558e+01    1.225480e+00
  1.872146e+01    1.246442e+00
  1.873733e+01    1.232766e+00
  1.875321e+01    1.215176e+00
  1.876908e+01    1.228622e+00
  1.878496e+01    1.245710e+00
  1.880084e+01    1.250852e+00
  1.881671e+01    1.232572e+00
  1.883259e+01    1.281319e+00
  1.884846e+01    1.247840e+00
  1.886434e+01    1.219395e+00
  1.888021e+01    1.215404e+00
  1.889609e+01    1.229702e+00
  1.891196e+01    1.247223e+00
  1.892784e+01    1.212767e+00
  1.894372e+01    1.227062e+00
  1.895959e+01    1.223507e+00
  1.897547e+01    1.223520e+00
  1.899134e+01    1.209865e+00
  1.900722e+01    1.205058e+00
  1.902309e+01    1.199622e+00
  1.903897e+01    1.207719e+00
  1.905484e+01    1.204521e+00
  1.907072e+01    1.161330e+00
  1.908660e+01    1.191885e+00
  1.910247e+01    1.189821e+00
  1.911835e+01    1.214094e+00
  1.913422e+01    1.225511e+00
  1.915010e+01    1.193911e+00
  1.916597e+01    1.167452e+00
  1.918185e+01    1.188964e+00
  1.919773e+01    1.185996e+00
  1.921360e+01    1.192675e+00
  1.922948e+01    1.183813e+00
  1.924535e+01    1.190232e+00
  1.926123e+01    1.198489e+00
  1.927710e+01    1.188417e+00
  1.929298e+01    1.195177e+00
  1.930885e+01    1.202325e+00
  1.932473e+01    1.188816e+00
  1.934061e+01    1.184415e+00
  1.935648e+01    1.184647e+00
  1.937236e+01    1.184496e+00
  1.938823e+01    1.193725e+00
  1.940411e+01    1.201919e+00
  1.941998e+01    1.208479e+00
  1.943586e+01    1.190162e+00
  1.945173e+01    1.187100e+00
  1.946761e+01    1.197591e+00
  1.948349e+01    1.186528e+00
  1.949936e+01    1.171769e+00
  1.951524e+01    1.184987e+00
  1.953111e+01    1.195233e+00
  1.954699e+01    1.211425e+00
  1.956286e+01    1.208475e+00
  1.957874e+01    1.149097e+00
  1.959461e+01    1.142471e+00
  1.961049e+01    1.178895e+00
  1.962637e+01    1.179003e+00
  1.964224e+01    1.151581e+00
  1.965812e+01    1.173150e+00
  1.967399e+01    1.188720e+00
  1.968987e+01    1.177047e+00
  1.970574e+01    1.164713e+00
  1.972162e+01    1.178692e+00
  1.973749e+01    1.174107e+00
  1.975337e+01    1.165351e+00
  1.976925e+01    1.178814e+00
  1.978512e+01    1.153676e+00
  1.980100e+01    1.153537e+00
  1.981687e+01    1.152686e+00
  1.983275e+01    1.159297e+00
  1.984862e+01    1.143072e+00
  1.986450e+01    1.145836e+00
  1.988037e+01    1.163969e+00
  1.989625e+01    1.182605e+00
  1.991213e+01    1.147968e+00
  1.992800e+01    1.142360e+00
  1.994388e+01    1.159725e+00
  1.995975e+01    1.150738e+00
  1.997563e+01    1.148000e+00
  1.999150e+01    1.130158e+00
  2.000738e+01    1.126347e+00
  2.002325e+01    1.121964e+00
  2.003913e+01    1.147872e+00
  2.005501e+01    1.145854e+00
  2.007088e+01    1.141218e+00
  2.008676e+01    1.116471e+00
  2.010263e+01    1.114270e+00
  2.011851e+01    1.131757e+00
  2.013438e+01    1.132346e+00
  2.015026e+01    1.146591e+00
  2.016614e+01    1.143073e+00
  2.018201e+01    1.154193e+00
  2.019789e+01    1.141826e+00
  2.021376e+01    1.133535e+00
  2.022964e+01    1.125147e+00
  2.024551e+01    1.110011e+00
  2.026139e+01    1.142039e+00
  2.027726e+01    1.129559e+00
  2.029314e+01    1.118770e+00
  2.030902e+01    1.136729e+00
  2.032489e+01    1.130341e+00
  2.034077e+01    1.119531e+00
  2.035664e+01    1.117507e+00
  2.037252e+01    1.102891e+00
  2.038839e+01    1.087189e+00
  2.040427e+01    1.103467e+00
  2.042014e+01    1.087811e+00
  2.043602e+01    1.101204e+00
  2.045190e+01    1.120497e+00
  2.046777e+01    1.115250e+00
  2.048365e+01    1.111595e+00
  2.049952e+01    1.093191e+00
  2.051540e+01    1.081499e+00
  2.053127e+01    1.128971e+00
  2.054715e+01    1.100830e+00
  2.056302e+01    1.095538e+00
  2.057890e+01    1.092786e+00
  2.059478e+01    1.080816e+00
  2.061065e+01    1.113838e+00
  2.062653e+01    1.130644e+00
  2.064240e+01    1.122380e+00
  2.065828e+01    1.089186e+00
  2.067415e+01    1.086600e+00
  2.069003e+01    1.089995e+00
  2.070590e+01    1.092026e+00
  2.072178e+01    1.120825e+00
  2.073766e+01    1.098528e+00
  2.075353e+01    1.095134e+00
  2.076941e+01    1.113898e+00
  2.078528e+01    1.094402e+00
  2.080116e+01    1.097939e+00
  2.081703e+01    1.090072e+00
  2.083291e+01    1.094598e+00
  2.084878e+01    1.110206e+00
  2.086466e+01    1.096421e+00
  2.088054e+01    1.107012e+00
  2.089641e+01    1.099878e+00
  2.091229e+01    1.089257e+00
  2.092816e+01    1.086797e+00
  2.094404e+01    1.098755e+00
  2.095991e+01    1.085477e+00
  2.097579e+01    1.077507e+00
  2.099166e+01    1.094375e+00
  2.100754e+01    1.114886e+00
  2.102342e+01    1.112475e+00
  2.103929e+01    1.094631e+00
  2.105517e+01    1.095765e+00
  2.107104e+01    1.078188e+00
  2.108692e+01    1.073997e+00
  2.110279e+01    1.088711e+00
  2.111867e+01    1.103982e+00
  2.113455e+01    1.114497e+00
  2.115042e+01    1.090957e+00
  2.116630e+01    1.095572e+00
  2.118217e+01    1.101669e+00
  2.119805e+01    1.117292e+00
  2.121392e+01    1.126848e+00
  2.122980e+01    1.105805e+00
  2.124567e+01    1.099818e+00
  2.126155e+01    1.110642e+00
  2.127743e+01    1.116233e+00
  2.129330e+01    1.147645e+00
  2.130918e+01    1.165016e+00
  2.132505e+01    1.140927e+00
  2.134093e+01    1.144193e+00
  2.135680e+01    1.158623e+00
  2.137268e+01    1.156722e+00
  2.138855e+01    1.175408e+00
  2.140443e+01    1.198115e+00
  2.142031e+01    1.207263e+00
  2.143618e+01    1.192355e+00
  2.145206e+01    1.221471e+00
  2.146793e+01    1.241980e+00
  2.148381e+01    1.273170e+00
  2.149968e+01    1.278193e+00
  2.151556e+01    1.318833e+00
  2.153143e+01    1.356243e+00
  2.154731e+01    1.369753e+00
  2.156319e+01    1.414706e+00
  2.157906e+01    1.442994e+00
  2.159494e+01    1.526096e+00
  2.161081e+01    1.587421e+00
  2.162669e+01    1.650623e+00
  2.164256e+01    1.765831e+00
  2.165844e+01    1.875357e+00
  2.167431e+01    1.987637e+00
  2.169019e+01    2.180419e+00
  2.170607e+01    2.368162e+00
  2.172194e+01    2.611406e+00
  2.173782e+01    2.921279e+00
  2.175369e+01    3.335141e+00
  2.176957e+01    3.764883e+00
  2.178544e+01    4.324143e+00
  2.180132e+01    4.974942e+00
  2.181719e+01    5.685081e+00
  2.183307e+01    6.483408e+00
  2.184895e+01    7.322867e+00
  2.186482e+01    8.149960e+00
  2.188070e+01    9.068119e+00
  2.189657e+01    9.869076e+00
  2.191245e+01    1.053677e+01
  2.192832e+01    1.082375e+01
  2.194420e+01    1.069418e+01
  2.196007e+01    1.001035e+01
  2.197595e+01    9.095424e+00
  2.199183e+01    7.956433e+00
  2.200770e+01    6.774873e+00
  2.202358e+01    5.725834e+00
  2.203945e+01    4.848449e+00
  2.205533e+01    4.106907e+00
  2.207120e+01    3.559763e+00
  2.208708e+01    3.132912e+00
  2.210296e+01    2.794143e+00
  2.211883e+01    2.489068e+00
  2.213471e+01    2.267673e+00
  2.215058e+01    2.072104e+00
  2.216646e+01    1.930441e+00
  2.218233e+01    1.789978e+00
  2.219821e+01    1.715615e+00
  2.221408e+01    1.607959e+00
  2.222996e+01    1.521195e+00
  2.224584e+01    1.473271e+00
  2.226171e+01    1.424675e+00
  2.227759e+01    1.377033e+00
  2.229346e+01    1.355611e+00
  2.230934e+01    1.276821e+00
  2.232521e+01    1.198962e+00
  2.234109e+01    1.191807e+00
  2.235696e+01    1.208374e+00
  2.237284e+01    1.200438e+00
  2.238872e+01    1.156617e+00
  2.240459e+01    1.130450e+00
  2.242047e+01    1.099729e+00
  2.243634e+01    1.100299e+00
  2.245222e+01    1.105077e+00
  2.246809e+01    1.079516e+00
  2.248397e+01    1.077718e+00
  2.249984e+01    1.060060e+00
  2.251572e+01    1.035926e+00
  2.253160e+01    1.051637e+00
  2.254747e+01    1.033577e+00
  2.256335e+01    1.033076e+00
  2.257922e+01    1.013859e+00
  2.259510e+01    1.001865e+00
  2.261097e+01    1.011949e+00
  2.262685e+01    1.001085e+00
  2.264272e+01    9.839795e-01
  2.265860e+01    9.713058e-01
  2.267448e+01    9.936827e-01
  2.269035e+01    9.838610e-01
  2.270623e+01    9.741995e-01
  2.272210e+01    9.917963e-01
  2.273798e+01    9.851322e-01
  2.275385e+01    9.675236e-01
  2.276973e+01    9.803473e-01
  2.278560e+01    9.827637e-01
  2.280148e+01    9.508125e-01
  2.281736e+01    9.414330e-01
  2.283323e+01    9.537395e-01
  2.284911e+01    9.653688e-01
  2.286498e+01    9.600043e-01
  2.288086e+01    9.260498e-01
  2.289673e+01    9.193038e-01
  2.291261e+01    9.331145e-01
  2.292848e+01    9.267764e-01
  2.294436e+01    9.316168e-01
  2.296024e+01    9.388691e-01
  2.297611e+01    9.210377e-01
  2.299199e+01    9.232384e-01
  2.300786e+01    9.134700e-01
  2.302374e+01    9.123305e-01
  2.303961e+01    9.107786e-01
  2.305549e+01    9.063692e-01
  2.307137e+01    8.887050e-01
  2.308724e+01    8.879792e-01
  2.310312e+01    8.929527e-01
  2.311899e+01    8.849133e-01
  2.313487e+01    9.019563e-01
  2.315074e+01    8.855860e-01
  2.316662e+01    8.937817e-01
  2.318249e+01    9.008347e-01
  2.319837e+01    9.106417e-01
  2.321425e+01    8.915547e-01
  2.323012e+01    8.768610e-01
  2.324600e+01    9.024556e-01
  2.326187e+01    8.991596e-01
  2.327775e+01    8.882896e-01
  2.329362e+01    8.708171e-01
  2.330950e+01    8.721480e-01
  2.332537e+01    8.776581e-01
  2.334125e+01    8.729619e-01
  2.335713e+01    8.793783e-01
  2.337300e+01    8.841711e-01
  2.338888e+01    8.939320e-01
  2.340475e+01    8.819541e-01
  2.342063e+01    8.680876e-01
  2.343650e+01    8.684911e-01
  2.345238e+01    8.586096e-01
  2.346825e+01    8.645115e-01
  2.348413e+01    8.587270e-01
  2.350001e+01    8.464597e-01
  2.351588e+01    8.629609e-01
  2.353176e+01    8.556133e-01
  2.354763e+01    8.596201e-01
  2.356351e+01    8.486041e-01
  2.357938e+01    8.618458e-01
  2.359526e+01    8.567030e-01
  2.361113e+01    8.513907e-01
  2.362701e+01    8.704369e-01
  2.364289e+01    8.526925e-01
  2.365876e+01    8.304498e-01
  2.367464e+01    8.381287e-01
  2.369051e+01    8.632259e-01
  2.370639e+01    8.550589e-01
  2.372226e+01    8.505865e-01
  2.373814e+01    8.365008e-01
  2.375401e+01    8.347633e-01
  2.376989e+01    8.451676e-01
  2.378577e+01    8.359960e-01
  2.380164e+01    8.174013e-01
  2.381752e+01    8.271191e-01
  2.383339e+01    8.297022e-01
  2.384927e+01    8.189753e-01
  2.386514e+01    7.980892e-01
  2.388102e+01    7.982953e-01
  2.389689e+01    8.222297e-01
  2.391277e+01    8.286132e-01
  2.392865e+01    8.373894e-01
  2.394452e+01    8.216946e-01
  2.396040e+01    8.226403e-01
  2.397627e+01    8.376536e-01
  2.399215e+01    8.239510e-01
  2.400802e+01    8.201302e-01
  2.402390e+01    8.160164e-01
  2.403978e+01    8.198325e-01
  2.405565e+01    7.974984e-01
  2.407153e+01    7.871529e-01
  2.408740e+01    7.882111e-01
  2.410328e+01    8.055032e-01
  2.411915e+01    8.042860e-01
  2.413503e+01    7.997942e-01
  2.415090e+01    8.066385e-01
  2.416678e+01    7.921583e-01
  2.418266e+01    7.884921e-01
  2.419853e+01    8.070336e-01
  2.421441e+01    8.015557e-01
  2.423028e+01    8.104491e-01
  2.424616e+01    8.066149e-01
  2.426203e+01    8.098419e-01
  2.427791e+01    8.047954e-01
  2.429378e+01    8.017450e-01
  2.430966e+01    7.975447e-01
  2.432554e+01    7.882954e-01
  2.434141e+01    7.847843e-01
  2.435729e+01    7.885144e-01
  2.437316e+01    7.966694e-01
  2.438904e+01    8.045491e-01
  2.440491e+01    8.130146e-01
  2.442079e+01    8.158018e-01
  2.443666e+01    8.065272e-01
  2.445254e+01    8.069178e-01
  2.446842e+01    8.076547e-01
  2.448429e+01    8.086034e-01
  2.450017e+01    8.101801e-01
  2.451604e+01    8.179521e-01
  2.453192e+01    8.017381e-01
  2.454779e+01    8.052008e-01
  2.456367e+01    8.052648e-01
  2.457954e+01    8.122031e-01
  2.459542e+01    8.019065e-01
  2.461130e+01    8.229864e-01
  2.462717e+01    8.169705e-01
  2.464305e+01    7.989489e-01
  2.465892e+01    8.147412e-01
  2.467480e+01    7.887951e-01
  2.469067e+01    7.879047e-01
  2.470655e+01    8.065106e-01
  2.472242e+01    7.912754e-01
  2.473830e+01    8.026105e-01
  2.475418e+01    8.130226e-01
  2.477005e+01    7.992209e-01
  2.478593e+01    8.011604e-01
  2.480180e+01    7.872975e-01
  2.481768e+01    7.947515e-01
  2.483355e+01    8.041813e-01
  2.484943e+01    8.131271e-01
  2.486530e+01    8.033210e-01
  2.488118e+01    8.032817e-01
  2.489706e+01    8.175666e-01
  2.491293e+01    8.026627e-01
  2.492881e+01    8.018481e-01
  2.494468e+01    8.035984e-01
  2.496056e+01    8.173015e-01
  2.497643e+01    8.307952e-01
  2.499231e+01    8.184601e-01
  2.500819e+01    8.108295e-01
  2.502406e+01    8.240604e-01
  2.503994e+01    8.234601e-01
  2.505581e+01    8.342881e-01
  2.507169e+01    8.241664e-01
  2.508756e+01    8.194375e-01
  2.510344e+01    8.370445e-01
  2.511931e+01    8.440043e-01
  2.513519e+01    8.421202e-01
  2.515107e+01    8.442190e-01
  2.516694e+01    8.551487e-01
  2.518282e+01    8.576494e-01
  2.519869e+01    8.587951e-01
  2.521457e+01    8.729441e-01
  2.523044e+01    8.478567e-01
  2.524632e+01    8.522252e-01
  2.526219e+01    8.819095e-01
  2.527807e+01    8.864619e-01
  2.529395e+01    8.784247e-01
  2.530982e+01    8.454609e-01
  2.532570e+01    8.641415e-01
  2.534157e+01    8.820102e-01
  2.535745e+01    8.804908e-01
  2.537332e+01    8.978857e-01
  2.538920e+01    9.224868e-01
  2.540507e+01    9.319521e-01
  2.542095e+01    9.207948e-01
  2.543683e+01    9.394675e-01
  2.545270e+01    9.466422e-01
  2.546858e+01    9.511536e-01
  2.548445e+01    9.648637e-01
  2.550033e+01    9.527629e-01
  2.551620e+01    9.883221e-01
  2.553208e+01    1.004914e+00
  2.554795e+01    1.025875e+00
  2.556383e+01    1.053138e+00
  2.557971e+01    1.062173e+00
  2.559558e+01    1.083572e+00
  2.561146e+01    1.104764e+00
  2.562733e+01    1.143195e+00
  2.564321e+01    1.166968e+00
  2.565908e+01    1.220150e+00
  2.567496e+01    1.276727e+00
  2.569083e+01    1.346381e+00
  2.570671e+01    1.436830e+00
  2.572259e+01    1.521289e+00
  2.573846e+01    1.604017e+00
  2.575434e+01    1.732138e+00
  2.577021e+01    1.861691e+00
  2.578609e+01    2.046698e+00
  2.580196e+01    2.281842e+00
  2.581784e+01    2.570994e+00
  2.583371e+01    2.869512e+00
  2.584959e+01    3.258330e+00
  2.586547e+01    3.767095e+00
  2.588134e+01    4.332687e+00
  2.589722e+01    5.013786e+00
  2.591309e+01    5.698280e+00
  2.592897e+01    6.489994e+00
  2.594484e+01    7.303133e+00
  2.596072e+01    8.025408e+00
  2.597660e+01    8.606999e+00
  2.599247e+01    8.952119e+00
  2.600835e+01    8.976321e+00
  2.602422e+01    8.661695e+00
  2.604010e+01    8.025212e+00
  2.605597e+01    7.214879e+00
  2.607185e+01    6.271846e+00
  2.608772e+01    5.316590e+00
  2.610360e+01    4.543417e+00
  2.611948e+01    3.915303e+00
  2.613535e+01    3.388433e+00
  2.615123e+01    2.928239e+00
  2.616710e+01    2.640254e+00
  2.618298e+01    2.339268e+00
  2.619885e+01    2.049871e+00
  2.621473e+01    1.892189e+00
  2.623060e+01    1.772143e+00
  2.624648e+01    1.649716e+00
  2.626236e+01    1.542816e+00
  2.627823e+01    1.436714e+00
  2.629411e+01    1.377531e+00
  2.630998e+01    1.308563e+00
  2.632586e+01    1.265002e+00
  2.634173e+01    1.221179e+00
  2.635761e+01    1.155666e+00
  2.637348e+01    1.125846e+00
  2.638936e+01    1.124090e+00
  2.640524e+01    1.090781e+00
  2.642111e+01    1.060638e+00
  2.643699e+01    1.018350e+00
  2.645286e+01    1.056144e+00
  2.646874e+01    1.053418e+00
  2.648461e+01    1.001420e+00
  2.650049e+01    9.929019e-01
  2.651636e+01    9.953732e-01
  2.653224e+01    9.768074e-01
  2.654812e+01    9.582629e-01
  2.656399e+01    9.838935e-01
  2.657987e+01    9.812388e-01
  2.659574e+01    9.429980e-01
  2.661162e+01    9.444199e-01
  2.662749e+01    9.408171e-01
  2.664337e+01    9.412402e-01
  2.665924e+01    9.357842e-01
  2.667512e+01    9.411184e-01
  2.669100e+01    9.276230e-01
  2.670687e+01    9.214514e-01
  2.672275e+01    9.276651e-01
  2.673862e+01    9.246857e-01
  2.675450e+01    9.094506e-01
  2.677037e+01    9.286322e-01
  2.678625e+01    9.302030e-01
  2.680212e+01    9.214292e-01
  2.681800e+01    9.083403e-01
  2.683388e+01    9.289804e-01
  2.684975e+01    9.414572e-01
  2.686563e+01    9.305622e-01
  2.688150e+01    9.369645e-01
  2.689738e+01    9.557073e-01
  2.691325e+01    9.369804e-01
  2.692913e+01    9.292293e-01
  2.694501e+01    9.354346e-01
  2.696088e+01    9.622997e-01
  2.697676e+01    9.752238e-01
  2.699263e+01    9.932905e-01
  2.700851e+01    9.999255e-01
  2.702438e+01    1.027701e+00
  2.704026e+01    1.084817e+00
  2.705613e+01    1.095616e+00
  2.707201e+01    1.150357e+00
  2.708789e+01    1.221195e+00
  2.710376e+01    1.280789e+00
  2.711964e+01    1.363511e+00
  2.713551e+01    1.484064e+00
  2.715139e+01    1.585404e+00
  2.716726e+01    1.753113e+00
  2.718314e+01    1.936434e+00
  2.719901e+01    2.096251e+00
  2.721489e+01    2.285771e+00
  2.723077e+01    2.446610e+00
  2.724664e+01    2.568498e+00
  2.726252e+01    2.625185e+00
  2.727839e+01    2.559313e+00
  2.729427e+01    2.430239e+00
  2.731014e+01    2.281996e+00
  2.732602e+01    2.072567e+00
  2.734189e+01    1.864465e+00
  2.735777e+01    1.704849e+00
  2.737365e+01    1.547611e+00
  2.738952e+01    1.458133e+00
  2.740540e+01    1.340276e+00
  2.742127e+01    1.274453e+00
  2.743715e+01    1.167196e+00
  2.745302e+01    1.142064e+00
  2.746890e+01    1.089277e+00
  2.748477e+01    1.071200e+00
  2.750065e+01    1.029238e+00
  2.751653e+01    1.003483e+00
  2.753240e+01    9.830112e-01
  2.754828e+01    9.341962e-01
  2.756415e+01    9.166186e-01
  2.758003e+01    9.383536e-01
  2.759590e+01    9.132559e-01
  2.761178e+01    8.917986e-01
  2.762765e+01    8.868083e-01
  2.764353e+01    8.761808e-01
  2.765941e+01    8.949071e-01
  2.767528e+01    8.891696e-01
  2.769116e+01    8.650640e-01
  2.770703e+01    8.609160e-01
  2.772291e+01    8.437487e-01
  2.773878e+01    8.384511e-01
  2.775466e+01    8.463459e-01
  2.777054e+01    8.411685e-01
  2.778641e+01    8.490665e-01
  2.780229e+01    8.297062e-01
  2.781816e+01    8.183989e-01
  2.783404e+01    8.494337e-01
  2.784991e+01    8.378794e-01
  2.786579e+01    7.931824e-01
  2.788166e+01    8.107538e-01
  2.789754e+01    8.367456e-01
  2.791342e+01    8.259040e-01
  2.792929e+01    8.186147e-01
  2.794517e+01    8.051956e-01
  2.796104e+01    8.062378e-01
  2.797692e+01    8.259348e-01
  2.799279e+01    8.059514e-01
  2.800867e+01    7.832429e-01
  2.802454e+01    8.036500e-01
  2.804042e+01    8.023745e-01
  2.805630e+01    7.923483e-01
  2.807217e+01    8.154582e-01
  2.808805e+01    8.004692e-01
  2.810392e+01    7.999389e-01
  2.811980e+01    7.990170e-01
  2.813567e+01    7.978562e-01
  2.815155e+01    7.922573e-01
  2.816742e+01    7.999404e-01
  2.818330e+01    8.201940e-01
  2.819918e+01    8.013032e-01
  2.821505e+01    7.772087e-01
  2.823093e+01    8.013300e-01
  2.824680e+01    7.941139e-01
  2.826268e+01    7.986312e-01
  2.827855e+01    7.951953e-01
  2.829443e+01    7.990606e-01
  2.831030e+01    8.008061e-01
  2.832618e+01    8.060028e-01
  2.834206e+01    7.934336e-01
  2.835793e+01    7.538093e-01
  2.837381e+01    7.502506e-01
  2.838968e+01    7.742560e-01
  2.840556e+01    8.055502e-01
  2.842143e+01    7.980694e-01
  2.843731e+01    7.897915e-01
  2.845318e+01    7.757681e-01
  2.846906e+01    7.666194e-01
  2.848494e+01    7.716798e-01
  2.850081e+01    7.792267e-01
  2.851669e+01    7.735739e-01
  2.853256e+01    7.794157e-01
  2.854844e+01    7.789707e-01
  2.856431e+01    7.606701e-01
  2.858019e+01    7.685162e-01
  2.859606e+01    7.520231e-01
  2.861194e+01    7.675841e-01
  2.862782e+01    7.714822e-01
  2.864369e+01    7.624233e-01
  2.865957e+01    7.508736e-01
  2.867544e+01    7.531370e-01
  2.869132e+01    7.792216e-01
  2.870719e+01    7.781923e-01
  2.872307e+01    7.723534e-01
  2.873895e+01    7.558804e-01
  2.875482e+01    7.750071e-01
  2.877070e+01    7.639487e-01
  2.878657e+01    7.670158e-01
  2.880245e+01    7.725956e-01
  2.881832e+01    7.756959e-01
  2.883420e+01    7.710927e-01
  2.885007e+01    7.580683e-01
  2.886595e+01    7.732971e-01
  2.888183e+01    7.576160e-01
  2.889770e+01    7.452331e-01
  2.891358e+01    7.497733e-01
  2.892945e+01    7.606050e-01
  2.894533e+01    7.721760e-01
  2.896120e+01    7.547243e-01
  2.897708e+01    7.398085e-01
  2.899295e+01    7.310393e-01
  2.900883e+01    7.588071e-01
  2.902471e+01    7.561699e-01
  2.904058e+01    7.684506e-01
  2.905646e+01    7.565297e-01
  2.907233e+01    7.454884e-01
  2.908821e+01    7.263707e-01
  2.910408e+01    7.423486e-01
  2.911996e+01    7.497318e-01
  2.913583e+01    7.369006e-01
  2.915171e+01    7.331629e-01
  2.916759e+01    7.499789e-01
  2.918346e+01    7.366040e-01
  2.919934e+01    7.315415e-01
  2.921521e+01    7.569155e-01
  2.923109e+01    7.642350e-01
  2.924696e+01    7.590814e-01
  2.926284e+01    7.273521e-01
  2.927871e+01    7.349899e-01
  2.929459e+01    7.534390e-01
  2.931047e+01    7.134280e-01
  2.932634e+01    7.421016e-01
  2.934222e+01    7.283468e-01
  2.935809e+01    7.322440e-01
  2.937397e+01    7.375666e-01
  2.938984e+01    7.458123e-01
  2.940572e+01    7.665489e-01
  2.942159e+01    7.699478e-01
  2.943747e+01    7.342137e-01
  2.945335e+01    7.516162e-01
  2.946922e+01    7.423493e-01
  2.948510e+01    7.262968e-01
  2.950097e+01    7.440201e-01
  2.951685e+01    7.438121e-01
  2.953272e+01    7.528332e-01
  2.954860e+01    7.408466e-01
  2.956447e+01    7.441555e-01
  2.958035e+01    7.394724e-01
  2.959623e+01    7.291579e-01
  2.961210e+01    7.170886e-01
  2.962798e+01    7.282733e-01
  2.964385e+01    7.384801e-01
  2.965973e+01    7.473370e-01
  2.967560e+01    7.364975e-01
  2.969148e+01    7.451932e-01
  2.970736e+01    7.502621e-01
  2.972323e+01    7.423144e-01
  2.973911e+01    7.373040e-01
  2.975498e+01    7.417064e-01
  2.977086e+01    7.550305e-01
  2.978673e+01    7.501797e-01
  2.980261e+01    7.388077e-01
  2.981848e+01    7.184747e-01
  2.983436e+01    7.226882e-01
  2.985024e+01    7.406589e-01
  2.986611e+01    7.264748e-01
  2.988199e+01    7.297849e-01
  2.989786e+01    7.432910e-01
  2.991374e+01    7.456599e-01
  2.992961e+01    7.535602e-01
  2.994549e+01    7.510744e-01
  2.996136e+01    7.335871e-01
  2.997724e+01    7.293300e-01
  2.999312e+01    7.147451e-01
  3.000899e+01    7.635052e-01
  3.002487e+01    7.469418e-01
  3.004074e+01    7.592183e-01
  3.005662e+01    7.706801e-01
  3.007249e+01    7.382198e-01
  3.008837e+01    7.483109e-01
  3.010424e+01    7.259595e-01
  3.012012e+01    7.357585e-01
  3.013600e+01    7.470100e-01
  3.015187e+01    7.372020e-01
  3.016775e+01    7.347120e-01
  3.018362e+01    7.363272e-01
  3.019950e+01    7.405463e-01
  3.021537e+01    7.247813e-01
  3.023125e+01    7.215865e-01
  3.024712e+01    7.335063e-01
  3.026300e+01    7.093503e-01
  3.027888e+01    7.145327e-01
  3.029475e+01    7.245275e-01
  3.031063e+01    7.259640e-01
  3.032650e+01    7.204235e-01
  3.034238e+01    7.182577e-01
  3.035825e+01    7.115327e-01
  3.037413e+01    7.287557e-01
  3.039000e+01    7.279361e-01
  3.040588e+01    7.313837e-01
  3.042176e+01    7.240568e-01
  3.043763e+01    7.180483e-01
  3.045351e+01    7.180411e-01
  3.046938e+01    7.315788e-01
  3.048526e+01    7.273946e-01
  3.050113e+01    7.045342e-01
  3.051701e+01    7.195217e-01
  3.053288e+01    7.339854e-01
  3.054876e+01    7.131959e-01
  3.056464e+01    6.975896e-01
  3.058051e+01    7.069033e-01
  3.059639e+01    7.128043e-01
  3.061226e+01    7.267173e-01
  3.062814e+01    7.301984e-01
  3.064401e+01    7.238969e-01
  3.065989e+01    7.200690e-01
  3.067577e+01    7.126860e-01
  3.069164e+01    7.286147e-01
  3.070752e+01    7.489414e-01
  3.072339e+01    7.311811e-01
  3.073927e+01    7.286649e-01
  3.075514e+01    7.395340e-01
  3.077102e+01    7.444248e-01
  3.078689e+01    7.373935e-01
  3.080277e+01    7.247134e-01
  3.081865e+01    7.288011e-01
  3.083452e+01    7.259707e-01
  3.085040e+01    7.187243e-01
  3.086627e+01    7.099888e-01
  3.088215e+01    7.362378e-01
  3.089802e+01    7.441452e-01
  3.091390e+01    7.301707e-01
  3.092977e+01    7.200706e-01
  3.094565e+01    7.286748e-01
  3.096153e+01    7.065448e-01
  3.097740e+01    7.308413e-01
  3.099328e+01    7.210565e-01
  3.100915e+01    7.120775e-01
  3.102503e+01    7.130005e-01
  3.104090e+01    7.134622e-01
  3.105678e+01    7.513538e-01
  3.107265e+01    7.483227e-01
  3.108853e+01    7.378532e-01
  3.110441e+01    7.072561e-01
  3.112028e+01    7.262335e-01
  3.113616e+01    7.154089e-01
  3.115203e+01    7.407374e-01
  3.116791e+01    7.445523e-01
  3.118378e+01    7.497063e-01
  3.119966e+01    7.452945e-01
  3.121553e+01    7.352928e-01
  3.123141e+01    7.415079e-01
  3.124729e+01    7.452880e-01
  3.126316e+01    7.264294e-01
  3.127904e+01    7.315907e-01
  3.129491e+01    7.534211e-01
  3.131079e+01    7.757640e-01
  3.132666e+01    7.565196e-01
  3.134254e+01    7.285292e-01
  3.135841e+01    7.503999e-01
  3.137429e+01    7.453058e-01
  3.139017e+01    7.398788e-01
  3.140604e+01    7.767108e-01
  3.142192e+01    7.911983e-01
  3.143779e+01    7.889516e-01
  3.145367e+01    7.939447e-01
  3.146954e+01    7.963127e-01
  3.148542e+01    7.822643e-01
  3.150129e+01    7.822618e-01
  3.151717e+01    7.871178e-01
  3.153305e+01    7.872412e-01
  3.154892e+01    8.004717e-01
  3.156480e+01    8.166099e-01
  3.158067e+01    8.241113e-01
  3.159655e+01    8.059279e-01
  3.161242e+01    8.256091e-01
  3.162830e+01    8.509696e-01
  3.164418e+01    8.628241e-01
  3.166005e+01    8.623534e-01
  3.167593e+01    8.802579e-01
  3.169180e+01    9.086707e-01
  3.170768e+01    9.587136e-01
  3.172355e+01    9.688212e-01
  3.173943e+01    9.812571e-01
  3.175530e+01    1.030680e+00
  3.177118e+01    1.095831e+00
  3.178706e+01    1.159525e+00
  3.180293e+01    1.210208e+00
  3.181881e+01    1.288264e+00
  3.183468e+01    1.422493e+00
  3.185056e+01    1.587866e+00
  3.186643e+01    1.689328e+00
  3.188231e+01    1.862409e+00
  3.189818e+01    2.073196e+00
  3.191406e+01    2.272269e+00
  3.192994e+01    2.401698e+00
  3.194581e+01    2.488499e+00
  3.196169e+01    2.559761e+00
  3.197756e+01    2.526469e+00
  3.199344e+01    2.410224e+00
  3.200931e+01    2.254418e+00
  3.202519e+01    2.046529e+00
  3.204106e+01    1.838309e+00
  3.205694e+01    1.668937e+00
  3.207282e+01    1.478579e+00
  3.208869e+01    1.341831e+00
  3.210457e+01    1.240691e+00
  3.212044e+01    1.163145e+00
  3.213632e+01    1.101403e+00
  3.215219e+01    1.037879e+00
  3.216807e+01    9.924167e-01
  3.218394e+01    9.332606e-01
  3.219982e+01    9.174744e-01
  3.221570e+01    8.957790e-01
  3.223157e+01    8.580797e-01
  3.224745e+01    8.154538e-01
  3.226332e+01    8.163992e-01
  3.227920e+01    8.348031e-01
  3.229507e+01    8.477862e-01
  3.231095e+01    8.352466e-01
  3.232682e+01    7.959387e-01
  3.234270e+01    7.811922e-01
  3.235858e+01    7.653636e-01
  3.237445e+01    7.559655e-01
  3.239033e+01    7.492245e-01
  3.240620e+01    7.679306e-01
  3.242208e+01    7.630967e-01
  3.243795e+01    7.531474e-01
  3.245383e+01    7.516794e-01
  3.246970e+01    7.470041e-01
  3.248558e+01    7.483196e-01
  3.250146e+01    7.655348e-01
  3.251733e+01    7.650625e-01
  3.253321e+01    7.697584e-01
  3.254908e+01    7.565798e-01
