# == pyFAI calibration ==
# Distance Sample to Detector: 0.3999999939076516 m
# PONI: 9.750e-02, 1.135e-01 m
# Rotations: -0.000175 0.000000 -0.000000 rad
# 
# == Fit2d calibration ==
# Distance Sample-beamCenter: 400.000 mm
# Center: x=1514.000, y=1300.000 pix
# Tilt: 0.010 deg  TiltPlanRot: 0.010 deg
# 
# Detector Detector	 Spline= None	 PixelSize= 7.500e-05, 7.500e-05 m
#    Detector has a mask: False 
#    Detector has a dark current: False 
#    detector has a flat field: False 
# 
# Wavelength: 6.888e-11 m
# Mask applied: user provided
# Dark current applied: False
# Flat field applied: False
# Polarization factor: 0.99
# Normalization factor: 1.0
# --> /home/myspot/data/2024_07_Rosario/Ru-CGO-ex/2024-07-27_002_Ru-CGO-ex_Activtation_ramp_000002_data_000160.dat
#       q_nm^-1             I 
  2.003187e-02    0.000000e+00
  3.590745e-02    0.000000e+00
  5.178302e-02    2.671064e-02
  6.765859e-02    5.597109e-02
  8.353417e-02    7.803435e-02
  9.940974e-02    1.184039e-01
  1.152853e-01    7.575895e-02
  1.311609e-01    7.378082e-02
  1.470365e-01    8.106697e-02
  1.629120e-01    8.809242e-02
  1.787876e-01    6.756940e-02
  1.946632e-01    3.209671e-02
  2.105388e-01    3.762193e-02
  2.264143e-01    3.770743e-02
  2.422899e-01    3.763464e-02
  2.581655e-01    4.907164e-02
  2.740411e-01    5.156330e-02
  2.899166e-01    2.865625e-02
  3.057922e-01    1.074306e-03
  3.216678e-01    1.139244e-02
  3.375433e-01    4.148047e-02
  3.534189e-01    3.229353e-02
  3.692945e-01    1.163590e-02
  3.851701e-01    9.390147e-03
  4.010456e-01    8.696876e-03
  4.169212e-01    0.000000e+00
  4.327968e-01    2.957185e-03
  4.486724e-01    3.633459e-02
  4.645479e-01    6.380991e-02
  4.804235e-01    2.560643e-02
  4.962991e-01    3.882190e-02
  5.121747e-01    5.838488e-02
  5.280502e-01    5.348433e-02
  5.439258e-01    3.465125e-02
  5.598014e-01    3.708523e-02
  5.756770e-01    4.218247e-02
  5.915525e-01    7.222484e-02
  6.074281e-01    4.725103e-02
  6.233037e-01    4.303984e-02
  6.391793e-01    4.414931e-02
  6.550548e-01    4.018116e-02
  6.709304e-01    3.109448e-02
  6.868060e-01    5.536010e-02
  7.026815e-01    4.760078e-02
  7.185571e-01    3.631641e-02
  7.344327e-01    4.391148e-02
  7.503083e-01    6.543353e-02
  7.661838e-01    6.903698e-02
  7.820594e-01    8.861465e-02
  7.979350e-01    1.136680e-01
  8.138106e-01    1.629591e-01
  8.296861e-01    2.481234e-01
  8.455617e-01    3.575782e-01
  8.614373e-01    4.121739e-01
  8.773129e-01    4.290535e-01
  8.931884e-01    4.853474e-01
  9.090640e-01    5.765984e-01
  9.249396e-01    6.103776e-01
  9.408152e-01    6.949652e-01
  9.566907e-01    8.599866e-01
  9.725663e-01    8.419890e-01
  9.884419e-01    9.622092e-01
  1.004317e+00    1.016686e+00
  1.020193e+00    1.034754e+00
  1.036069e+00    1.135145e+00
  1.051944e+00    1.147690e+00
  1.067820e+00    1.261456e+00
  1.083695e+00    1.314995e+00
  1.099571e+00    1.214494e+00
  1.115446e+00    1.307591e+00
  1.131322e+00    1.475115e+00
  1.147198e+00    1.540037e+00
  1.163073e+00    1.610195e+00
  1.178949e+00    1.592906e+00
  1.194824e+00    1.587850e+00
  1.210700e+00    1.906342e+00
  1.226575e+00    2.112482e+00
  1.242451e+00    2.240872e+00
  1.258327e+00    2.364290e+00
  1.274202e+00    2.412695e+00
  1.290078e+00    2.399451e+00
  1.305953e+00    2.398145e+00
  1.321829e+00    2.585126e+00
  1.337705e+00    2.607821e+00
  1.353580e+00    2.584753e+00
  1.369456e+00    2.607652e+00
  1.385331e+00    2.592488e+00
  1.401207e+00    2.511512e+00
  1.417082e+00    2.466482e+00
  1.432958e+00    2.600209e+00
  1.448834e+00    2.683219e+00
  1.464709e+00    2.743594e+00
  1.480585e+00    2.750605e+00
  1.496460e+00    2.602994e+00
  1.512336e+00    2.745843e+00
  1.528211e+00    2.852725e+00
  1.544087e+00    2.811341e+00
  1.559963e+00    2.965730e+00
  1.575838e+00    2.961566e+00
  1.591714e+00    2.931042e+00
  1.607589e+00    2.875613e+00
  1.623465e+00    2.765913e+00
  1.639340e+00    2.821508e+00
  1.655216e+00    2.866302e+00
  1.671092e+00    2.862280e+00
  1.686967e+00    2.809401e+00
  1.702843e+00    2.804893e+00
  1.718718e+00    2.791510e+00
  1.734594e+00    2.752090e+00
  1.750469e+00    2.722403e+00
  1.766345e+00    2.762304e+00
  1.782221e+00    2.754589e+00
  1.798096e+00    2.739182e+00
  1.813972e+00    2.661627e+00
  1.829847e+00    2.717606e+00
  1.845723e+00    2.743163e+00
  1.861598e+00    2.707177e+00
  1.877474e+00    2.653966e+00
  1.893350e+00    2.678968e+00
  1.909225e+00    2.711986e+00
  1.925101e+00    2.720067e+00
  1.940976e+00    2.706400e+00
  1.956852e+00    2.753448e+00
  1.972727e+00    2.698611e+00
  1.988603e+00    2.635314e+00
  2.004479e+00    2.724273e+00
  2.020354e+00    2.814239e+00
  2.036230e+00    2.749570e+00
  2.052105e+00    2.661742e+00
  2.067981e+00    2.637986e+00
  2.083856e+00    2.749315e+00
  2.099732e+00    2.718384e+00
  2.115608e+00    2.778733e+00
  2.131483e+00    2.737170e+00
  2.147359e+00    2.706045e+00
  2.163234e+00    2.683514e+00
  2.179110e+00    2.683689e+00
  2.194985e+00    2.746056e+00
  2.210861e+00    2.698191e+00
  2.226737e+00    2.760024e+00
  2.242612e+00    2.784727e+00
  2.258488e+00    2.737605e+00
  2.274363e+00    2.792393e+00
  2.290239e+00    2.869476e+00
  2.306115e+00    2.797952e+00
  2.321990e+00    2.782833e+00
  2.337866e+00    2.718354e+00
  2.353741e+00    2.799606e+00
  2.369617e+00    2.869734e+00
  2.385492e+00    2.789275e+00
  2.401368e+00    2.754223e+00
  2.417244e+00    2.900575e+00
  2.433119e+00    2.827733e+00
  2.448995e+00    2.785063e+00
  2.464870e+00    2.759156e+00
  2.480746e+00    2.757141e+00
  2.496621e+00    2.784218e+00
  2.512497e+00    2.835140e+00
  2.528373e+00    2.845315e+00
  2.544248e+00    2.793573e+00
  2.560124e+00    2.766912e+00
  2.575999e+00    2.741583e+00
  2.591875e+00    2.786762e+00
  2.607750e+00    2.786683e+00
  2.623626e+00    2.743289e+00
  2.639502e+00    2.788650e+00
  2.655377e+00    2.806852e+00
  2.671253e+00    2.843496e+00
  2.687128e+00    2.821517e+00
  2.703004e+00    2.796621e+00
  2.718879e+00    2.747512e+00
  2.734755e+00    2.746688e+00
  2.750631e+00    2.788943e+00
  2.766506e+00    2.951496e+00
  2.782382e+00    2.904252e+00
  2.798257e+00    2.831428e+00
  2.814133e+00    2.878383e+00
  2.830008e+00    2.862864e+00
  2.845884e+00    2.834414e+00
  2.861760e+00    2.828224e+00
  2.877635e+00    2.784799e+00
  2.893511e+00    2.797680e+00
  2.909386e+00    2.789509e+00
  2.925262e+00    2.850179e+00
  2.941137e+00    2.840551e+00
  2.957013e+00    2.783154e+00
  2.972889e+00    2.898552e+00
  2.988764e+00    2.879762e+00
  3.004640e+00    2.951764e+00
  3.020515e+00    2.993998e+00
  3.036391e+00    3.009884e+00
  3.052266e+00    2.867636e+00
  3.068142e+00    2.838165e+00
  3.084018e+00    2.897126e+00
  3.099893e+00    2.932559e+00
  3.115769e+00    2.942014e+00
  3.131644e+00    2.876235e+00
  3.147520e+00    2.901578e+00
  3.163395e+00    2.968935e+00
  3.179271e+00    2.994881e+00
  3.195147e+00    2.995471e+00
  3.211022e+00    2.954563e+00
  3.226898e+00    3.027939e+00
  3.242773e+00    2.993160e+00
  3.258649e+00    2.823809e+00
  3.274525e+00    2.795409e+00
  3.290400e+00    2.890163e+00
  3.306276e+00    2.927392e+00
  3.322151e+00    2.894764e+00
  3.338027e+00    2.839920e+00
  3.353902e+00    2.933053e+00
  3.369778e+00    3.103396e+00
  3.385654e+00    3.066946e+00
  3.401529e+00    2.953706e+00
  3.417405e+00    2.921494e+00
  3.433280e+00    2.961455e+00
  3.449156e+00    2.945979e+00
  3.465031e+00    2.931583e+00
  3.480907e+00    2.980079e+00
  3.496783e+00    2.944776e+00
  3.512658e+00    2.935721e+00
  3.528534e+00    2.964954e+00
  3.544409e+00    2.985329e+00
  3.560285e+00    3.020032e+00
  3.576160e+00    2.963943e+00
  3.592036e+00    2.991732e+00
  3.607912e+00    2.995526e+00
  3.623787e+00    2.999671e+00
  3.639663e+00    2.978837e+00
  3.655538e+00    2.969290e+00
  3.671414e+00    2.990630e+00
  3.687289e+00    3.003981e+00
  3.703165e+00    2.985357e+00
  3.719041e+00    2.977833e+00
  3.734916e+00    3.040590e+00
  3.750792e+00    3.001301e+00
  3.766667e+00    2.954311e+00
  3.782543e+00    2.947337e+00
  3.798418e+00    2.965636e+00
  3.814294e+00    2.979831e+00
  3.830170e+00    3.020137e+00
  3.846045e+00    2.981666e+00
  3.861921e+00    2.984851e+00
  3.877796e+00    3.030941e+00
  3.893672e+00    2.995641e+00
  3.909547e+00    3.018069e+00
  3.925423e+00    3.033046e+00
  3.941299e+00    2.967863e+00
  3.957174e+00    3.015316e+00
  3.973050e+00    3.045205e+00
  3.988925e+00    2.985463e+00
  4.004801e+00    2.986417e+00
  4.020676e+00    2.965272e+00
  4.036552e+00    3.010761e+00
  4.052428e+00    3.015949e+00
  4.068303e+00    3.030999e+00
  4.084179e+00    3.017786e+00
  4.100054e+00    3.000093e+00
  4.115930e+00    2.978026e+00
  4.131806e+00    3.004906e+00
  4.147681e+00    3.026968e+00
  4.163557e+00    3.073138e+00
  4.179432e+00    3.035164e+00
  4.195308e+00    2.963361e+00
  4.211183e+00    3.030205e+00
  4.227059e+00    3.037028e+00
  4.242935e+00    3.013708e+00
  4.258810e+00    3.122489e+00
  4.274686e+00    3.010164e+00
  4.290561e+00    3.044923e+00
  4.306437e+00    3.016008e+00
  4.322312e+00    2.959304e+00
  4.338188e+00    2.932572e+00
  4.354064e+00    3.049721e+00
  4.369939e+00    2.991507e+00
  4.385815e+00    2.994390e+00
  4.401690e+00    3.033676e+00
  4.417566e+00    3.075273e+00
  4.433441e+00    3.086057e+00
  4.449317e+00    3.147241e+00
  4.465193e+00    3.135120e+00
  4.481068e+00    3.155473e+00
  4.496944e+00    3.088368e+00
  4.512819e+00    3.046303e+00
  4.528695e+00    3.122185e+00
  4.544570e+00    3.173940e+00
  4.560446e+00    3.078007e+00
  4.576322e+00    3.081670e+00
  4.592197e+00    3.063594e+00
  4.608073e+00    3.070536e+00
  4.623948e+00    3.110619e+00
  4.639824e+00    3.051039e+00
  4.655699e+00    3.100449e+00
  4.671575e+00    3.155562e+00
  4.687451e+00    3.180184e+00
  4.703326e+00    3.127110e+00
  4.719202e+00    3.113898e+00
  4.735077e+00    3.151363e+00
  4.750953e+00    3.125401e+00
  4.766828e+00    3.124786e+00
  4.782704e+00    3.155617e+00
  4.798580e+00    3.046758e+00
  4.814455e+00    3.065787e+00
  4.830331e+00    3.063599e+00
  4.846206e+00    3.103120e+00
  4.862082e+00    3.125987e+00
  4.877957e+00    3.182577e+00
  4.893833e+00    3.129665e+00
  4.909709e+00    3.096673e+00
  4.925584e+00    3.097255e+00
  4.941460e+00    3.120999e+00
  4.957335e+00    3.121173e+00
  4.973211e+00    3.137617e+00
  4.989086e+00    3.188429e+00
  5.004962e+00    3.200919e+00
  5.020838e+00    3.140428e+00
  5.036713e+00    3.218661e+00
  5.052589e+00    3.259468e+00
  5.068464e+00    3.208309e+00
  5.084340e+00    3.196105e+00
  5.100216e+00    3.165925e+00
  5.116091e+00    3.132382e+00
  5.131967e+00    3.101258e+00
  5.147842e+00    3.113790e+00
  5.163718e+00    3.155919e+00
  5.179593e+00    3.182436e+00
  5.195469e+00    3.223892e+00
  5.211345e+00    3.085721e+00
  5.227220e+00    3.075753e+00
  5.243096e+00    3.222230e+00
  5.258971e+00    3.192678e+00
  5.274847e+00    3.133892e+00
  5.290722e+00    3.154125e+00
  5.306598e+00    3.206276e+00
  5.322474e+00    3.125663e+00
  5.338349e+00    3.133490e+00
  5.354225e+00    3.128465e+00
  5.370100e+00    3.209511e+00
  5.385976e+00    3.141840e+00
  5.401851e+00    3.134746e+00
  5.417727e+00    3.188596e+00
  5.433603e+00    3.140033e+00
  5.449478e+00    3.084418e+00
  5.465354e+00    3.058133e+00
  5.481229e+00    3.093029e+00
  5.497105e+00    3.117874e+00
  5.512980e+00    3.101373e+00
  5.528856e+00    3.103195e+00
  5.544732e+00    3.072000e+00
  5.560607e+00    3.116123e+00
  5.576483e+00    3.142919e+00
  5.592358e+00    3.106286e+00
  5.608234e+00    3.155487e+00
  5.624109e+00    3.060632e+00
  5.639985e+00    3.109073e+00
  5.655861e+00    3.109116e+00
  5.671736e+00    3.143924e+00
  5.687612e+00    3.135569e+00
  5.703487e+00    3.038955e+00
  5.719363e+00    3.018658e+00
  5.735238e+00    3.048831e+00
  5.751114e+00    3.103172e+00
  5.766990e+00    3.135423e+00
  5.782865e+00    3.035191e+00
  5.798741e+00    3.033987e+00
  5.814616e+00    3.037079e+00
  5.830492e+00    3.042625e+00
  5.846367e+00    3.069078e+00
  5.862243e+00    2.979545e+00
  5.878119e+00    3.020287e+00
  5.893994e+00    3.082489e+00
  5.909870e+00    3.044328e+00
  5.925745e+00    2.996943e+00
  5.941621e+00    3.046526e+00
  5.957497e+00    3.114893e+00
  5.973372e+00    3.037490e+00
  5.989248e+00    2.943367e+00
  6.005123e+00    2.948290e+00
  6.020999e+00    3.011611e+00
  6.036874e+00    3.042873e+00
  6.052750e+00    3.097824e+00
  6.068626e+00    3.052088e+00
  6.084501e+00    3.026107e+00
  6.100377e+00    3.036044e+00
  6.116252e+00    3.084234e+00
  6.132128e+00    3.056566e+00
  6.148003e+00    3.123540e+00
  6.163879e+00    3.123250e+00
  6.179755e+00    3.049040e+00
  6.195630e+00    3.021802e+00
  6.211506e+00    3.043984e+00
  6.227381e+00    3.021991e+00
  6.243257e+00    3.104797e+00
  6.259132e+00    3.115597e+00
  6.275008e+00    3.066427e+00
  6.290884e+00    3.055388e+00
  6.306759e+00    3.065770e+00
  6.322635e+00    3.062624e+00
  6.338510e+00    3.043953e+00
  6.354386e+00    3.032770e+00
  6.370261e+00    3.021454e+00
  6.386137e+00    2.999446e+00
  6.402013e+00    3.037852e+00
  6.417888e+00    3.062594e+00
  6.433764e+00    3.070019e+00
  6.449639e+00    3.024921e+00
  6.465515e+00    3.101070e+00
  6.481390e+00    3.034448e+00
  6.497266e+00    3.039446e+00
  6.513142e+00    3.072841e+00
  6.529017e+00    3.021830e+00
  6.544893e+00    3.115065e+00
  6.560768e+00    3.070014e+00
  6.576644e+00    3.103837e+00
  6.592519e+00    3.062552e+00
  6.608395e+00    3.090501e+00
  6.624271e+00    3.050972e+00
  6.640146e+00    3.061856e+00
  6.656022e+00    3.049396e+00
  6.671897e+00    3.056555e+00
  6.687773e+00    3.060462e+00
  6.703648e+00    3.033679e+00
  6.719524e+00    2.977058e+00
  6.735400e+00    3.026169e+00
  6.751275e+00    3.018551e+00
  6.767151e+00    2.992661e+00
  6.783026e+00    3.037341e+00
  6.798902e+00    3.075098e+00
  6.814777e+00    3.063214e+00
  6.830653e+00    3.023250e+00
  6.846529e+00    3.004508e+00
  6.862404e+00    3.070939e+00
  6.878280e+00    3.057235e+00
  6.894155e+00    3.012128e+00
  6.910031e+00    3.065206e+00
  6.925907e+00    3.037116e+00
  6.941782e+00    3.094535e+00
  6.957658e+00    3.033887e+00
  6.973533e+00    3.020135e+00
  6.989409e+00    3.046109e+00
  7.005284e+00    3.052161e+00
  7.021160e+00    2.999770e+00
  7.037036e+00    3.033082e+00
  7.052911e+00    3.094616e+00
  7.068787e+00    3.071424e+00
  7.084662e+00    2.988257e+00
  7.100538e+00    2.982281e+00
  7.116413e+00    2.961390e+00
  7.132289e+00    3.027101e+00
  7.148165e+00    2.994892e+00
  7.164040e+00    2.990617e+00
  7.179916e+00    2.972517e+00
  7.195791e+00    3.014349e+00
  7.211667e+00    3.003484e+00
  7.227542e+00    2.989902e+00
  7.243418e+00    3.008384e+00
  7.259294e+00    3.038315e+00
  7.275169e+00    3.026239e+00
  7.291045e+00    3.059837e+00
  7.306920e+00    3.022917e+00
  7.322796e+00    3.039531e+00
  7.338671e+00    3.007289e+00
  7.354547e+00    3.017018e+00
  7.370423e+00    3.039075e+00
  7.386298e+00    2.998564e+00
  7.402174e+00    3.031171e+00
  7.418049e+00    3.008881e+00
  7.433925e+00    3.088794e+00
  7.449800e+00    3.025167e+00
  7.465676e+00    3.023972e+00
  7.481552e+00    3.006287e+00
  7.497427e+00    2.957932e+00
  7.513303e+00    2.959449e+00
  7.529178e+00    3.012862e+00
  7.545054e+00    3.002242e+00
  7.560929e+00    3.027280e+00
  7.576805e+00    3.000096e+00
  7.592681e+00    2.958074e+00
  7.608556e+00    2.924615e+00
  7.624432e+00    2.954391e+00
  7.640307e+00    2.957511e+00
  7.656183e+00    2.975984e+00
  7.672058e+00    3.036475e+00
  7.687934e+00    2.988312e+00
  7.703810e+00    2.990898e+00
  7.719685e+00    2.973809e+00
  7.735561e+00    2.964606e+00
  7.751436e+00    2.962631e+00
  7.767312e+00    2.990762e+00
  7.783187e+00    2.994330e+00
  7.799063e+00    3.039265e+00
  7.814939e+00    3.049046e+00
  7.830814e+00    3.013177e+00
  7.846690e+00    2.925863e+00
  7.862565e+00    2.948128e+00
  7.878441e+00    2.999519e+00
  7.894317e+00    2.935529e+00
  7.910192e+00    2.947973e+00
  7.926068e+00    2.952545e+00
  7.941943e+00    2.942531e+00
  7.957819e+00    3.028478e+00
  7.973694e+00    2.956411e+00
  7.989570e+00    2.922350e+00
  8.005446e+00    2.883736e+00
  8.021321e+00    2.866459e+00
  8.037197e+00    2.917337e+00
  8.053072e+00    2.991387e+00
  8.068948e+00    2.960416e+00
  8.084823e+00    2.929652e+00
  8.100699e+00    2.914541e+00
  8.116575e+00    2.967688e+00
  8.132450e+00    2.971621e+00
  8.148326e+00    2.970417e+00
  8.164201e+00    2.958088e+00
  8.180077e+00    3.008649e+00
  8.195952e+00    3.026102e+00
  8.211828e+00    2.999060e+00
  8.227704e+00    2.996753e+00
  8.243579e+00    2.985677e+00
  8.259455e+00    2.970656e+00
  8.275330e+00    2.948380e+00
  8.291206e+00    2.916948e+00
  8.307081e+00    2.931028e+00
  8.322957e+00    2.935513e+00
  8.338833e+00    2.976839e+00
  8.354708e+00    2.951567e+00
  8.370584e+00    2.941735e+00
  8.386459e+00    2.853417e+00
  8.402335e+00    2.871311e+00
  8.418210e+00    2.962594e+00
  8.434086e+00    2.900595e+00
  8.449962e+00    2.894489e+00
  8.465837e+00    2.878493e+00
  8.481713e+00    2.879080e+00
  8.497588e+00    2.883408e+00
  8.513464e+00    2.864562e+00
  8.529339e+00    2.917665e+00
  8.545215e+00    2.912306e+00
  8.561091e+00    2.899969e+00
  8.576966e+00    2.873827e+00
  8.592842e+00    2.897911e+00
  8.608717e+00    2.900455e+00
  8.624593e+00    2.893058e+00
  8.640468e+00    2.928731e+00
  8.656344e+00    2.874179e+00
  8.672220e+00    2.862269e+00
  8.688095e+00    2.848345e+00
  8.703971e+00    2.861335e+00
  8.719846e+00    2.912284e+00
  8.735722e+00    2.887160e+00
  8.751598e+00    2.825543e+00
  8.767473e+00    2.827772e+00
  8.783349e+00    2.819506e+00
  8.799224e+00    2.827312e+00
  8.815100e+00    2.848094e+00
  8.830975e+00    2.823464e+00
  8.846851e+00    2.884109e+00
  8.862727e+00    2.827171e+00
  8.878602e+00    2.872476e+00
  8.894478e+00    2.823923e+00
  8.910353e+00    2.811384e+00
  8.926229e+00    2.854830e+00
  8.942104e+00    2.810929e+00
  8.957980e+00    2.801123e+00
  8.973856e+00    2.796322e+00
  8.989731e+00    2.761075e+00
  9.005607e+00    2.759608e+00
  9.021482e+00    2.817499e+00
  9.037358e+00    2.802864e+00
  9.053233e+00    2.781639e+00
  9.069109e+00    2.799024e+00
  9.084985e+00    2.838662e+00
  9.100860e+00    2.813911e+00
  9.116736e+00    2.793154e+00
  9.132611e+00    2.870638e+00
  9.148487e+00    2.825730e+00
  9.164362e+00    2.798709e+00
  9.180238e+00    2.821077e+00
  9.196114e+00    2.829585e+00
  9.211989e+00    2.873876e+00
  9.227865e+00    2.845585e+00
  9.243740e+00    2.769213e+00
  9.259616e+00    2.789120e+00
  9.275491e+00    2.849470e+00
  9.291367e+00    2.838921e+00
  9.307243e+00    2.807215e+00
  9.323118e+00    2.775755e+00
  9.338994e+00    2.752494e+00
  9.354869e+00    2.754358e+00
  9.370745e+00    2.766545e+00
  9.386620e+00    2.788627e+00
  9.402496e+00    2.768885e+00
  9.418372e+00    2.802495e+00
  9.434247e+00    2.825160e+00
  9.450123e+00    2.771276e+00
  9.465998e+00    2.758219e+00
  9.481874e+00    2.758541e+00
  9.497749e+00    2.706526e+00
  9.513625e+00    2.772697e+00
  9.529501e+00    2.754338e+00
  9.545376e+00    2.728213e+00
  9.561252e+00    2.741477e+00
  9.577127e+00    2.788578e+00
  9.593003e+00    2.778230e+00
  9.608878e+00    2.788545e+00
  9.624754e+00    2.812102e+00
  9.640630e+00    2.740272e+00
  9.656505e+00    2.729544e+00
  9.672381e+00    2.756285e+00
  9.688256e+00    2.778306e+00
  9.704132e+00    2.736868e+00
  9.720008e+00    2.752381e+00
  9.735883e+00    2.803793e+00
  9.751759e+00    2.748521e+00
  9.767634e+00    2.702983e+00
  9.783510e+00    2.729247e+00
  9.799385e+00    2.721525e+00
  9.815261e+00    2.684895e+00
  9.831137e+00    2.699984e+00
  9.847012e+00    2.734630e+00
  9.862888e+00    2.699584e+00
  9.878763e+00    2.694423e+00
  9.894639e+00    2.728512e+00
  9.910514e+00    2.713647e+00
  9.926390e+00    2.686689e+00
  9.942266e+00    2.666812e+00
  9.958141e+00    2.683593e+00
  9.974017e+00    2.682264e+00
  9.989892e+00    2.660399e+00
  1.000577e+01    2.676392e+00
  1.002164e+01    2.740123e+00
  1.003752e+01    2.686857e+00
  1.005339e+01    2.630228e+00
  1.006927e+01    2.689411e+00
  1.008515e+01    2.687274e+00
  1.010102e+01    2.681392e+00
  1.011690e+01    2.656856e+00
  1.013277e+01    2.641775e+00
  1.014865e+01    2.662886e+00
  1.016452e+01    2.614149e+00
  1.018040e+01    2.616509e+00
  1.019627e+01    2.592114e+00
  1.021215e+01    2.637655e+00
  1.022803e+01    2.659090e+00
  1.024390e+01    2.676422e+00
  1.025978e+01    2.638456e+00
  1.027565e+01    2.638908e+00
  1.029153e+01    2.657859e+00
  1.030740e+01    2.667982e+00
  1.032328e+01    2.669952e+00
  1.033915e+01    2.641363e+00
  1.035503e+01    2.604244e+00
  1.037091e+01    2.643605e+00
  1.038678e+01    2.637358e+00
  1.040266e+01    2.646763e+00
  1.041853e+01    2.613375e+00
  1.043441e+01    2.583355e+00
  1.045028e+01    2.585099e+00
  1.046616e+01    2.627173e+00
  1.048204e+01    2.595723e+00
  1.049791e+01    2.579858e+00
  1.051379e+01    2.607113e+00
  1.052966e+01    2.578265e+00
  1.054554e+01    2.538050e+00
  1.056141e+01    2.551586e+00
  1.057729e+01    2.599211e+00
  1.059316e+01    2.624661e+00
  1.060904e+01    2.643462e+00
  1.062492e+01    2.624828e+00
  1.064079e+01    2.624550e+00
  1.065667e+01    2.599455e+00
  1.067254e+01    2.573709e+00
  1.068842e+01    2.521726e+00
  1.070429e+01    2.538979e+00
  1.072017e+01    2.572781e+00
  1.073604e+01    2.572704e+00
  1.075192e+01    2.538553e+00
  1.076780e+01    2.549328e+00
  1.078367e+01    2.477321e+00
  1.079955e+01    2.505237e+00
  1.081542e+01    2.521384e+00
  1.083130e+01    2.511353e+00
  1.084717e+01    2.475477e+00
  1.086305e+01    2.522998e+00
  1.087892e+01    2.488648e+00
  1.089480e+01    2.519930e+00
  1.091068e+01    2.549791e+00
  1.092655e+01    2.490692e+00
  1.094243e+01    2.467923e+00
  1.095830e+01    2.504748e+00
  1.097418e+01    2.544636e+00
  1.099005e+01    2.539017e+00
  1.100593e+01    2.514111e+00
  1.102180e+01    2.483381e+00
  1.103768e+01    2.498461e+00
  1.105356e+01    2.521630e+00
  1.106943e+01    2.498071e+00
  1.108531e+01    2.513033e+00
  1.110118e+01    2.540536e+00
  1.111706e+01    2.488178e+00
  1.113293e+01    2.460640e+00
  1.114881e+01    2.471845e+00
  1.116468e+01    2.494788e+00
  1.118056e+01    2.484651e+00
  1.119644e+01    2.548181e+00
  1.121231e+01    2.543994e+00
  1.122819e+01    2.507521e+00
  1.124406e+01    2.490142e+00
  1.125994e+01    2.466995e+00
  1.127581e+01    2.474330e+00
  1.129169e+01    2.442577e+00
  1.130756e+01    2.448645e+00
  1.132344e+01    2.430497e+00
  1.133932e+01    2.443902e+00
  1.135519e+01    2.410447e+00
  1.137107e+01    2.415843e+00
  1.138694e+01    2.421947e+00
  1.140282e+01    2.427620e+00
  1.141869e+01    2.461729e+00
  1.143457e+01    2.458880e+00
  1.145045e+01    2.463956e+00
  1.146632e+01    2.437344e+00
  1.148220e+01    2.432705e+00
  1.149807e+01    2.403649e+00
  1.151395e+01    2.401462e+00
  1.152982e+01    2.435173e+00
  1.154570e+01    2.342227e+00
  1.156157e+01    2.369290e+00
  1.157745e+01    2.395852e+00
  1.159333e+01    2.439543e+00
  1.160920e+01    2.414353e+00
  1.162508e+01    2.414337e+00
  1.164095e+01    2.423656e+00
  1.165683e+01    2.432011e+00
  1.167270e+01    2.387826e+00
  1.168858e+01    2.354488e+00
  1.170445e+01    2.433205e+00
  1.172033e+01    2.397882e+00
  1.173621e+01    2.384808e+00
  1.175208e+01    2.303215e+00
  1.176796e+01    2.361604e+00
  1.178383e+01    2.412314e+00
  1.179971e+01    2.386744e+00
  1.181558e+01    2.374922e+00
  1.183146e+01    2.326845e+00
  1.184733e+01    2.322697e+00
  1.186321e+01    2.339072e+00
  1.187909e+01    2.346956e+00
  1.189496e+01    2.346146e+00
  1.191084e+01    2.341936e+00
  1.192671e+01    2.344210e+00
  1.194259e+01    2.362778e+00
  1.195846e+01    2.375956e+00
  1.197434e+01    2.366132e+00
  1.199021e+01    2.374111e+00
  1.200609e+01    2.370196e+00
  1.202197e+01    2.349281e+00
  1.203784e+01    2.367386e+00
  1.205372e+01    2.345037e+00
  1.206959e+01    2.331812e+00
  1.208547e+01    2.348275e+00
  1.210134e+01    2.323128e+00
  1.211722e+01    2.352644e+00
  1.213309e+01    2.355071e+00
  1.214897e+01    2.308578e+00
  1.216485e+01    2.303826e+00
  1.218072e+01    2.272207e+00
  1.219660e+01    2.321620e+00
  1.221247e+01    2.355041e+00
  1.222835e+01    2.317029e+00
  1.224422e+01    2.299513e+00
  1.226010e+01    2.312669e+00
  1.227597e+01    2.320210e+00
  1.229185e+01    2.361219e+00
  1.230773e+01    2.393460e+00
  1.232360e+01    2.363535e+00
  1.233948e+01    2.383785e+00
  1.235535e+01    2.311620e+00
  1.237123e+01    2.310015e+00
  1.238710e+01    2.302969e+00
  1.240298e+01    2.348320e+00
  1.241886e+01    2.340414e+00
  1.243473e+01    2.294815e+00
  1.245061e+01    2.337528e+00
  1.246648e+01    2.335086e+00
  1.248236e+01    2.340064e+00
  1.249823e+01    2.331363e+00
  1.251411e+01    2.372104e+00
  1.252998e+01    2.336470e+00
  1.254586e+01    2.339067e+00
  1.256174e+01    2.379990e+00
  1.257761e+01    2.380749e+00
  1.259349e+01    2.369766e+00
  1.260936e+01    2.380559e+00
  1.262524e+01    2.443365e+00
  1.264111e+01    2.457785e+00
  1.265699e+01    2.462048e+00
  1.267286e+01    2.450151e+00
  1.268874e+01    2.482365e+00
  1.270462e+01    2.472981e+00
  1.272049e+01    2.494611e+00
  1.273637e+01    2.543774e+00
  1.275224e+01    2.580714e+00
  1.276812e+01    2.577459e+00
  1.278399e+01    2.637020e+00
  1.279987e+01    2.615958e+00
  1.281574e+01    2.688685e+00
  1.283162e+01    2.792487e+00
  1.284750e+01    2.837896e+00
  1.286337e+01    2.932713e+00
  1.287925e+01    3.063074e+00
  1.289512e+01    3.169939e+00
  1.291100e+01    3.349067e+00
  1.292687e+01    3.551981e+00
  1.294275e+01    3.804497e+00
  1.295862e+01    4.128361e+00
  1.297450e+01    4.485185e+00
  1.299038e+01    4.943448e+00
  1.300625e+01    5.534758e+00
  1.302213e+01    6.333255e+00
  1.303800e+01    7.368263e+00
  1.305388e+01    8.489838e+00
  1.306975e+01    9.795363e+00
  1.308563e+01    1.102834e+01
  1.310150e+01    1.220632e+01
  1.311738e+01    1.331551e+01
  1.313326e+01    1.437671e+01
  1.314913e+01    1.549110e+01
  1.316501e+01    1.617730e+01
  1.318088e+01    1.636757e+01
  1.319676e+01    1.577238e+01
  1.321263e+01    1.439881e+01
  1.322851e+01    1.260020e+01
  1.324438e+01    1.062731e+01
  1.326026e+01    8.969633e+00
  1.327614e+01    7.651350e+00
  1.329201e+01    6.606915e+00
  1.330789e+01    5.693618e+00
  1.332376e+01    5.039987e+00
  1.333964e+01    4.578648e+00
  1.335551e+01    4.155023e+00
  1.337139e+01    3.797243e+00
  1.338727e+01    3.519081e+00
  1.340314e+01    3.342948e+00
  1.341902e+01    3.218357e+00
  1.343489e+01    3.057712e+00
  1.345077e+01    2.910301e+00
  1.346664e+01    2.814838e+00
  1.348252e+01    2.742496e+00
  1.349839e+01    2.680647e+00
  1.351427e+01    2.601395e+00
  1.353015e+01    2.562150e+00
  1.354602e+01    2.485846e+00
  1.356190e+01    2.481008e+00
  1.357777e+01    2.469496e+00
  1.359365e+01    2.378639e+00
  1.360952e+01    2.373890e+00
  1.362540e+01    2.329619e+00
  1.364127e+01    2.294095e+00
  1.365715e+01    2.250799e+00
  1.367303e+01    2.246027e+00
  1.368890e+01    2.255440e+00
  1.370478e+01    2.266771e+00
  1.372065e+01    2.237801e+00
  1.373653e+01    2.201611e+00
  1.375240e+01    2.172821e+00
  1.376828e+01    2.178686e+00
  1.378415e+01    2.191143e+00
  1.380003e+01    2.132859e+00
  1.381591e+01    2.106815e+00
  1.383178e+01    2.119185e+00
  1.384766e+01    2.116747e+00
  1.386353e+01    2.128954e+00
  1.387941e+01    2.135740e+00
  1.389528e+01    2.102863e+00
  1.391116e+01    2.068614e+00
  1.392703e+01    2.085318e+00
  1.394291e+01    2.052934e+00
  1.395879e+01    2.078580e+00
  1.397466e+01    2.094625e+00
  1.399054e+01    2.054166e+00
  1.400641e+01    2.044108e+00
  1.402229e+01    2.083692e+00
  1.403816e+01    2.044954e+00
  1.405404e+01    2.015442e+00
  1.406991e+01    2.014912e+00
  1.408579e+01    2.063157e+00
  1.410167e+01    2.038040e+00
  1.411754e+01    2.020869e+00
  1.413342e+01    2.051117e+00
  1.414929e+01    2.020066e+00
  1.416517e+01    1.998432e+00
  1.418104e+01    2.007292e+00
  1.419692e+01    2.027246e+00
  1.421279e+01    2.025039e+00
  1.422867e+01    1.971084e+00
  1.424455e+01    1.964667e+00
  1.426042e+01    1.966128e+00
  1.427630e+01    2.000911e+00
  1.429217e+01    1.989049e+00
  1.430805e+01    1.991634e+00
  1.432392e+01    1.977341e+00
  1.433980e+01    1.944796e+00
  1.435568e+01    1.942201e+00
  1.437155e+01    1.948232e+00
  1.438743e+01    1.947803e+00
  1.440330e+01    1.934623e+00
  1.441918e+01    1.915786e+00
  1.443505e+01    1.956942e+00
  1.445093e+01    1.955767e+00
  1.446680e+01    1.975353e+00
  1.448268e+01    1.979771e+00
  1.449856e+01    1.935870e+00
  1.451443e+01    1.949441e+00
  1.453031e+01    1.915626e+00
  1.454618e+01    1.931684e+00
  1.456206e+01    1.969425e+00
  1.457793e+01    1.922791e+00
  1.459381e+01    1.925594e+00
  1.460968e+01    1.935791e+00
  1.462556e+01    1.916671e+00
  1.464144e+01    1.933831e+00
  1.465731e+01    1.954248e+00
  1.467319e+01    1.930032e+00
  1.468906e+01    1.921975e+00
  1.470494e+01    1.933673e+00
  1.472081e+01    1.946433e+00
  1.473669e+01    1.892282e+00
  1.475256e+01    1.905529e+00
  1.476844e+01    1.900269e+00
  1.478432e+01    1.928038e+00
  1.480019e+01    1.926891e+00
  1.481607e+01    1.920904e+00
  1.483194e+01    1.951662e+00
  1.484782e+01    1.964428e+00
  1.486369e+01    1.953801e+00
  1.487957e+01    1.967515e+00
  1.489544e+01    1.949112e+00
  1.491132e+01    1.985685e+00
  1.492720e+01    2.016361e+00
  1.494307e+01    2.028672e+00
  1.495895e+01    2.035947e+00
  1.497482e+01    2.107096e+00
  1.499070e+01    2.146323e+00
  1.500657e+01    2.159306e+00
  1.502245e+01    2.230538e+00
  1.503832e+01    2.334986e+00
  1.505420e+01    2.437775e+00
  1.507008e+01    2.536961e+00
  1.508595e+01    2.745230e+00
  1.510183e+01    2.947609e+00
  1.511770e+01    3.231161e+00
  1.513358e+01    3.532946e+00
  1.514945e+01    3.898558e+00
  1.516533e+01    4.256077e+00
  1.518120e+01    4.589496e+00
  1.519708e+01    4.933338e+00
  1.521296e+01    5.182535e+00
  1.522883e+01    5.408243e+00
  1.524471e+01    5.555422e+00
  1.526058e+01    5.619282e+00
  1.527646e+01    5.601244e+00
  1.529233e+01    5.351054e+00
  1.530821e+01    4.990571e+00
  1.532409e+01    4.550058e+00
  1.533996e+01    4.150964e+00
  1.535584e+01    3.621487e+00
  1.537171e+01    3.216577e+00
  1.538759e+01    2.921598e+00
  1.540346e+01    2.657206e+00
  1.541934e+01    2.569182e+00
  1.543521e+01    2.418250e+00
  1.545109e+01    2.259406e+00
  1.546697e+01    2.203478e+00
  1.548284e+01    2.140401e+00
  1.549872e+01    2.046503e+00
  1.551459e+01    2.009095e+00
  1.553047e+01    1.971257e+00
  1.554634e+01    1.939190e+00
  1.556222e+01    1.922292e+00
  1.557809e+01    1.839756e+00
  1.559397e+01    1.822283e+00
  1.560985e+01    1.801816e+00
  1.562572e+01    1.817497e+00
  1.564160e+01    1.823641e+00
  1.565747e+01    1.783393e+00
  1.567335e+01    1.763327e+00
  1.568922e+01    1.742404e+00
  1.570510e+01    1.739507e+00
  1.572097e+01    1.747179e+00
  1.573685e+01    1.757393e+00
  1.575273e+01    1.760228e+00
  1.576860e+01    1.728218e+00
  1.578448e+01    1.745734e+00
  1.580035e+01    1.740547e+00
  1.581623e+01    1.700916e+00
  1.583210e+01    1.673574e+00
  1.584798e+01    1.681384e+00
  1.586385e+01    1.656933e+00
  1.587973e+01    1.678375e+00
  1.589561e+01    1.693288e+00
  1.591148e+01    1.667641e+00
  1.592736e+01    1.622433e+00
  1.594323e+01    1.639481e+00
  1.595911e+01    1.673839e+00
  1.597498e+01    1.645346e+00
  1.599086e+01    1.646185e+00
  1.600673e+01    1.635740e+00
  1.602261e+01    1.612114e+00
  1.603849e+01    1.621176e+00
  1.605436e+01    1.624350e+00
  1.607024e+01    1.563335e+00
  1.608611e+01    1.604332e+00
  1.610199e+01    1.590881e+00
  1.611786e+01    1.581520e+00
  1.613374e+01    1.596829e+00
  1.614961e+01    1.585019e+00
  1.616549e+01    1.596740e+00
  1.618137e+01    1.637347e+00
  1.619724e+01    1.600019e+00
  1.621312e+01    1.545768e+00
  1.622899e+01    1.560317e+00
  1.624487e+01    1.551314e+00
  1.626074e+01    1.557318e+00
  1.627662e+01    1.564480e+00
  1.629250e+01    1.593648e+00
  1.630837e+01    1.584795e+00
  1.632425e+01    1.567926e+00
  1.634012e+01    1.561876e+00
  1.635600e+01    1.553375e+00
  1.637187e+01    1.557673e+00
  1.638775e+01    1.506969e+00
  1.640362e+01    1.514523e+00
  1.641950e+01    1.523381e+00
  1.643538e+01    1.516675e+00
  1.645125e+01    1.539581e+00
  1.646713e+01    1.504979e+00
  1.648300e+01    1.487530e+00
  1.649888e+01    1.538402e+00
  1.651475e+01    1.542978e+00
  1.653063e+01    1.496397e+00
  1.654650e+01    1.497216e+00
  1.656238e+01    1.501171e+00
  1.657826e+01    1.508179e+00
  1.659413e+01    1.523282e+00
  1.661001e+01    1.521284e+00
  1.662588e+01    1.497924e+00
  1.664176e+01    1.502311e+00
  1.665763e+01    1.506884e+00
  1.667351e+01    1.488750e+00
  1.668938e+01    1.474667e+00
  1.670526e+01    1.509093e+00
  1.672114e+01    1.512655e+00
  1.673701e+01    1.483053e+00
  1.675289e+01    1.473605e+00
  1.676876e+01    1.446774e+00
  1.678464e+01    1.462852e+00
  1.680051e+01    1.503101e+00
  1.681639e+01    1.530769e+00
  1.683226e+01    1.501270e+00
  1.684814e+01    1.496128e+00
  1.686402e+01    1.450768e+00
  1.687989e+01    1.471995e+00
  1.689577e+01    1.470217e+00
  1.691164e+01    1.453628e+00
  1.692752e+01    1.443917e+00
  1.694339e+01    1.465415e+00
  1.695927e+01    1.484834e+00
  1.697514e+01    1.440305e+00
  1.699102e+01    1.455350e+00
  1.700690e+01    1.428737e+00
  1.702277e+01    1.412306e+00
  1.703865e+01    1.401246e+00
  1.705452e+01    1.439431e+00
  1.707040e+01    1.429331e+00
  1.708627e+01    1.435765e+00
  1.710215e+01    1.415741e+00
  1.711802e+01    1.423721e+00
  1.713390e+01    1.404931e+00
  1.714978e+01    1.422208e+00
  1.716565e+01    1.433993e+00
  1.718153e+01    1.396867e+00
  1.719740e+01    1.367403e+00
  1.721328e+01    1.413757e+00
  1.722915e+01    1.430034e+00
  1.724503e+01    1.439665e+00
  1.726091e+01    1.417914e+00
  1.727678e+01    1.391008e+00
  1.729266e+01    1.405855e+00
  1.730853e+01    1.395279e+00
  1.732441e+01    1.396060e+00
  1.734028e+01    1.396478e+00
  1.735616e+01    1.392987e+00
  1.737203e+01    1.408013e+00
  1.738791e+01    1.388310e+00
  1.740379e+01    1.390561e+00
  1.741966e+01    1.378773e+00
  1.743554e+01    1.372889e+00
  1.745141e+01    1.379221e+00
  1.746729e+01    1.380797e+00
  1.748316e+01    1.391841e+00
  1.749904e+01    1.370106e+00
  1.751491e+01    1.380844e+00
  1.753079e+01    1.372226e+00
  1.754667e+01    1.366601e+00
  1.756254e+01    1.390244e+00
  1.757842e+01    1.369485e+00
  1.759429e+01    1.348111e+00
  1.761017e+01    1.373229e+00
  1.762604e+01    1.343572e+00
  1.764192e+01    1.366881e+00
  1.765779e+01    1.366077e+00
  1.767367e+01    1.363471e+00
  1.768955e+01    1.356526e+00
  1.770542e+01    1.333677e+00
  1.772130e+01    1.352602e+00
  1.773717e+01    1.324584e+00
  1.775305e+01    1.320313e+00
  1.776892e+01    1.319052e+00
  1.778480e+01    1.322188e+00
  1.780067e+01    1.362180e+00
  1.781655e+01    1.355422e+00
  1.783243e+01    1.336691e+00
  1.784830e+01    1.361386e+00
  1.786418e+01    1.342427e+00
  1.788005e+01    1.323071e+00
  1.789593e+01    1.298869e+00
  1.791180e+01    1.314534e+00
  1.792768e+01    1.312719e+00
  1.794355e+01    1.324015e+00
  1.795943e+01    1.335902e+00
  1.797531e+01    1.312932e+00
  1.799118e+01    1.319456e+00
  1.800706e+01    1.324983e+00
  1.802293e+01    1.312016e+00
  1.803881e+01    1.320974e+00
  1.805468e+01    1.302539e+00
  1.807056e+01    1.291665e+00
  1.808643e+01    1.311220e+00
  1.810231e+01    1.305683e+00
  1.811819e+01    1.307377e+00
  1.813406e+01    1.278942e+00
  1.814994e+01    1.276504e+00
  1.816581e+01    1.299512e+00
  1.818169e+01    1.306749e+00
  1.819756e+01    1.304567e+00
  1.821344e+01    1.305270e+00
  1.822932e+01    1.307171e+00
  1.824519e+01    1.312070e+00
  1.826107e+01    1.274459e+00
  1.827694e+01    1.274866e+00
  1.829282e+01    1.293821e+00
  1.830869e+01    1.298621e+00
  1.832457e+01    1.311575e+00
  1.834044e+01    1.293576e+00
  1.835632e+01    1.298817e+00
  1.837220e+01    1.275094e+00
  1.838807e+01    1.278580e+00
  1.840395e+01    1.259601e+00
  1.841982e+01    1.276742e+00
  1.843570e+01    1.268106e+00
  1.845157e+01    1.254594e+00
  1.846745e+01    1.244230e+00
  1.848332e+01    1.254357e+00
  1.849920e+01    1.265703e+00
  1.851508e+01    1.244846e+00
  1.853095e+01    1.224685e+00
  1.854683e+01    1.253399e+00
  1.856270e+01    1.278896e+00
  1.857858e+01    1.273732e+00
  1.859445e+01    1.270078e+00
  1.861033e+01    1.243141e+00
  1.862620e+01    1.251474e+00
  1.864208e+01    1.209848e+00
  1.865796e+01    1.213261e+00
  1.867383e+01    1.244393e+00
  1.868971e+01    1.241384e+00
  1.870558e+01    1.227378e+00
  1.872146e+01    1.241072e+00
  1.873733e+01    1.220632e+00
  1.875321e+01    1.225681e+00
  1.876908e+01    1.260953e+00
  1.878496e+01    1.220201e+00
  1.880084e+01    1.211616e+00
  1.881671e+01    1.208990e+00
  1.883259e+01    1.194702e+00
  1.884846e+01    1.201078e+00
  1.886434e+01    1.225099e+00
  1.888021e+01    1.223563e+00
  1.889609e+01    1.210697e+00
  1.891196e+01    1.208215e+00
  1.892784e+01    1.182370e+00
  1.894372e+01    1.191268e+00
  1.895959e+01    1.239234e+00
  1.897547e+01    1.222093e+00
  1.899134e+01    1.230928e+00
  1.900722e+01    1.236191e+00
  1.902309e+01    1.235220e+00
  1.903897e+01    1.220185e+00
  1.905484e+01    1.191078e+00
  1.907072e+01    1.187652e+00
  1.908660e+01    1.196757e+00
  1.910247e+01    1.197646e+00
  1.911835e+01    1.188420e+00
  1.913422e+01    1.189003e+00
  1.915010e+01    1.193129e+00
  1.916597e+01    1.222371e+00
  1.918185e+01    1.176396e+00
  1.919773e+01    1.183176e+00
  1.921360e+01    1.195380e+00
  1.922948e+01    1.185408e+00
  1.924535e+01    1.191259e+00
  1.926123e+01    1.202981e+00
  1.927710e+01    1.198840e+00
  1.929298e+01    1.206722e+00
  1.930885e+01    1.177414e+00
  1.932473e+01    1.196625e+00
  1.934061e+01    1.180244e+00
  1.935648e+01    1.163858e+00
  1.937236e+01    1.152494e+00
  1.938823e+01    1.152383e+00
  1.940411e+01    1.153359e+00
  1.941998e+01    1.168554e+00
  1.943586e+01    1.181815e+00
  1.945173e+01    1.184221e+00
  1.946761e+01    1.177384e+00
  1.948349e+01    1.163535e+00
  1.949936e+01    1.162185e+00
  1.951524e+01    1.146529e+00
  1.953111e+01    1.135793e+00
  1.954699e+01    1.156041e+00
  1.956286e+01    1.175991e+00
  1.957874e+01    1.177648e+00
  1.959461e+01    1.118930e+00
  1.961049e+01    1.118274e+00
  1.962637e+01    1.146484e+00
  1.964224e+01    1.144048e+00
  1.965812e+01    1.155509e+00
  1.967399e+01    1.150087e+00
  1.968987e+01    1.170122e+00
  1.970574e+01    1.155347e+00
  1.972162e+01    1.149482e+00
  1.973749e+01    1.132118e+00
  1.975337e+01    1.118099e+00
  1.976925e+01    1.134692e+00
  1.978512e+01    1.140532e+00
  1.980100e+01    1.134932e+00
  1.981687e+01    1.137698e+00
  1.983275e+01    1.152889e+00
  1.984862e+01    1.133116e+00
  1.986450e+01    1.120393e+00
  1.988037e+01    1.127621e+00
  1.989625e+01    1.109203e+00
  1.991213e+01    1.128855e+00
  1.992800e+01    1.135224e+00
  1.994388e+01    1.100392e+00
  1.995975e+01    1.099062e+00
  1.997563e+01    1.133786e+00
  1.999150e+01    1.119907e+00
  2.000738e+01    1.114439e+00
  2.002325e+01    1.123627e+00
  2.003913e+01    1.102159e+00
  2.005501e+01    1.129336e+00
  2.007088e+01    1.146773e+00
  2.008676e+01    1.126086e+00
  2.010263e+01    1.105392e+00
  2.011851e+01    1.103621e+00
  2.013438e+01    1.122686e+00
  2.015026e+01    1.123447e+00
  2.016614e+01    1.118576e+00
  2.018201e+01    1.121883e+00
  2.019789e+01    1.101967e+00
  2.021376e+01    1.115957e+00
  2.022964e+01    1.099023e+00
  2.024551e+01    1.089078e+00
  2.026139e+01    1.090544e+00
  2.027726e+01    1.076337e+00
  2.029314e+01    1.082636e+00
  2.030902e+01    1.102009e+00
  2.032489e+01    1.108189e+00
  2.034077e+01    1.085075e+00
  2.035664e+01    1.089542e+00
  2.037252e+01    1.099334e+00
  2.038839e+01    1.109046e+00
  2.040427e+01    1.107691e+00
  2.042014e+01    1.095349e+00
  2.043602e+01    1.112697e+00
  2.045190e+01    1.109147e+00
  2.046777e+01    1.100884e+00
  2.048365e+01    1.081560e+00
  2.049952e+01    1.095778e+00
  2.051540e+01    1.117957e+00
  2.053127e+01    1.096382e+00
  2.054715e+01    1.091092e+00
  2.056302e+01    1.077111e+00
  2.057890e+01    1.065936e+00
  2.059478e+01    1.064302e+00
  2.061065e+01    1.100449e+00
  2.062653e+01    1.086279e+00
  2.064240e+01    1.081013e+00
  2.065828e+01    1.097411e+00
  2.067415e+01    1.095623e+00
  2.069003e+01    1.098518e+00
  2.070590e+01    1.089515e+00
  2.072178e+01    1.083694e+00
  2.073766e+01    1.082783e+00
  2.075353e+01    1.093858e+00
  2.076941e+01    1.087637e+00
  2.078528e+01    1.069066e+00
  2.080116e+01    1.072865e+00
  2.081703e+01    1.061132e+00
  2.083291e+01    1.082279e+00
  2.084878e+01    1.090680e+00
  2.086466e+01    1.087267e+00
  2.088054e+01    1.093545e+00
  2.089641e+01    1.087134e+00
  2.091229e+01    1.101371e+00
  2.092816e+01    1.077977e+00
  2.094404e+01    1.080488e+00
  2.095991e+01    1.078673e+00
  2.097579e+01    1.082851e+00
  2.099166e+01    1.081154e+00
  2.100754e+01    1.084435e+00
  2.102342e+01    1.105648e+00
  2.103929e+01    1.084557e+00
  2.105517e+01    1.093039e+00
  2.107104e+01    1.097208e+00
  2.108692e+01    1.095939e+00
  2.110279e+01    1.088575e+00
  2.111867e+01    1.086914e+00
  2.113455e+01    1.104201e+00
  2.115042e+01    1.104063e+00
  2.116630e+01    1.095492e+00
  2.118217e+01    1.097674e+00
  2.119805e+01    1.107057e+00
  2.121392e+01    1.115740e+00
  2.122980e+01    1.136461e+00
  2.124567e+01    1.120289e+00
  2.126155e+01    1.116093e+00
  2.127743e+01    1.140599e+00
  2.129330e+01    1.131515e+00
  2.130918e+01    1.137284e+00
  2.132505e+01    1.138514e+00
  2.134093e+01    1.145448e+00
  2.135680e+01    1.139453e+00
  2.137268e+01    1.145454e+00
  2.138855e+01    1.160196e+00
  2.140443e+01    1.161303e+00
  2.142031e+01    1.186201e+00
  2.143618e+01    1.187724e+00
  2.145206e+01    1.204399e+00
  2.146793e+01    1.210289e+00
  2.148381e+01    1.254619e+00
  2.149968e+01    1.301246e+00
  2.151556e+01    1.352877e+00
  2.153143e+01    1.353539e+00
  2.154731e+01    1.384709e+00
  2.156319e+01    1.436064e+00
  2.157906e+01    1.502275e+00
  2.159494e+01    1.571103e+00
  2.161081e+01    1.630886e+00
  2.162669e+01    1.739362e+00
  2.164256e+01    1.838969e+00
  2.165844e+01    1.984045e+00
  2.167431e+01    2.171386e+00
  2.169019e+01    2.431290e+00
  2.170607e+01    2.704279e+00
  2.172194e+01    3.021496e+00
  2.173782e+01    3.426014e+00
  2.175369e+01    3.915648e+00
  2.176957e+01    4.496356e+00
  2.178544e+01    5.069333e+00
  2.180132e+01    5.738050e+00
  2.181719e+01    6.393966e+00
  2.183307e+01    7.114652e+00
  2.184895e+01    7.756713e+00
  2.186482e+01    8.386961e+00
  2.188070e+01    8.928009e+00
  2.189657e+01    9.049516e+00
  2.191245e+01    8.827253e+00
  2.192832e+01    8.296658e+00
  2.194420e+01    7.508674e+00
  2.196007e+01    6.543965e+00
  2.197595e+01    5.582410e+00
  2.199183e+01    4.670864e+00
  2.200770e+01    4.012290e+00
  2.202358e+01    3.468043e+00
  2.203945e+01    3.055371e+00
  2.205533e+01    2.654811e+00
  2.207120e+01    2.383140e+00
  2.208708e+01    2.178387e+00
  2.210296e+01    1.992790e+00
  2.211883e+01    1.843026e+00
  2.213471e+01    1.729631e+00
  2.215058e+01    1.627227e+00
  2.216646e+01    1.568304e+00
  2.218233e+01    1.480155e+00
  2.219821e+01    1.418263e+00
  2.221408e+01    1.370379e+00
  2.222996e+01    1.331965e+00
  2.224584e+01    1.274475e+00
  2.226171e+01    1.242281e+00
  2.227759e+01    1.187540e+00
  2.229346e+01    1.195700e+00
  2.230934e+01    1.163865e+00
  2.232521e+01    1.148418e+00
  2.234109e+01    1.126793e+00
  2.235696e+01    1.120288e+00
  2.237284e+01    1.091501e+00
  2.238872e+01    1.070776e+00
  2.240459e+01    1.072519e+00
  2.242047e+01    1.065423e+00
  2.243634e+01    1.056257e+00
  2.245222e+01    1.049846e+00
  2.246809e+01    1.019625e+00
  2.248397e+01    1.032170e+00
  2.249984e+01    1.013684e+00
  2.251572e+01    1.013108e+00
  2.253160e+01    1.030714e+00
  2.254747e+01    9.938439e-01
  2.256335e+01    9.675990e-01
  2.257922e+01    9.709076e-01
  2.259510e+01    9.714037e-01
  2.261097e+01    9.785568e-01
  2.262685e+01    9.965212e-01
  2.264272e+01    9.848387e-01
  2.265860e+01    9.642612e-01
  2.267448e+01    9.560063e-01
  2.269035e+01    9.519997e-01
  2.270623e+01    9.644485e-01
  2.272210e+01    9.524470e-01
  2.273798e+01    9.426654e-01
  2.275385e+01    9.510974e-01
  2.276973e+01    9.589702e-01
  2.278560e+01    9.520007e-01
  2.280148e+01    9.361677e-01
  2.281736e+01    9.375498e-01
  2.283323e+01    9.486893e-01
  2.284911e+01    9.538456e-01
  2.286498e+01    9.216367e-01
  2.288086e+01    9.270970e-01
  2.289673e+01    9.230984e-01
  2.291261e+01    9.238405e-01
  2.292848e+01    9.292371e-01
  2.294436e+01    9.040611e-01
  2.296024e+01    9.268802e-01
  2.297611e+01    9.218490e-01
  2.299199e+01    8.987755e-01
  2.300786e+01    9.032369e-01
  2.302374e+01    8.870040e-01
  2.303961e+01    8.841355e-01
  2.305549e+01    9.036199e-01
  2.307137e+01    8.888854e-01
  2.308724e+01    8.902358e-01
  2.310312e+01    8.860968e-01
  2.311899e+01    8.864648e-01
  2.313487e+01    8.959053e-01
  2.315074e+01    8.721175e-01
  2.316662e+01    8.760894e-01
  2.318249e+01    8.972144e-01
  2.319837e+01    9.041263e-01
  2.321425e+01    8.921652e-01
  2.323012e+01    8.750724e-01
  2.324600e+01    8.658580e-01
  2.326187e+01    8.692711e-01
  2.327775e+01    8.702714e-01
  2.329362e+01    8.405842e-01
  2.330950e+01    8.513968e-01
  2.332537e+01    8.740042e-01
  2.334125e+01    9.026178e-01
  2.335713e+01    8.796226e-01
  2.337300e+01    8.418059e-01
  2.338888e+01    8.676052e-01
  2.340475e+01    8.754851e-01
  2.342063e+01    8.864250e-01
  2.343650e+01    8.679576e-01
  2.345238e+01    8.629688e-01
  2.346825e+01    8.700334e-01
  2.348413e+01    8.716117e-01
  2.350001e+01    8.594864e-01
  2.351588e+01    8.541902e-01
  2.353176e+01    8.615662e-01
  2.354763e+01    8.701092e-01
  2.356351e+01    8.626473e-01
  2.357938e+01    8.485903e-01
  2.359526e+01    8.557106e-01
  2.361113e+01    8.579385e-01
  2.362701e+01    8.789371e-01
  2.364289e+01    8.660186e-01
  2.365876e+01    8.560864e-01
  2.367464e+01    8.320779e-01
  2.369051e+01    8.185358e-01
  2.370639e+01    8.289403e-01
  2.372226e+01    8.167942e-01
  2.373814e+01    8.162752e-01
  2.375401e+01    8.308645e-01
  2.376989e+01    8.391097e-01
  2.378577e+01    8.268229e-01
  2.380164e+01    8.187828e-01
  2.381752e+01    8.299078e-01
  2.383339e+01    8.207511e-01
  2.384927e+01    8.043149e-01
  2.386514e+01    7.944508e-01
  2.388102e+01    7.943721e-01
  2.389689e+01    8.120952e-01
  2.391277e+01    8.241752e-01
  2.392865e+01    8.141865e-01
  2.394452e+01    7.875572e-01
  2.396040e+01    7.961810e-01
  2.397627e+01    7.966987e-01
  2.399215e+01    8.128488e-01
  2.400802e+01    7.880404e-01
  2.402390e+01    7.984139e-01
  2.403978e+01    7.926390e-01
  2.405565e+01    7.865832e-01
  2.407153e+01    7.845445e-01
  2.408740e+01    8.044088e-01
  2.410328e+01    8.116931e-01
  2.411915e+01    7.938412e-01
  2.413503e+01    7.884332e-01
  2.415090e+01    7.824817e-01
  2.416678e+01    7.833197e-01
  2.418266e+01    7.856236e-01
  2.419853e+01    7.855455e-01
  2.421441e+01    7.734359e-01
  2.423028e+01    7.825837e-01
  2.424616e+01    7.625291e-01
  2.426203e+01    8.017612e-01
  2.427791e+01    8.030826e-01
  2.429378e+01    7.972306e-01
  2.430966e+01    7.756659e-01
  2.432554e+01    7.899452e-01
  2.434141e+01    7.808023e-01
  2.435729e+01    7.782521e-01
  2.437316e+01    7.778938e-01
  2.438904e+01    7.870052e-01
  2.440491e+01    7.974506e-01
  2.442079e+01    7.886841e-01
  2.443666e+01    7.821009e-01
  2.445254e+01    7.795939e-01
  2.446842e+01    7.874392e-01
  2.448429e+01    7.926348e-01
  2.450017e+01    7.963468e-01
  2.451604e+01    7.976141e-01
  2.453192e+01    7.950944e-01
  2.454779e+01    8.022699e-01
  2.456367e+01    7.987722e-01
  2.457954e+01    8.133150e-01
  2.459542e+01    8.116288e-01
  2.461130e+01    8.121665e-01
  2.462717e+01    7.962800e-01
  2.464305e+01    8.025858e-01
  2.465892e+01    8.120022e-01
  2.467480e+01    7.944204e-01
  2.469067e+01    7.928761e-01
  2.470655e+01    7.765525e-01
  2.472242e+01    7.646210e-01
  2.473830e+01    7.942909e-01
  2.475418e+01    8.040954e-01
  2.477005e+01    7.856102e-01
  2.478593e+01    7.821357e-01
  2.480180e+01    7.777915e-01
  2.481768e+01    7.748197e-01
  2.483355e+01    8.000727e-01
  2.484943e+01    7.915775e-01
  2.486530e+01    7.837959e-01
  2.488118e+01    7.948521e-01
  2.489706e+01    7.961560e-01
  2.491293e+01    7.963764e-01
  2.492881e+01    7.851353e-01
  2.494468e+01    7.838055e-01
  2.496056e+01    8.099266e-01
  2.497643e+01    7.952378e-01
  2.499231e+01    8.017781e-01
  2.500819e+01    7.900814e-01
  2.502406e+01    8.045704e-01
  2.503994e+01    7.862604e-01
  2.505581e+01    7.927139e-01
  2.507169e+01    8.240852e-01
  2.508756e+01    8.292355e-01
  2.510344e+01    8.111919e-01
  2.511931e+01    8.117243e-01
  2.513519e+01    8.212540e-01
  2.515107e+01    8.000672e-01
  2.516694e+01    8.142927e-01
  2.518282e+01    8.417895e-01
  2.519869e+01    8.414816e-01
  2.521457e+01    8.259621e-01
  2.523044e+01    8.368389e-01
  2.524632e+01    8.586786e-01
  2.526219e+01    8.364141e-01
  2.527807e+01    8.630538e-01
  2.529395e+01    8.545773e-01
  2.530982e+01    8.607596e-01
  2.532570e+01    8.705080e-01
  2.534157e+01    8.844068e-01
  2.535745e+01    9.040174e-01
  2.537332e+01    9.041851e-01
  2.538920e+01    9.026085e-01
  2.540507e+01    9.112269e-01
  2.542095e+01    9.197019e-01
  2.543683e+01    9.191191e-01
  2.545270e+01    9.465127e-01
  2.546858e+01    9.675267e-01
  2.548445e+01    9.674407e-01
  2.550033e+01    9.805991e-01
  2.551620e+01    1.006540e+00
  2.553208e+01    1.024909e+00
  2.554795e+01    1.024487e+00
  2.556383e+01    1.044118e+00
  2.557971e+01    1.096179e+00
  2.559558e+01    1.111735e+00
  2.561146e+01    1.134048e+00
  2.562733e+01    1.180729e+00
  2.564321e+01    1.215829e+00
  2.565908e+01    1.299541e+00
  2.567496e+01    1.367002e+00
  2.569083e+01    1.456651e+00
  2.570671e+01    1.529761e+00
  2.572259e+01    1.654806e+00
  2.573846e+01    1.794004e+00
  2.575434e+01    1.999680e+00
  2.577021e+01    2.203618e+00
  2.578609e+01    2.443383e+00
  2.580196e+01    2.795798e+00
  2.581784e+01    3.164139e+00
  2.583371e+01    3.572799e+00
  2.584959e+01    4.084426e+00
  2.586547e+01    4.696063e+00
  2.588134e+01    5.243161e+00
  2.589722e+01    5.827233e+00
  2.591309e+01    6.434696e+00
  2.592897e+01    6.904163e+00
  2.594484e+01    7.221828e+00
  2.596072e+01    7.316946e+00
  2.597660e+01    7.200920e+00
  2.599247e+01    6.730141e+00
  2.600835e+01    6.091928e+00
  2.602422e+01    5.362870e+00
  2.604010e+01    4.608217e+00
  2.605597e+01    3.944252e+00
  2.607185e+01    3.377744e+00
  2.608772e+01    2.899086e+00
  2.610360e+01    2.582501e+00
  2.611948e+01    2.313712e+00
  2.613535e+01    2.078646e+00
  2.615123e+01    1.883359e+00
  2.616710e+01    1.730504e+00
  2.618298e+01    1.606388e+00
  2.619885e+01    1.472247e+00
  2.621473e+01    1.372253e+00
  2.623060e+01    1.322088e+00
  2.624648e+01    1.251264e+00
  2.626236e+01    1.207552e+00
  2.627823e+01    1.155517e+00
  2.629411e+01    1.130833e+00
  2.630998e+01    1.082082e+00
  2.632586e+01    1.048561e+00
  2.634173e+01    1.050834e+00
  2.635761e+01    1.009858e+00
  2.637348e+01    9.882541e-01
  2.638936e+01    9.851606e-01
  2.640524e+01    9.683872e-01
  2.642111e+01    9.412447e-01
  2.643699e+01    9.396064e-01
  2.645286e+01    9.378987e-01
  2.646874e+01    9.290493e-01
  2.648461e+01    9.352803e-01
  2.650049e+01    9.407339e-01
  2.651636e+01    9.143729e-01
  2.653224e+01    9.030533e-01
  2.654812e+01    9.013110e-01
  2.656399e+01    8.970063e-01
  2.657987e+01    8.947142e-01
  2.659574e+01    8.895501e-01
  2.661162e+01    8.977170e-01
  2.662749e+01    8.848994e-01
  2.664337e+01    9.012603e-01
  2.665924e+01    9.102351e-01
  2.667512e+01    8.797294e-01
  2.669100e+01    8.759627e-01
  2.670687e+01    8.801716e-01
  2.672275e+01    8.921183e-01
  2.673862e+01    8.817308e-01
  2.675450e+01    8.860199e-01
  2.677037e+01    8.817214e-01
  2.678625e+01    8.885770e-01
  2.680212e+01    9.037611e-01
  2.681800e+01    8.952354e-01
  2.683388e+01    8.924085e-01
  2.684975e+01    8.925012e-01
  2.686563e+01    9.028600e-01
  2.688150e+01    9.086910e-01
  2.689738e+01    9.148521e-01
  2.691325e+01    9.156207e-01
  2.692913e+01    9.399180e-01
  2.694501e+01    9.487185e-01
  2.696088e+01    9.728135e-01
  2.697676e+01    9.834985e-01
  2.699263e+01    1.014919e+00
  2.700851e+01    1.040133e+00
  2.702438e+01    1.083030e+00
  2.704026e+01    1.129544e+00
  2.705613e+01    1.171717e+00
  2.707201e+01    1.243172e+00
  2.708789e+01    1.329594e+00
  2.710376e+01    1.433349e+00
  2.711964e+01    1.543877e+00
  2.713551e+01    1.669145e+00
  2.715139e+01    1.807929e+00
  2.716726e+01    1.917541e+00
  2.718314e+01    2.062596e+00
  2.719901e+01    2.163888e+00
  2.721489e+01    2.218053e+00
  2.723077e+01    2.200821e+00
  2.724664e+01    2.142407e+00
  2.726252e+01    1.985788e+00
  2.727839e+01    1.806967e+00
  2.729427e+01    1.661604e+00
  2.731014e+01    1.529572e+00
  2.732602e+01    1.391745e+00
  2.734189e+01    1.297624e+00
  2.735777e+01    1.215946e+00
  2.737365e+01    1.135733e+00
  2.738952e+01    1.103452e+00
  2.740540e+01    1.040586e+00
  2.742127e+01    9.997968e-01
  2.743715e+01    9.839612e-01
  2.745302e+01    9.555938e-01
  2.746890e+01    9.369568e-01
  2.748477e+01    9.167796e-01
  2.750065e+01    8.887466e-01
  2.751653e+01    8.785191e-01
  2.753240e+01    8.967052e-01
  2.754828e+01    8.691518e-01
  2.756415e+01    8.423397e-01
  2.758003e+01    8.570441e-01
  2.759590e+01    8.560492e-01
  2.761178e+01    8.586534e-01
  2.762765e+01    8.509991e-01
  2.764353e+01    8.202158e-01
  2.765941e+01    8.397887e-01
  2.767528e+01    8.301967e-01
  2.769116e+01    8.060721e-01
  2.770703e+01    7.822216e-01
  2.772291e+01    8.170037e-01
  2.773878e+01    8.354682e-01
  2.775466e+01    8.139736e-01
  2.777054e+01    8.190032e-01
  2.778641e+01    8.251815e-01
  2.780229e+01    8.051922e-01
  2.781816e+01    8.123751e-01
  2.783404e+01    8.008206e-01
  2.784991e+01    8.062313e-01
  2.786579e+01    8.054042e-01
  2.788166e+01    7.910395e-01
  2.789754e+01    8.051734e-01
  2.791342e+01    7.924925e-01
  2.792929e+01    7.790519e-01
  2.794517e+01    7.527907e-01
  2.796104e+01    7.779626e-01
  2.797692e+01    7.823916e-01
  2.799279e+01    7.746188e-01
  2.800867e+01    7.769036e-01
  2.802454e+01    7.672858e-01
  2.804042e+01    7.796293e-01
  2.805630e+01    7.866023e-01
  2.807217e+01    7.853189e-01
  2.808805e+01    7.717327e-01
  2.810392e+01    7.656499e-01
  2.811980e+01    7.674995e-01
  2.813567e+01    7.665761e-01
  2.815155e+01    7.818736e-01
  2.816742e+01    7.856706e-01
  2.818330e+01    7.698755e-01
  2.819918e+01    7.579191e-01
  2.821505e+01    7.735932e-01
  2.823093e+01    7.793230e-01
  2.824680e+01    7.736452e-01
  2.826268e+01    7.786890e-01
  2.827855e+01    7.662024e-01
  2.829443e+01    7.745411e-01
  2.831030e+01    7.775182e-01
  2.832618e+01    7.624638e-01
  2.834206e+01    7.558606e-01
  2.835793e+01    7.582080e-01
  2.837381e+01    7.532831e-01
  2.838968e+01    7.524052e-01
  2.840556e+01    7.565026e-01
  2.842143e+01    7.554296e-01
  2.843731e+01    7.728840e-01
  2.845318e+01    7.616318e-01
  2.846906e+01    7.605499e-01
  2.848494e+01    7.466468e-01
  2.850081e+01    7.577173e-01
  2.851669e+01    7.449865e-01
  2.853256e+01    7.410514e-01
  2.854844e+01    7.408338e-01
  2.856431e+01    7.418047e-01
  2.858019e+01    7.548983e-01
  2.859606e+01    7.475883e-01
  2.861194e+01    7.703265e-01
  2.862782e+01    7.590939e-01
  2.864369e+01    7.479396e-01
  2.865957e+01    7.550174e-01
  2.867544e+01    7.501736e-01
  2.869132e+01    7.542103e-01
  2.870719e+01    7.516270e-01
  2.872307e+01    7.535735e-01
  2.873895e+01    7.500697e-01
  2.875482e+01    7.645234e-01
  2.877070e+01    7.642542e-01
  2.878657e+01    7.480953e-01
  2.880245e+01    7.590538e-01
  2.881832e+01    7.489347e-01
  2.883420e+01    7.357756e-01
  2.885007e+01    7.443327e-01
  2.886595e+01    7.523380e-01
  2.888183e+01    7.502090e-01
  2.889770e+01    7.392790e-01
  2.891358e+01    7.653427e-01
  2.892945e+01    7.329217e-01
  2.894533e+01    7.335426e-01
  2.896120e+01    7.284355e-01
  2.897708e+01    7.440614e-01
  2.899295e+01    7.470214e-01
  2.900883e+01    7.414725e-01
  2.902471e+01    7.283515e-01
  2.904058e+01    7.382931e-01
  2.905646e+01    7.272743e-01
  2.907233e+01    7.406858e-01
  2.908821e+01    7.405660e-01
  2.910408e+01    7.307031e-01
  2.911996e+01    7.386853e-01
  2.913583e+01    7.525401e-01
  2.915171e+01    7.592633e-01
  2.916759e+01    7.241782e-01
  2.918346e+01    7.380056e-01
  2.919934e+01    7.404835e-01
  2.921521e+01    7.445202e-01
  2.923109e+01    7.441723e-01
  2.924696e+01    7.211983e-01
  2.926284e+01    7.410129e-01
  2.927871e+01    7.278700e-01
  2.929459e+01    7.312275e-01
  2.931047e+01    7.333273e-01
  2.932634e+01    7.212793e-01
  2.934222e+01    7.392652e-01
  2.935809e+01    7.378318e-01
  2.937397e+01    7.326829e-01
  2.938984e+01    7.372908e-01
  2.940572e+01    7.196649e-01
  2.942159e+01    7.273146e-01
  2.943747e+01    7.302626e-01
  2.945335e+01    7.258085e-01
  2.946922e+01    7.535947e-01
  2.948510e+01    7.491738e-01
  2.950097e+01    7.109150e-01
  2.951685e+01    7.376520e-01
  2.953272e+01    7.330230e-01
  2.954860e+01    7.242908e-01
  2.956447e+01    7.309989e-01
  2.958035e+01    7.184783e-01
  2.959623e+01    7.389912e-01
  2.961210e+01    7.304303e-01
  2.962798e+01    7.156761e-01
  2.964385e+01    7.223751e-01
  2.965973e+01    7.250497e-01
  2.967560e+01    6.993361e-01
  2.969148e+01    7.148015e-01
  2.970736e+01    7.061566e-01
  2.972323e+01    7.074935e-01
  2.973911e+01    6.850988e-01
  2.975498e+01    7.109432e-01
  2.977086e+01    7.129067e-01
  2.978673e+01    7.015781e-01
  2.980261e+01    7.158833e-01
  2.981848e+01    7.156046e-01
  2.983436e+01    7.211457e-01
  2.985024e+01    6.996496e-01
  2.986611e+01    7.076768e-01
  2.988199e+01    7.136273e-01
  2.989786e+01    7.359485e-01
  2.991374e+01    7.244371e-01
  2.992961e+01    7.205238e-01
  2.994549e+01    7.311851e-01
  2.996136e+01    7.324716e-01
  2.997724e+01    7.262058e-01
  2.999312e+01    7.090421e-01
  3.000899e+01    7.317083e-01
  3.002487e+01    7.349997e-01
  3.004074e+01    7.433950e-01
  3.005662e+01    7.409186e-01
  3.007249e+01    7.437384e-01
  3.008837e+01    7.433928e-01
  3.010424e+01    7.191769e-01
  3.012012e+01    6.837283e-01
  3.013600e+01    7.078669e-01
  3.015187e+01    7.148903e-01
  3.016775e+01    7.260256e-01
  3.018362e+01    7.050219e-01
  3.019950e+01    7.200867e-01
  3.021537e+01    7.150357e-01
  3.023125e+01    7.191991e-01
  3.024712e+01    7.067264e-01
  3.026300e+01    7.178659e-01
  3.027888e+01    7.262589e-01
  3.029475e+01    7.097260e-01
  3.031063e+01    7.042814e-01
  3.032650e+01    6.932389e-01
  3.034238e+01    6.961684e-01
  3.035825e+01    7.159649e-01
  3.037413e+01    7.018618e-01
  3.039000e+01    6.935940e-01
  3.040588e+01    6.950195e-01
  3.042176e+01    7.055070e-01
  3.043763e+01    7.096285e-01
  3.045351e+01    7.312858e-01
  3.046938e+01    6.951349e-01
  3.048526e+01    6.974985e-01
  3.050113e+01    6.988662e-01
  3.051701e+01    7.133791e-01
  3.053288e+01    7.038535e-01
  3.054876e+01    7.093275e-01
  3.056464e+01    7.118177e-01
  3.058051e+01    7.185845e-01
  3.059639e+01    7.384479e-01
  3.061226e+01    7.288781e-01
  3.062814e+01    6.919658e-01
  3.064401e+01    7.014754e-01
  3.065989e+01    7.095169e-01
  3.067577e+01    7.126231e-01
  3.069164e+01    7.091219e-01
  3.070752e+01    7.066052e-01
  3.072339e+01    6.997478e-01
  3.073927e+01    7.101710e-01
  3.075514e+01    6.963792e-01
  3.077102e+01    7.051967e-01
  3.078689e+01    7.250986e-01
  3.080277e+01    7.095684e-01
  3.081865e+01    7.078191e-01
  3.083452e+01    7.126272e-01
  3.085040e+01    7.186779e-01
  3.086627e+01    7.130537e-01
  3.088215e+01    7.028505e-01
  3.089802e+01    7.131118e-01
  3.091390e+01    7.206332e-01
  3.092977e+01    7.265495e-01
  3.094565e+01    7.382343e-01
  3.096153e+01    7.187967e-01
  3.097740e+01    7.000579e-01
  3.099328e+01    7.009071e-01
  3.100915e+01    7.054896e-01
  3.102503e+01    7.067201e-01
  3.104090e+01    7.138625e-01
  3.105678e+01    7.173156e-01
  3.107265e+01    7.295434e-01
  3.108853e+01    7.050201e-01
  3.110441e+01    7.270595e-01
  3.112028e+01    7.100673e-01
  3.113616e+01    7.023758e-01
  3.115203e+01    7.166451e-01
  3.116791e+01    7.290592e-01
  3.118378e+01    7.300372e-01
  3.119966e+01    7.184712e-01
  3.121553e+01    7.326682e-01
  3.123141e+01    7.400714e-01
  3.124729e+01    7.328341e-01
  3.126316e+01    7.268664e-01
  3.127904e+01    7.310964e-01
  3.129491e+01    7.469175e-01
  3.131079e+01    7.279415e-01
  3.132666e+01    7.329551e-01
  3.134254e+01    7.368373e-01
  3.135841e+01    7.386762e-01
  3.137429e+01    7.297213e-01
  3.139017e+01    7.325813e-01
  3.140604e+01    7.448006e-01
  3.142192e+01    7.465235e-01
  3.143779e+01    7.543296e-01
  3.145367e+01    7.604348e-01
  3.146954e+01    7.705462e-01
  3.148542e+01    7.870207e-01
  3.150129e+01    7.894402e-01
  3.151717e+01    7.845385e-01
  3.153305e+01    7.901563e-01
  3.154892e+01    7.910268e-01
  3.156480e+01    8.003874e-01
  3.158067e+01    8.162149e-01
  3.159655e+01    8.130965e-01
  3.161242e+01    8.261840e-01
  3.162830e+01    8.473031e-01
  3.164418e+01    8.452244e-01
  3.166005e+01    8.768109e-01
  3.167593e+01    9.398815e-01
  3.169180e+01    9.622450e-01
  3.170768e+01    9.894033e-01
  3.172355e+01    1.050105e+00
  3.173943e+01    1.103013e+00
  3.175530e+01    1.174152e+00
  3.177118e+01    1.254976e+00
  3.178706e+01    1.340095e+00
  3.180293e+01    1.459466e+00
  3.181881e+01    1.584779e+00
  3.183468e+01    1.739060e+00
  3.185056e+01    1.836141e+00
  3.186643e+01    1.996101e+00
  3.188231e+01    2.095046e+00
  3.189818e+01    2.154161e+00
  3.191406e+01    2.167679e+00
  3.192994e+01    2.126509e+00
  3.194581e+01    1.969078e+00
  3.196169e+01    1.855650e+00
  3.197756e+01    1.715647e+00
  3.199344e+01    1.531242e+00
  3.200931e+01    1.396077e+00
  3.202519e+01    1.259319e+00
  3.204106e+01    1.172539e+00
  3.205694e+01    1.111621e+00
  3.207282e+01    1.031328e+00
  3.208869e+01    9.752632e-01
  3.210457e+01    9.357893e-01
  3.212044e+01    9.088677e-01
  3.213632e+01    8.758475e-01
  3.215219e+01    8.831407e-01
  3.216807e+01    8.480587e-01
  3.218394e+01    8.185825e-01
  3.219982e+01    8.067383e-01
  3.221570e+01    7.824050e-01
  3.223157e+01    7.889701e-01
  3.224745e+01    7.775239e-01
  3.226332e+01    7.814565e-01
  3.227920e+01    7.692499e-01
  3.229507e+01    7.743019e-01
  3.231095e+01    7.440667e-01
  3.232682e+01    7.520256e-01
  3.234270e+01    7.512920e-01
  3.235858e+01    7.458068e-01
  3.237445e+01    7.365351e-01
  3.239033e+01    7.202880e-01
  3.240620e+01    7.164660e-01
  3.242208e+01    7.346143e-01
  3.243795e+01    7.194274e-01
  3.245383e+01    7.032976e-01
  3.246970e+01    7.069144e-01
  3.248558e+01    7.263090e-01
  3.250146e+01    7.340717e-01
  3.251733e+01    7.526644e-01
  3.253321e+01    7.395926e-01
  3.254908e+01    7.248644e-01
