# == pyFAI calibration ==
# Distance Sample to Detector: 0.3999999939076516 m
# PONI: 9.750e-02, 1.135e-01 m
# Rotations: -0.000175 0.000000 -0.000000 rad
# 
# == Fit2d calibration ==
# Distance Sample-beamCenter: 400.000 mm
# Center: x=1514.000, y=1300.000 pix
# Tilt: 0.010 deg  TiltPlanRot: 0.010 deg
# 
# Detector Detector	 Spline= None	 PixelSize= 7.500e-05, 7.500e-05 m
#    Detector has a mask: False 
#    Detector has a dark current: False 
#    detector has a flat field: False 
# 
# Wavelength: 6.888e-11 m
# Mask applied: user provided
# Dark current applied: False
# Flat field applied: False
# Polarization factor: 0.99
# Normalization factor: 1.0
# --> /home/myspot/data/2024_07_Rosario/Ru-CGO-ex/2024-07-27_002_Ru-CGO-ex_Activtation_ramp_000002_data_000046.dat
#       q_nm^-1             I 
  2.003187e-02    0.000000e+00
  3.590745e-02    0.000000e+00
  5.178302e-02    9.434488e-02
  6.765859e-02    2.122924e-01
  8.353417e-02    1.267394e-01
  9.940974e-02    9.860194e-02
  1.152853e-01    3.617096e-02
  1.311609e-01    1.314008e-02
  1.470365e-01    5.587845e-02
  1.629120e-01    9.038654e-03
  1.787876e-01    7.287648e-02
  1.946632e-01    8.614633e-02
  2.105388e-01    6.221920e-02
  2.264143e-01    4.072597e-02
  2.422899e-01    4.957883e-02
  2.581655e-01    7.925104e-02
  2.740411e-01    3.000029e-02
  2.899166e-01    4.932704e-02
  3.057922e-01    3.185549e-02
  3.216678e-01    2.684012e-02
  3.375433e-01    1.771755e-02
  3.534189e-01    1.141921e-02
  3.692945e-01    2.839355e-02
  3.851701e-01    3.507463e-02
  4.010456e-01    4.887905e-02
  4.169212e-01    1.507124e-02
  4.327968e-01    3.075294e-02
  4.486724e-01    2.755974e-02
  4.645479e-01    5.661866e-02
  4.804235e-01    4.208498e-02
  4.962991e-01    2.237953e-02
  5.121747e-01    5.536800e-02
  5.280502e-01    3.248614e-02
  5.439258e-01    4.846894e-02
  5.598014e-01    4.263763e-02
  5.756770e-01    3.704751e-02
  5.915525e-01    2.415946e-02
  6.074281e-01    2.639357e-02
  6.233037e-01    3.923464e-02
  6.391793e-01    4.655958e-02
  6.550548e-01    3.108307e-02
  6.709304e-01    2.928388e-02
  6.868060e-01    4.898817e-02
  7.026815e-01    3.462364e-02
  7.185571e-01    3.953674e-02
  7.344327e-01    2.526208e-02
  7.503083e-01    3.215472e-02
  7.661838e-01    6.003703e-02
  7.820594e-01    1.218293e-01
  7.979350e-01    1.452606e-01
  8.138106e-01    1.984569e-01
  8.296861e-01    2.475290e-01
  8.455617e-01    2.618547e-01
  8.614373e-01    3.485726e-01
  8.773129e-01    4.731773e-01
  8.931884e-01    5.300936e-01
  9.090640e-01    6.477354e-01
  9.249396e-01    7.284644e-01
  9.408152e-01    7.580944e-01
  9.566907e-01    7.854054e-01
  9.725663e-01    9.079010e-01
  9.884419e-01    9.892305e-01
  1.004317e+00    9.800470e-01
  1.020193e+00    1.079412e+00
  1.036069e+00    1.159789e+00
  1.051944e+00    1.282588e+00
  1.067820e+00    1.289469e+00
  1.083695e+00    1.330166e+00
  1.099571e+00    1.401975e+00
  1.115446e+00    1.453275e+00
  1.131322e+00    1.372601e+00
  1.147198e+00    1.434888e+00
  1.163073e+00    1.604464e+00
  1.178949e+00    1.603234e+00
  1.194824e+00    1.601010e+00
  1.210700e+00    1.822480e+00
  1.226575e+00    2.103399e+00
  1.242451e+00    2.244854e+00
  1.258327e+00    2.326391e+00
  1.274202e+00    2.245742e+00
  1.290078e+00    2.411981e+00
  1.305953e+00    2.602332e+00
  1.321829e+00    2.653667e+00
  1.337705e+00    2.598475e+00
  1.353580e+00    2.486385e+00
  1.369456e+00    2.614120e+00
  1.385331e+00    2.618948e+00
  1.401207e+00    2.664301e+00
  1.417082e+00    2.543536e+00
  1.432958e+00    2.635190e+00
  1.448834e+00    2.815047e+00
  1.464709e+00    2.824560e+00
  1.480585e+00    2.991376e+00
  1.496460e+00    2.925152e+00
  1.512336e+00    2.943866e+00
  1.528211e+00    3.121835e+00
  1.544087e+00    3.017245e+00
  1.559963e+00    3.020962e+00
  1.575838e+00    2.970621e+00
  1.591714e+00    3.044539e+00
  1.607589e+00    3.013809e+00
  1.623465e+00    2.986271e+00
  1.639340e+00    2.910122e+00
  1.655216e+00    2.950505e+00
  1.671092e+00    3.014687e+00
  1.686967e+00    2.995375e+00
  1.702843e+00    2.944513e+00
  1.718718e+00    3.014755e+00
  1.734594e+00    2.908708e+00
  1.750469e+00    2.819523e+00
  1.766345e+00    2.930860e+00
  1.782221e+00    2.967026e+00
  1.798096e+00    2.764864e+00
  1.813972e+00    2.697198e+00
  1.829847e+00    2.749137e+00
  1.845723e+00    2.802595e+00
  1.861598e+00    2.970316e+00
  1.877474e+00    2.840273e+00
  1.893350e+00    2.693897e+00
  1.909225e+00    2.759599e+00
  1.925101e+00    2.670010e+00
  1.940976e+00    2.637135e+00
  1.956852e+00    2.658516e+00
  1.972727e+00    2.762804e+00
  1.988603e+00    2.753822e+00
  2.004479e+00    2.729904e+00
  2.020354e+00    2.748054e+00
  2.036230e+00    2.891453e+00
  2.052105e+00    2.769755e+00
  2.067981e+00    2.702634e+00
  2.083856e+00    2.681459e+00
  2.099732e+00    2.803730e+00
  2.115608e+00    2.765826e+00
  2.131483e+00    2.640218e+00
  2.147359e+00    2.633413e+00
  2.163234e+00    2.857209e+00
  2.179110e+00    2.719365e+00
  2.194985e+00    2.798707e+00
  2.210861e+00    2.765482e+00
  2.226737e+00    2.681938e+00
  2.242612e+00    2.741439e+00
  2.258488e+00    2.717962e+00
  2.274363e+00    2.670240e+00
  2.290239e+00    2.761686e+00
  2.306115e+00    2.743887e+00
  2.321990e+00    2.826985e+00
  2.337866e+00    2.849648e+00
  2.353741e+00    2.863623e+00
  2.369617e+00    2.784227e+00
  2.385492e+00    2.641677e+00
  2.401368e+00    2.736791e+00
  2.417244e+00    2.724866e+00
  2.433119e+00    2.747832e+00
  2.448995e+00    2.806267e+00
  2.464870e+00    2.836982e+00
  2.480746e+00    2.806089e+00
  2.496621e+00    2.880388e+00
  2.512497e+00    2.888359e+00
  2.528373e+00    2.821281e+00
  2.544248e+00    2.874130e+00
  2.560124e+00    2.840974e+00
  2.575999e+00    2.844626e+00
  2.591875e+00    2.830371e+00
  2.607750e+00    2.846002e+00
  2.623626e+00    2.775833e+00
  2.639502e+00    2.842206e+00
  2.655377e+00    2.845409e+00
  2.671253e+00    2.803241e+00
  2.687128e+00    2.809279e+00
  2.703004e+00    2.834741e+00
  2.718879e+00    2.849627e+00
  2.734755e+00    2.790683e+00
  2.750631e+00    2.796950e+00
  2.766506e+00    2.723721e+00
  2.782382e+00    2.723807e+00
  2.798257e+00    2.700177e+00
  2.814133e+00    2.715785e+00
  2.830008e+00    2.885055e+00
  2.845884e+00    2.843146e+00
  2.861760e+00    2.840310e+00
  2.877635e+00    2.929916e+00
  2.893511e+00    2.967258e+00
  2.909386e+00    2.905021e+00
  2.925262e+00    2.891107e+00
  2.941137e+00    2.884827e+00
  2.957013e+00    2.826295e+00
  2.972889e+00    2.883162e+00
  2.988764e+00    2.762550e+00
  3.004640e+00    2.837465e+00
  3.020515e+00    2.906897e+00
  3.036391e+00    2.923769e+00
  3.052266e+00    2.895439e+00
  3.068142e+00    2.888422e+00
  3.084018e+00    2.877231e+00
  3.099893e+00    2.869539e+00
  3.115769e+00    2.903052e+00
  3.131644e+00    2.978557e+00
  3.147520e+00    2.919744e+00
  3.163395e+00    2.845628e+00
  3.179271e+00    2.797256e+00
  3.195147e+00    2.896752e+00
  3.211022e+00    2.956140e+00
  3.226898e+00    2.944626e+00
  3.242773e+00    2.894019e+00
  3.258649e+00    2.874382e+00
  3.274525e+00    2.874361e+00
  3.290400e+00    2.879367e+00
  3.306276e+00    3.002609e+00
  3.322151e+00    3.042337e+00
  3.338027e+00    2.952417e+00
  3.353902e+00    2.930021e+00
  3.369778e+00    2.891125e+00
  3.385654e+00    3.008503e+00
  3.401529e+00    2.987208e+00
  3.417405e+00    2.970158e+00
  3.433280e+00    2.932522e+00
  3.449156e+00    2.911797e+00
  3.465031e+00    2.918839e+00
  3.480907e+00    2.952020e+00
  3.496783e+00    2.958362e+00
  3.512658e+00    2.977252e+00
  3.528534e+00    3.007770e+00
  3.544409e+00    2.917886e+00
  3.560285e+00    3.003654e+00
  3.576160e+00    3.030835e+00
  3.592036e+00    2.955706e+00
  3.607912e+00    2.977975e+00
  3.623787e+00    2.992699e+00
  3.639663e+00    2.938633e+00
  3.655538e+00    3.095199e+00
  3.671414e+00    3.005300e+00
  3.687289e+00    2.965554e+00
  3.703165e+00    2.988549e+00
  3.719041e+00    2.897121e+00
  3.734916e+00    2.930707e+00
  3.750792e+00    2.969051e+00
  3.766667e+00    2.966936e+00
  3.782543e+00    2.947368e+00
  3.798418e+00    3.040534e+00
  3.814294e+00    3.050237e+00
  3.830170e+00    2.992045e+00
  3.846045e+00    2.947854e+00
  3.861921e+00    2.993193e+00
  3.877796e+00    2.939515e+00
  3.893672e+00    2.954028e+00
  3.909547e+00    2.997247e+00
  3.925423e+00    2.946429e+00
  3.941299e+00    2.991897e+00
  3.957174e+00    3.028760e+00
  3.973050e+00    3.015300e+00
  3.988925e+00    2.992474e+00
  4.004801e+00    2.938632e+00
  4.020676e+00    2.957269e+00
  4.036552e+00    2.959553e+00
  4.052428e+00    3.014193e+00
  4.068303e+00    3.006581e+00
  4.084179e+00    3.001353e+00
  4.100054e+00    3.002058e+00
  4.115930e+00    2.994055e+00
  4.131806e+00    2.969187e+00
  4.147681e+00    2.914792e+00
  4.163557e+00    3.069400e+00
  4.179432e+00    3.018371e+00
  4.195308e+00    3.017996e+00
  4.211183e+00    3.034280e+00
  4.227059e+00    3.054634e+00
  4.242935e+00    3.040529e+00
  4.258810e+00    3.015637e+00
  4.274686e+00    3.004066e+00
  4.290561e+00    2.965836e+00
  4.306437e+00    3.109017e+00
  4.322312e+00    3.082684e+00
  4.338188e+00    3.073446e+00
  4.354064e+00    3.061910e+00
  4.369939e+00    3.023616e+00
  4.385815e+00    3.080934e+00
  4.401690e+00    3.058518e+00
  4.417566e+00    3.013125e+00
  4.433441e+00    3.063641e+00
  4.449317e+00    3.030894e+00
  4.465193e+00    3.045776e+00
  4.481068e+00    3.126058e+00
  4.496944e+00    3.129154e+00
  4.512819e+00    3.120695e+00
  4.528695e+00    3.031049e+00
  4.544570e+00    3.042455e+00
  4.560446e+00    3.155957e+00
  4.576322e+00    3.108699e+00
  4.592197e+00    3.096199e+00
  4.608073e+00    3.112370e+00
  4.623948e+00    3.080707e+00
  4.639824e+00    3.104828e+00
  4.655699e+00    3.119101e+00
  4.671575e+00    2.991155e+00
  4.687451e+00    2.993831e+00
  4.703326e+00    3.196396e+00
  4.719202e+00    3.238730e+00
  4.735077e+00    3.312189e+00
  4.750953e+00    3.149823e+00
  4.766828e+00    3.030903e+00
  4.782704e+00    3.078327e+00
  4.798580e+00    3.020173e+00
  4.814455e+00    3.048411e+00
  4.830331e+00    3.137103e+00
  4.846206e+00    3.103245e+00
  4.862082e+00    3.152001e+00
  4.877957e+00    3.115806e+00
  4.893833e+00    3.117942e+00
  4.909709e+00    3.225450e+00
  4.925584e+00    3.218889e+00
  4.941460e+00    3.174304e+00
  4.957335e+00    3.081022e+00
  4.973211e+00    3.115163e+00
  4.989086e+00    3.127800e+00
  5.004962e+00    3.109471e+00
  5.020838e+00    3.114782e+00
  5.036713e+00    3.087621e+00
  5.052589e+00    3.093114e+00
  5.068464e+00    3.162832e+00
  5.084340e+00    3.208123e+00
  5.100216e+00    3.188046e+00
  5.116091e+00    3.242159e+00
  5.131967e+00    3.188875e+00
  5.147842e+00    3.209676e+00
  5.163718e+00    3.281909e+00
  5.179593e+00    3.157610e+00
  5.195469e+00    3.081508e+00
  5.211345e+00    3.037467e+00
  5.227220e+00    3.069127e+00
  5.243096e+00    3.096571e+00
  5.258971e+00    3.068344e+00
  5.274847e+00    3.072810e+00
  5.290722e+00    3.105240e+00
  5.306598e+00    3.124440e+00
  5.322474e+00    3.168580e+00
  5.338349e+00    3.164786e+00
  5.354225e+00    3.095132e+00
  5.370100e+00    3.130515e+00
  5.385976e+00    3.116901e+00
  5.401851e+00    3.086740e+00
  5.417727e+00    3.101463e+00
  5.433603e+00    3.072578e+00
  5.449478e+00    3.056699e+00
  5.465354e+00    3.048259e+00
  5.481229e+00    3.017791e+00
  5.497105e+00    3.033842e+00
  5.512980e+00    3.091869e+00
  5.528856e+00    3.052345e+00
  5.544732e+00    3.001750e+00
  5.560607e+00    3.004448e+00
  5.576483e+00    3.044367e+00
  5.592358e+00    3.038574e+00
  5.608234e+00    3.077148e+00
  5.624109e+00    3.089264e+00
  5.639985e+00    3.121768e+00
  5.655861e+00    3.164850e+00
  5.671736e+00    3.173552e+00
  5.687612e+00    3.151717e+00
  5.703487e+00    3.013645e+00
  5.719363e+00    3.044378e+00
  5.735238e+00    3.180181e+00
  5.751114e+00    3.093459e+00
  5.766990e+00    3.051698e+00
  5.782865e+00    3.040645e+00
  5.798741e+00    3.115048e+00
  5.814616e+00    3.060215e+00
  5.830492e+00    3.054142e+00
  5.846367e+00    3.056898e+00
  5.862243e+00    3.020515e+00
  5.878119e+00    3.043871e+00
  5.893994e+00    2.976299e+00
  5.909870e+00    2.974876e+00
  5.925745e+00    2.966422e+00
  5.941621e+00    2.927803e+00
  5.957497e+00    2.899576e+00
  5.973372e+00    2.931026e+00
  5.989248e+00    3.011412e+00
  6.005123e+00    3.082586e+00
  6.020999e+00    3.047415e+00
  6.036874e+00    3.068267e+00
  6.052750e+00    3.077659e+00
  6.068626e+00    3.085793e+00
  6.084501e+00    3.154418e+00
  6.100377e+00    3.140998e+00
  6.116252e+00    3.050915e+00
  6.132128e+00    3.072904e+00
  6.148003e+00    2.997972e+00
  6.163879e+00    3.062223e+00
  6.179755e+00    3.085429e+00
  6.195630e+00    3.058999e+00
  6.211506e+00    3.062492e+00
  6.227381e+00    3.058304e+00
  6.243257e+00    2.981909e+00
  6.259132e+00    3.086743e+00
  6.275008e+00    3.057056e+00
  6.290884e+00    2.944414e+00
  6.306759e+00    2.970773e+00
  6.322635e+00    2.990161e+00
  6.338510e+00    3.006277e+00
  6.354386e+00    3.037576e+00
  6.370261e+00    3.044202e+00
  6.386137e+00    3.011401e+00
  6.402013e+00    2.999229e+00
  6.417888e+00    2.989764e+00
  6.433764e+00    3.027024e+00
  6.449639e+00    3.047013e+00
  6.465515e+00    3.037504e+00
  6.481390e+00    3.086824e+00
  6.497266e+00    3.042702e+00
  6.513142e+00    3.068914e+00
  6.529017e+00    3.035299e+00
  6.544893e+00    3.003690e+00
  6.560768e+00    3.072069e+00
  6.576644e+00    3.016763e+00
  6.592519e+00    3.030118e+00
  6.608395e+00    3.078089e+00
  6.624271e+00    3.011013e+00
  6.640146e+00    3.016964e+00
  6.656022e+00    3.083943e+00
  6.671897e+00    3.002148e+00
  6.687773e+00    3.077798e+00
  6.703648e+00    3.057127e+00
  6.719524e+00    2.990984e+00
  6.735400e+00    2.953511e+00
  6.751275e+00    3.011801e+00
  6.767151e+00    3.043941e+00
  6.783026e+00    3.018619e+00
  6.798902e+00    2.963448e+00
  6.814777e+00    2.979723e+00
  6.830653e+00    3.015158e+00
  6.846529e+00    3.016737e+00
  6.862404e+00    3.037807e+00
  6.878280e+00    3.019766e+00
  6.894155e+00    3.009411e+00
  6.910031e+00    3.007167e+00
  6.925907e+00    3.018537e+00
  6.941782e+00    2.998586e+00
  6.957658e+00    2.994385e+00
  6.973533e+00    3.021771e+00
  6.989409e+00    3.024156e+00
  7.005284e+00    3.010595e+00
  7.021160e+00    3.044451e+00
  7.037036e+00    3.110144e+00
  7.052911e+00    3.014446e+00
  7.068787e+00    2.964236e+00
  7.084662e+00    2.978573e+00
  7.100538e+00    2.981634e+00
  7.116413e+00    3.007587e+00
  7.132289e+00    2.980844e+00
  7.148165e+00    2.983052e+00
  7.164040e+00    2.979193e+00
  7.179916e+00    3.047196e+00
  7.195791e+00    2.965336e+00
  7.211667e+00    2.975604e+00
  7.227542e+00    3.025588e+00
  7.243418e+00    3.006093e+00
  7.259294e+00    3.008349e+00
  7.275169e+00    3.019274e+00
  7.291045e+00    2.952902e+00
  7.306920e+00    3.022123e+00
  7.322796e+00    3.055582e+00
  7.338671e+00    3.028245e+00
  7.354547e+00    2.959248e+00
  7.370423e+00    2.946619e+00
  7.386298e+00    2.970115e+00
  7.402174e+00    2.985858e+00
  7.418049e+00    2.962437e+00
  7.433925e+00    2.935452e+00
  7.449800e+00    3.033819e+00
  7.465676e+00    3.042306e+00
  7.481552e+00    2.950962e+00
  7.497427e+00    3.002862e+00
  7.513303e+00    2.962804e+00
  7.529178e+00    2.956723e+00
  7.545054e+00    2.953374e+00
  7.560929e+00    2.991586e+00
  7.576805e+00    2.953370e+00
  7.592681e+00    2.961184e+00
  7.608556e+00    2.995645e+00
  7.624432e+00    2.973510e+00
  7.640307e+00    2.939286e+00
  7.656183e+00    2.926224e+00
  7.672058e+00    2.940728e+00
  7.687934e+00    2.971110e+00
  7.703810e+00    2.992485e+00
  7.719685e+00    2.941437e+00
  7.735561e+00    2.969586e+00
  7.751436e+00    2.986071e+00
  7.767312e+00    3.021458e+00
  7.783187e+00    2.961372e+00
  7.799063e+00    2.942615e+00
  7.814939e+00    2.991489e+00
  7.830814e+00    2.951110e+00
  7.846690e+00    2.994864e+00
  7.862565e+00    2.989581e+00
  7.878441e+00    2.981056e+00
  7.894317e+00    2.908714e+00
  7.910192e+00    2.934717e+00
  7.926068e+00    2.927895e+00
  7.941943e+00    2.847678e+00
  7.957819e+00    2.910423e+00
  7.973694e+00    2.939616e+00
  7.989570e+00    2.929679e+00
  8.005446e+00    2.982194e+00
  8.021321e+00    2.950135e+00
  8.037197e+00    2.902910e+00
  8.053072e+00    2.926636e+00
  8.068948e+00    2.878366e+00
  8.084823e+00    2.900295e+00
  8.100699e+00    2.896896e+00
  8.116575e+00    2.910073e+00
  8.132450e+00    2.953814e+00
  8.148326e+00    2.972715e+00
  8.164201e+00    2.974324e+00
  8.180077e+00    2.952597e+00
  8.195952e+00    2.892790e+00
  8.211828e+00    2.916337e+00
  8.227704e+00    2.933448e+00
  8.243579e+00    2.957340e+00
  8.259455e+00    2.908331e+00
  8.275330e+00    2.928632e+00
  8.291206e+00    2.933958e+00
  8.307081e+00    2.935728e+00
  8.322957e+00    2.904958e+00
  8.338833e+00    2.922503e+00
  8.354708e+00    2.840126e+00
  8.370584e+00    2.844914e+00
  8.386459e+00    2.863661e+00
  8.402335e+00    2.893527e+00
  8.418210e+00    2.939738e+00
  8.434086e+00    2.884479e+00
  8.449962e+00    2.878851e+00
  8.465837e+00    2.908195e+00
  8.481713e+00    2.885773e+00
  8.497588e+00    2.822671e+00
  8.513464e+00    2.852188e+00
  8.529339e+00    2.821273e+00
  8.545215e+00    2.871813e+00
  8.561091e+00    2.850359e+00
  8.576966e+00    2.792158e+00
  8.592842e+00    2.840270e+00
  8.608717e+00    2.832177e+00
  8.624593e+00    2.835842e+00
  8.640468e+00    2.846104e+00
  8.656344e+00    2.826692e+00
  8.672220e+00    2.820776e+00
  8.688095e+00    2.838435e+00
  8.703971e+00    2.860263e+00
  8.719846e+00    2.862785e+00
  8.735722e+00    2.845432e+00
  8.751598e+00    2.848936e+00
  8.767473e+00    2.861358e+00
  8.783349e+00    2.898170e+00
  8.799224e+00    2.864645e+00
  8.815100e+00    2.820649e+00
  8.830975e+00    2.791680e+00
  8.846851e+00    2.812040e+00
  8.862727e+00    2.848314e+00
  8.878602e+00    2.862675e+00
  8.894478e+00    2.786352e+00
  8.910353e+00    2.799514e+00
  8.926229e+00    2.800886e+00
  8.942104e+00    2.824094e+00
  8.957980e+00    2.783854e+00
  8.973856e+00    2.814625e+00
  8.989731e+00    2.781944e+00
  9.005607e+00    2.803205e+00
  9.021482e+00    2.817230e+00
  9.037358e+00    2.813308e+00
  9.053233e+00    2.760880e+00
  9.069109e+00    2.775008e+00
  9.084985e+00    2.796410e+00
  9.100860e+00    2.830427e+00
  9.116736e+00    2.796189e+00
  9.132611e+00    2.830779e+00
  9.148487e+00    2.833501e+00
  9.164362e+00    2.794902e+00
  9.180238e+00    2.775664e+00
  9.196114e+00    2.756916e+00
  9.211989e+00    2.777260e+00
  9.227865e+00    2.786792e+00
  9.243740e+00    2.753159e+00
  9.259616e+00    2.813516e+00
  9.275491e+00    2.816497e+00
  9.291367e+00    2.818227e+00
  9.307243e+00    2.792924e+00
  9.323118e+00    2.775050e+00
  9.338994e+00    2.750803e+00
  9.354869e+00    2.738984e+00
  9.370745e+00    2.761191e+00
  9.386620e+00    2.764436e+00
  9.402496e+00    2.764534e+00
  9.418372e+00    2.701576e+00
  9.434247e+00    2.768401e+00
  9.450123e+00    2.767655e+00
  9.465998e+00    2.732100e+00
  9.481874e+00    2.786399e+00
  9.497749e+00    2.807281e+00
  9.513625e+00    2.862655e+00
  9.529501e+00    2.731197e+00
  9.545376e+00    2.744215e+00
  9.561252e+00    2.761106e+00
  9.577127e+00    2.789251e+00
  9.593003e+00    2.761320e+00
  9.608878e+00    2.739221e+00
  9.624754e+00    2.705857e+00
  9.640630e+00    2.725014e+00
  9.656505e+00    2.724679e+00
  9.672381e+00    2.740983e+00
  9.688256e+00    2.779117e+00
  9.704132e+00    2.872801e+00
  9.720008e+00    2.789207e+00
  9.735883e+00    2.764208e+00
  9.751759e+00    2.749609e+00
  9.767634e+00    2.713527e+00
  9.783510e+00    2.649783e+00
  9.799385e+00    2.682530e+00
  9.815261e+00    2.732672e+00
  9.831137e+00    2.707031e+00
  9.847012e+00    2.732729e+00
  9.862888e+00    2.709467e+00
  9.878763e+00    2.692771e+00
  9.894639e+00    2.688050e+00
  9.910514e+00    2.680958e+00
  9.926390e+00    2.672275e+00
  9.942266e+00    2.645544e+00
  9.958141e+00    2.653459e+00
  9.974017e+00    2.677988e+00
  9.989892e+00    2.693788e+00
  1.000577e+01    2.668754e+00
  1.002164e+01    2.658861e+00
  1.003752e+01    2.728397e+00
  1.005339e+01    2.668824e+00
  1.006927e+01    2.688873e+00
  1.008515e+01    2.689661e+00
  1.010102e+01    2.647227e+00
  1.011690e+01    2.641604e+00
  1.013277e+01    2.695324e+00
  1.014865e+01    2.622097e+00
  1.016452e+01    2.702584e+00
  1.018040e+01    2.694271e+00
  1.019627e+01    2.631276e+00
  1.021215e+01    2.682528e+00
  1.022803e+01    2.666910e+00
  1.024390e+01    2.683078e+00
  1.025978e+01    2.650687e+00
  1.027565e+01    2.590053e+00
  1.029153e+01    2.577055e+00
  1.030740e+01    2.624002e+00
  1.032328e+01    2.605141e+00
  1.033915e+01    2.592386e+00
  1.035503e+01    2.609971e+00
  1.037091e+01    2.591315e+00
  1.038678e+01    2.593781e+00
  1.040266e+01    2.644829e+00
  1.041853e+01    2.625340e+00
  1.043441e+01    2.615239e+00
  1.045028e+01    2.628527e+00
  1.046616e+01    2.612040e+00
  1.048204e+01    2.610148e+00
  1.049791e+01    2.579142e+00
  1.051379e+01    2.603001e+00
  1.052966e+01    2.580794e+00
  1.054554e+01    2.608958e+00
  1.056141e+01    2.599946e+00
  1.057729e+01    2.573691e+00
  1.059316e+01    2.577384e+00
  1.060904e+01    2.550114e+00
  1.062492e+01    2.523690e+00
  1.064079e+01    2.583761e+00
  1.065667e+01    2.563096e+00
  1.067254e+01    2.548343e+00
  1.068842e+01    2.524780e+00
  1.070429e+01    2.532337e+00
  1.072017e+01    2.556951e+00
  1.073604e+01    2.585241e+00
  1.075192e+01    2.542109e+00
  1.076780e+01    2.535884e+00
  1.078367e+01    2.555227e+00
  1.079955e+01    2.549789e+00
  1.081542e+01    2.522443e+00
  1.083130e+01    2.516631e+00
  1.084717e+01    2.533427e+00
  1.086305e+01    2.555931e+00
  1.087892e+01    2.490726e+00
  1.089480e+01    2.494021e+00
  1.091068e+01    2.517403e+00
  1.092655e+01    2.549578e+00
  1.094243e+01    2.510993e+00
  1.095830e+01    2.481327e+00
  1.097418e+01    2.460296e+00
  1.099005e+01    2.449456e+00
  1.100593e+01    2.481668e+00
  1.102180e+01    2.500172e+00
  1.103768e+01    2.457949e+00
  1.105356e+01    2.451713e+00
  1.106943e+01    2.495762e+00
  1.108531e+01    2.450393e+00
  1.110118e+01    2.441146e+00
  1.111706e+01    2.484562e+00
  1.113293e+01    2.476084e+00
  1.114881e+01    2.484835e+00
  1.116468e+01    2.428198e+00
  1.118056e+01    2.423321e+00
  1.119644e+01    2.520107e+00
  1.121231e+01    2.490900e+00
  1.122819e+01    2.410540e+00
  1.124406e+01    2.425709e+00
  1.125994e+01    2.391403e+00
  1.127581e+01    2.405768e+00
  1.129169e+01    2.392934e+00
  1.130756e+01    2.378837e+00
  1.132344e+01    2.447926e+00
  1.133932e+01    2.423462e+00
  1.135519e+01    2.429559e+00
  1.137107e+01    2.424553e+00
  1.138694e+01    2.419038e+00
  1.140282e+01    2.400192e+00
  1.141869e+01    2.445317e+00
  1.143457e+01    2.468907e+00
  1.145045e+01    2.417985e+00
  1.146632e+01    2.430495e+00
  1.148220e+01    2.401452e+00
  1.149807e+01    2.358727e+00
  1.151395e+01    2.347519e+00
  1.152982e+01    2.404119e+00
  1.154570e+01    2.409629e+00
  1.156157e+01    2.414178e+00
  1.157745e+01    2.394122e+00
  1.159333e+01    2.340577e+00
  1.160920e+01    2.351566e+00
  1.162508e+01    2.370135e+00
  1.164095e+01    2.346025e+00
  1.165683e+01    2.333997e+00
  1.167270e+01    2.382253e+00
  1.168858e+01    2.375696e+00
  1.170445e+01    2.353774e+00
  1.172033e+01    2.335087e+00
  1.173621e+01    2.398168e+00
  1.175208e+01    2.453332e+00
  1.176796e+01    2.376346e+00
  1.178383e+01    2.389665e+00
  1.179971e+01    2.368335e+00
  1.181558e+01    2.420417e+00
  1.183146e+01    2.380402e+00
  1.184733e+01    2.328688e+00
  1.186321e+01    2.369578e+00
  1.187909e+01    2.345477e+00
  1.189496e+01    2.330996e+00
  1.191084e+01    2.372172e+00
  1.192671e+01    2.366842e+00
  1.194259e+01    2.327834e+00
  1.195846e+01    2.332192e+00
  1.197434e+01    2.327675e+00
  1.199021e+01    2.305907e+00
  1.200609e+01    2.269213e+00
  1.202197e+01    2.292109e+00
  1.203784e+01    2.298761e+00
  1.205372e+01    2.302142e+00
  1.206959e+01    2.333075e+00
  1.208547e+01    2.328141e+00
  1.210134e+01    2.350474e+00
  1.211722e+01    2.341356e+00
  1.213309e+01    2.317804e+00
  1.214897e+01    2.282102e+00
  1.216485e+01    2.299465e+00
  1.218072e+01    2.335140e+00
  1.219660e+01    2.350504e+00
  1.221247e+01    2.319664e+00
  1.222835e+01    2.320065e+00
  1.224422e+01    2.337223e+00
  1.226010e+01    2.282583e+00
  1.227597e+01    2.269126e+00
  1.229185e+01    2.315766e+00
  1.230773e+01    2.324124e+00
  1.232360e+01    2.338345e+00
  1.233948e+01    2.300972e+00
  1.235535e+01    2.318933e+00
  1.237123e+01    2.337265e+00
  1.238710e+01    2.343091e+00
  1.240298e+01    2.360582e+00
  1.241886e+01    2.379529e+00
  1.243473e+01    2.311825e+00
  1.245061e+01    2.326904e+00
  1.246648e+01    2.357427e+00
  1.248236e+01    2.338416e+00
  1.249823e+01    2.342584e+00
  1.251411e+01    2.346462e+00
  1.252998e+01    2.381527e+00
  1.254586e+01    2.359383e+00
  1.256174e+01    2.400341e+00
  1.257761e+01    2.434011e+00
  1.259349e+01    2.392166e+00
  1.260936e+01    2.394550e+00
  1.262524e+01    2.429553e+00
  1.264111e+01    2.397957e+00
  1.265699e+01    2.450388e+00
  1.267286e+01    2.456205e+00
  1.268874e+01    2.457805e+00
  1.270462e+01    2.461194e+00
  1.272049e+01    2.482538e+00
  1.273637e+01    2.531492e+00
  1.275224e+01    2.499138e+00
  1.276812e+01    2.570571e+00
  1.278399e+01    2.583465e+00
  1.279987e+01    2.653350e+00
  1.281574e+01    2.698572e+00
  1.283162e+01    2.748812e+00
  1.284750e+01    2.856979e+00
  1.286337e+01    2.956924e+00
  1.287925e+01    3.042521e+00
  1.289512e+01    3.114760e+00
  1.291100e+01    3.279995e+00
  1.292687e+01    3.482710e+00
  1.294275e+01    3.695330e+00
  1.295862e+01    3.950494e+00
  1.297450e+01    4.332182e+00
  1.299038e+01    4.734124e+00
  1.300625e+01    5.218713e+00
  1.302213e+01    5.911490e+00
  1.303800e+01    6.773236e+00
  1.305388e+01    7.890994e+00
  1.306975e+01    9.173135e+00
  1.308563e+01    1.054246e+01
  1.310150e+01    1.207038e+01
  1.311738e+01    1.356289e+01
  1.313326e+01    1.502168e+01
  1.314913e+01    1.634837e+01
  1.316501e+01    1.764369e+01
  1.318088e+01    1.883232e+01
  1.319676e+01    1.924972e+01
  1.321263e+01    1.872953e+01
  1.322851e+01    1.737889e+01
  1.324438e+01    1.535358e+01
  1.326026e+01    1.307727e+01
  1.327614e+01    1.082868e+01
  1.329201e+01    9.153286e+00
  1.330789e+01    7.814868e+00
  1.332376e+01    6.731452e+00
  1.333964e+01    5.772957e+00
  1.335551e+01    5.172584e+00
  1.337139e+01    4.701866e+00
  1.338727e+01    4.271478e+00
  1.340314e+01    3.904639e+00
  1.341902e+01    3.668536e+00
  1.343489e+01    3.427588e+00
  1.345077e+01    3.217535e+00
  1.346664e+01    3.092030e+00
  1.348252e+01    2.969923e+00
  1.349839e+01    2.867960e+00
  1.351427e+01    2.770155e+00
  1.353015e+01    2.707813e+00
  1.354602e+01    2.630900e+00
  1.356190e+01    2.601084e+00
  1.357777e+01    2.558212e+00
  1.359365e+01    2.466406e+00
  1.360952e+01    2.412794e+00
  1.362540e+01    2.400024e+00
  1.364127e+01    2.360179e+00
  1.365715e+01    2.345660e+00
  1.367303e+01    2.347146e+00
  1.368890e+01    2.316130e+00
  1.370478e+01    2.254752e+00
  1.372065e+01    2.273258e+00
  1.373653e+01    2.270525e+00
  1.375240e+01    2.210130e+00
  1.376828e+01    2.165545e+00
  1.378415e+01    2.205919e+00
  1.380003e+01    2.164672e+00
  1.381591e+01    2.150576e+00
  1.383178e+01    2.161275e+00
  1.384766e+01    2.158007e+00
  1.386353e+01    2.172349e+00
  1.387941e+01    2.101174e+00
  1.389528e+01    2.061230e+00
  1.391116e+01    2.060161e+00
  1.392703e+01    2.077832e+00
  1.394291e+01    2.110973e+00
  1.395879e+01    2.089940e+00
  1.397466e+01    2.049077e+00
  1.399054e+01    2.029830e+00
  1.400641e+01    2.068076e+00
  1.402229e+01    2.111027e+00
  1.403816e+01    2.111802e+00
  1.405404e+01    2.049397e+00
  1.406991e+01    2.019107e+00
  1.408579e+01    2.011228e+00
  1.410167e+01    2.014463e+00
  1.411754e+01    2.047668e+00
  1.413342e+01    1.983377e+00
  1.414929e+01    1.988339e+00
  1.416517e+01    1.997629e+00
  1.418104e+01    2.010579e+00
  1.419692e+01    1.985531e+00
  1.421279e+01    1.984828e+00
  1.422867e+01    1.965693e+00
  1.424455e+01    2.007461e+00
  1.426042e+01    2.002757e+00
  1.427630e+01    1.987354e+00
  1.429217e+01    1.989233e+00
  1.430805e+01    1.946688e+00
  1.432392e+01    1.994198e+00
  1.433980e+01    1.979502e+00
  1.435568e+01    1.958789e+00
  1.437155e+01    1.948825e+00
  1.438743e+01    1.918501e+00
  1.440330e+01    1.962295e+00
  1.441918e+01    1.947326e+00
  1.443505e+01    1.911244e+00
  1.445093e+01    1.921475e+00
  1.446680e+01    1.957225e+00
  1.448268e+01    1.975990e+00
  1.449856e+01    1.977970e+00
  1.451443e+01    1.904220e+00
  1.453031e+01    1.881791e+00
  1.454618e+01    1.934301e+00
  1.456206e+01    1.917334e+00
  1.457793e+01    1.915498e+00
  1.459381e+01    1.937919e+00
  1.460968e+01    1.913949e+00
  1.462556e+01    1.919783e+00
  1.464144e+01    1.915485e+00
  1.465731e+01    1.933336e+00
  1.467319e+01    1.927041e+00
  1.468906e+01    1.883860e+00
  1.470494e+01    1.880321e+00
  1.472081e+01    1.950402e+00
  1.473669e+01    1.929818e+00
  1.475256e+01    1.914213e+00
  1.476844e+01    1.924240e+00
  1.478432e+01    1.949559e+00
  1.480019e+01    1.910946e+00
  1.481607e+01    1.920443e+00
  1.483194e+01    1.922706e+00
  1.484782e+01    1.904229e+00
  1.486369e+01    1.923049e+00
  1.487957e+01    1.916857e+00
  1.489544e+01    1.937099e+00
  1.491132e+01    1.969206e+00
  1.492720e+01    2.017017e+00
  1.494307e+01    2.019549e+00
  1.495895e+01    2.020846e+00
  1.497482e+01    2.075240e+00
  1.499070e+01    2.098815e+00
  1.500657e+01    2.124710e+00
  1.502245e+01    2.163162e+00
  1.503832e+01    2.289781e+00
  1.505420e+01    2.360714e+00
  1.507008e+01    2.455696e+00
  1.508595e+01    2.585559e+00
  1.510183e+01    2.770291e+00
  1.511770e+01    2.948561e+00
  1.513358e+01    3.247719e+00
  1.514945e+01    3.607290e+00
  1.516533e+01    4.029774e+00
  1.518120e+01    4.496539e+00
  1.519708e+01    4.872303e+00
  1.521296e+01    5.223333e+00
  1.522883e+01    5.555659e+00
  1.524471e+01    5.940856e+00
  1.526058e+01    6.196120e+00
  1.527646e+01    6.440607e+00
  1.529233e+01    6.443226e+00
  1.530821e+01    6.341203e+00
  1.532409e+01    5.973692e+00
  1.533996e+01    5.306119e+00
  1.535584e+01    4.713651e+00
  1.537171e+01    4.154924e+00
  1.538759e+01    3.689566e+00
  1.540346e+01    3.319632e+00
  1.541934e+01    3.019357e+00
  1.543521e+01    2.742930e+00
  1.545109e+01    2.582204e+00
  1.546697e+01    2.455375e+00
  1.548284e+01    2.273484e+00
  1.549872e+01    2.198697e+00
  1.551459e+01    2.112487e+00
  1.553047e+01    2.081597e+00
  1.554634e+01    2.053709e+00
  1.556222e+01    1.997451e+00
  1.557809e+01    1.937795e+00
  1.559397e+01    1.880203e+00
  1.560985e+01    1.882929e+00
  1.562572e+01    1.891922e+00
  1.564160e+01    1.847158e+00
  1.565747e+01    1.802960e+00
  1.567335e+01    1.795839e+00
  1.568922e+01    1.804723e+00
  1.570510e+01    1.755785e+00
  1.572097e+01    1.752551e+00
  1.573685e+01    1.743038e+00
  1.575273e+01    1.740115e+00
  1.576860e+01    1.699050e+00
  1.578448e+01    1.725929e+00
  1.580035e+01    1.728921e+00
  1.581623e+01    1.702713e+00
  1.583210e+01    1.683401e+00
  1.584798e+01    1.673846e+00
  1.586385e+01    1.645838e+00
  1.587973e+01    1.654025e+00
  1.589561e+01    1.684552e+00
  1.591148e+01    1.650506e+00
  1.592736e+01    1.631181e+00
  1.594323e+01    1.639266e+00
  1.595911e+01    1.643687e+00
  1.597498e+01    1.639957e+00
  1.599086e+01    1.602697e+00
  1.600673e+01    1.635175e+00
  1.602261e+01    1.635566e+00
  1.603849e+01    1.597666e+00
  1.605436e+01    1.621007e+00
  1.607024e+01    1.621286e+00
  1.608611e+01    1.602693e+00
  1.610199e+01    1.598341e+00
  1.611786e+01    1.618997e+00
  1.613374e+01    1.636718e+00
  1.614961e+01    1.616160e+00
  1.616549e+01    1.600846e+00
  1.618137e+01    1.604978e+00
  1.619724e+01    1.608144e+00
  1.621312e+01    1.589851e+00
  1.622899e+01    1.593214e+00
  1.624487e+01    1.550859e+00
  1.626074e+01    1.520516e+00
  1.627662e+01    1.532901e+00
  1.629250e+01    1.559967e+00
  1.630837e+01    1.587662e+00
  1.632425e+01    1.577850e+00
  1.634012e+01    1.552407e+00
  1.635600e+01    1.532896e+00
  1.637187e+01    1.548166e+00
  1.638775e+01    1.559786e+00
  1.640362e+01    1.522392e+00
  1.641950e+01    1.524501e+00
  1.643538e+01    1.545673e+00
  1.645125e+01    1.514378e+00
  1.646713e+01    1.511744e+00
  1.648300e+01    1.500683e+00
  1.649888e+01    1.509223e+00
  1.651475e+01    1.498914e+00
  1.653063e+01    1.502255e+00
  1.654650e+01    1.487401e+00
  1.656238e+01    1.478603e+00
  1.657826e+01    1.480700e+00
  1.659413e+01    1.501077e+00
  1.661001e+01    1.518059e+00
  1.662588e+01    1.528410e+00
  1.664176e+01    1.470873e+00
  1.665763e+01    1.462649e+00
  1.667351e+01    1.489835e+00
  1.668938e+01    1.497622e+00
  1.670526e+01    1.484030e+00
  1.672114e+01    1.480070e+00
  1.673701e+01    1.480028e+00
  1.675289e+01    1.470122e+00
  1.676876e+01    1.457701e+00
  1.678464e+01    1.476036e+00
  1.680051e+01    1.475774e+00
  1.681639e+01    1.462370e+00
  1.683226e+01    1.468058e+00
  1.684814e+01    1.496711e+00
  1.686402e+01    1.461342e+00
  1.687989e+01    1.430970e+00
  1.689577e+01    1.452406e+00
  1.691164e+01    1.454705e+00
  1.692752e+01    1.472512e+00
  1.694339e+01    1.441679e+00
  1.695927e+01    1.442685e+00
  1.697514e+01    1.448653e+00
  1.699102e+01    1.427073e+00
  1.700690e+01    1.422861e+00
  1.702277e+01    1.454823e+00
  1.703865e+01    1.456289e+00
  1.705452e+01    1.448865e+00
  1.707040e+01    1.430114e+00
  1.708627e+01    1.424964e+00
  1.710215e+01    1.433467e+00
  1.711802e+01    1.419695e+00
  1.713390e+01    1.392028e+00
  1.714978e+01    1.445383e+00
  1.716565e+01    1.425936e+00
  1.718153e+01    1.414678e+00
  1.719740e+01    1.411700e+00
  1.721328e+01    1.419501e+00
  1.722915e+01    1.397930e+00
  1.724503e+01    1.381241e+00
  1.726091e+01    1.393524e+00
  1.727678e+01    1.398477e+00
  1.729266e+01    1.372813e+00
  1.730853e+01    1.392580e+00
  1.732441e+01    1.396956e+00
  1.734028e+01    1.376101e+00
  1.735616e+01    1.377011e+00
  1.737203e+01    1.358385e+00
  1.738791e+01    1.373745e+00
  1.740379e+01    1.407619e+00
  1.741966e+01    1.387522e+00
  1.743554e+01    1.375264e+00
  1.745141e+01    1.371159e+00
  1.746729e+01    1.372082e+00
  1.748316e+01    1.365480e+00
  1.749904e+01    1.365012e+00
  1.751491e+01    1.350660e+00
  1.753079e+01    1.348125e+00
  1.754667e+01    1.370707e+00
  1.756254e+01    1.379446e+00
  1.757842e+01    1.410866e+00
  1.759429e+01    1.385716e+00
  1.761017e+01    1.349399e+00
  1.762604e+01    1.341703e+00
  1.764192e+01    1.358592e+00
  1.765779e+01    1.346812e+00
  1.767367e+01    1.331852e+00
  1.768955e+01    1.346807e+00
  1.770542e+01    1.328843e+00
  1.772130e+01    1.319149e+00
  1.773717e+01    1.360767e+00
  1.775305e+01    1.334071e+00
  1.776892e+01    1.320515e+00
  1.778480e+01    1.290902e+00
  1.780067e+01    1.318213e+00
  1.781655e+01    1.320071e+00
  1.783243e+01    1.309971e+00
  1.784830e+01    1.340013e+00
  1.786418e+01    1.332072e+00
  1.788005e+01    1.313127e+00
  1.789593e+01    1.331757e+00
  1.791180e+01    1.296197e+00
  1.792768e+01    1.297149e+00
  1.794355e+01    1.309717e+00
  1.795943e+01    1.323560e+00
  1.797531e+01    1.310408e+00
  1.799118e+01    1.289806e+00
  1.800706e+01    1.302363e+00
  1.802293e+01    1.327191e+00
  1.803881e+01    1.321706e+00
  1.805468e+01    1.293705e+00
  1.807056e+01    1.286538e+00
  1.808643e+01    1.304546e+00
  1.810231e+01    1.300353e+00
  1.811819e+01    1.323691e+00
  1.813406e+01    1.316613e+00
  1.814994e+01    1.306764e+00
  1.816581e+01    1.292526e+00
  1.818169e+01    1.263905e+00
  1.819756e+01    1.267511e+00
  1.821344e+01    1.263494e+00
  1.822932e+01    1.293594e+00
  1.824519e+01    1.307221e+00
  1.826107e+01    1.307892e+00
  1.827694e+01    1.266673e+00
  1.829282e+01    1.257170e+00
  1.830869e+01    1.263822e+00
  1.832457e+01    1.276459e+00
  1.834044e+01    1.280489e+00
  1.835632e+01    1.258937e+00
  1.837220e+01    1.259856e+00
  1.838807e+01    1.283976e+00
  1.840395e+01    1.291835e+00
  1.841982e+01    1.277467e+00
  1.843570e+01    1.232474e+00
  1.845157e+01    1.269454e+00
  1.846745e+01    1.297292e+00
  1.848332e+01    1.268504e+00
  1.849920e+01    1.257973e+00
  1.851508e+01    1.248231e+00
  1.853095e+01    1.223126e+00
  1.854683e+01    1.252644e+00
  1.856270e+01    1.244853e+00
  1.857858e+01    1.221721e+00
  1.859445e+01    1.228959e+00
  1.861033e+01    1.245432e+00
  1.862620e+01    1.226760e+00
  1.864208e+01    1.222244e+00
  1.865796e+01    1.248821e+00
  1.867383e+01    1.256825e+00
  1.868971e+01    1.241480e+00
  1.870558e+01    1.247376e+00
  1.872146e+01    1.247565e+00
  1.873733e+01    1.210499e+00
  1.875321e+01    1.229105e+00
  1.876908e+01    1.230047e+00
  1.878496e+01    1.211702e+00
  1.880084e+01    1.191208e+00
  1.881671e+01    1.205754e+00
  1.883259e+01    1.238130e+00
  1.884846e+01    1.214180e+00
  1.886434e+01    1.226934e+00
  1.888021e+01    1.220172e+00
  1.889609e+01    1.235251e+00
  1.891196e+01    1.217201e+00
  1.892784e+01    1.248171e+00
  1.894372e+01    1.236390e+00
  1.895959e+01    1.220037e+00
  1.897547e+01    1.220249e+00
  1.899134e+01    1.208961e+00
  1.900722e+01    1.194407e+00
  1.902309e+01    1.186184e+00
  1.903897e+01    1.218217e+00
  1.905484e+01    1.225051e+00
  1.907072e+01    1.197927e+00
  1.908660e+01    1.194174e+00
  1.910247e+01    1.228123e+00
  1.911835e+01    1.218702e+00
  1.913422e+01    1.196173e+00
  1.915010e+01    1.196978e+00
  1.916597e+01    1.230056e+00
  1.918185e+01    1.198354e+00
  1.919773e+01    1.195993e+00
  1.921360e+01    1.173339e+00
  1.922948e+01    1.182489e+00
  1.924535e+01    1.172250e+00
  1.926123e+01    1.176668e+00
  1.927710e+01    1.183842e+00
  1.929298e+01    1.194528e+00
  1.930885e+01    1.193336e+00
  1.932473e+01    1.191391e+00
  1.934061e+01    1.182390e+00
  1.935648e+01    1.187648e+00
  1.937236e+01    1.182606e+00
  1.938823e+01    1.192710e+00
  1.940411e+01    1.183416e+00
  1.941998e+01    1.150548e+00
  1.943586e+01    1.152543e+00
  1.945173e+01    1.165008e+00
  1.946761e+01    1.194500e+00
  1.948349e+01    1.167546e+00
  1.949936e+01    1.151508e+00
  1.951524e+01    1.171567e+00
  1.953111e+01    1.181364e+00
  1.954699e+01    1.154205e+00
  1.956286e+01    1.174374e+00
  1.957874e+01    1.158490e+00
  1.959461e+01    1.150249e+00
  1.961049e+01    1.164633e+00
  1.962637e+01    1.167819e+00
  1.964224e+01    1.163202e+00
  1.965812e+01    1.168918e+00
  1.967399e+01    1.143067e+00
  1.968987e+01    1.153788e+00
  1.970574e+01    1.143345e+00
  1.972162e+01    1.139118e+00
  1.973749e+01    1.145632e+00
  1.975337e+01    1.146545e+00
  1.976925e+01    1.127634e+00
  1.978512e+01    1.129141e+00
  1.980100e+01    1.137931e+00
  1.981687e+01    1.114179e+00
  1.983275e+01    1.143420e+00
  1.984862e+01    1.138050e+00
  1.986450e+01    1.129753e+00
  1.988037e+01    1.128487e+00
  1.989625e+01    1.125089e+00
  1.991213e+01    1.102421e+00
  1.992800e+01    1.111998e+00
  1.994388e+01    1.151533e+00
  1.995975e+01    1.136595e+00
  1.997563e+01    1.097745e+00
  1.999150e+01    1.107436e+00
  2.000738e+01    1.118999e+00
  2.002325e+01    1.116737e+00
  2.003913e+01    1.143011e+00
  2.005501e+01    1.110055e+00
  2.007088e+01    1.138977e+00
  2.008676e+01    1.156822e+00
  2.010263e+01    1.149840e+00
  2.011851e+01    1.121092e+00
  2.013438e+01    1.089073e+00
  2.015026e+01    1.100419e+00
  2.016614e+01    1.102651e+00
  2.018201e+01    1.100520e+00
  2.019789e+01    1.121639e+00
  2.021376e+01    1.100721e+00
  2.022964e+01    1.101433e+00
  2.024551e+01    1.121543e+00
  2.026139e+01    1.123144e+00
  2.027726e+01    1.132476e+00
  2.029314e+01    1.091381e+00
  2.030902e+01    1.107663e+00
  2.032489e+01    1.103038e+00
  2.034077e+01    1.094533e+00
  2.035664e+01    1.091264e+00
  2.037252e+01    1.099048e+00
  2.038839e+01    1.099682e+00
  2.040427e+01    1.095937e+00
  2.042014e+01    1.112296e+00
  2.043602e+01    1.113506e+00
  2.045190e+01    1.111668e+00
  2.046777e+01    1.082090e+00
  2.048365e+01    1.081950e+00
  2.049952e+01    1.076452e+00
  2.051540e+01    1.059404e+00
  2.053127e+01    1.089650e+00
  2.054715e+01    1.100649e+00
  2.056302e+01    1.106243e+00
  2.057890e+01    1.089143e+00
  2.059478e+01    1.076733e+00
  2.061065e+01    1.091522e+00
  2.062653e+01    1.098183e+00
  2.064240e+01    1.103370e+00
  2.065828e+01    1.095311e+00
  2.067415e+01    1.085880e+00
  2.069003e+01    1.080568e+00
  2.070590e+01    1.064050e+00
  2.072178e+01    1.069890e+00
  2.073766e+01    1.085528e+00
  2.075353e+01    1.082404e+00
  2.076941e+01    1.084229e+00
  2.078528e+01    1.108562e+00
  2.080116e+01    1.111516e+00
  2.081703e+01    1.112911e+00
  2.083291e+01    1.102316e+00
  2.084878e+01    1.110989e+00
  2.086466e+01    1.110899e+00
  2.088054e+01    1.096308e+00
  2.089641e+01    1.088778e+00
  2.091229e+01    1.095601e+00
  2.092816e+01    1.122599e+00
  2.094404e+01    1.120541e+00
  2.095991e+01    1.090829e+00
  2.097579e+01    1.090226e+00
  2.099166e+01    1.086197e+00
  2.100754e+01    1.068259e+00
  2.102342e+01    1.087406e+00
  2.103929e+01    1.071095e+00
  2.105517e+01    1.071000e+00
  2.107104e+01    1.085705e+00
  2.108692e+01    1.093072e+00
  2.110279e+01    1.098402e+00
  2.111867e+01    1.082525e+00
  2.113455e+01    1.085137e+00
  2.115042e+01    1.093729e+00
  2.116630e+01    1.098492e+00
  2.118217e+01    1.103359e+00
  2.119805e+01    1.134390e+00
  2.121392e+01    1.126815e+00
  2.122980e+01    1.107896e+00
  2.124567e+01    1.107069e+00
  2.126155e+01    1.088236e+00
  2.127743e+01    1.118870e+00
  2.129330e+01    1.108377e+00
  2.130918e+01    1.118871e+00
  2.132505e+01    1.133472e+00
  2.134093e+01    1.173802e+00
  2.135680e+01    1.173987e+00
  2.137268e+01    1.170076e+00
  2.138855e+01    1.167871e+00
  2.140443e+01    1.203768e+00
  2.142031e+01    1.211735e+00
  2.143618e+01    1.179384e+00
  2.145206e+01    1.235296e+00
  2.146793e+01    1.210331e+00
  2.148381e+01    1.231580e+00
  2.149968e+01    1.276549e+00
  2.151556e+01    1.286652e+00
  2.153143e+01    1.303017e+00
  2.154731e+01    1.367178e+00
  2.156319e+01    1.403328e+00
  2.157906e+01    1.446715e+00
  2.159494e+01    1.516109e+00
  2.161081e+01    1.547154e+00
  2.162669e+01    1.620327e+00
  2.164256e+01    1.696689e+00
  2.165844e+01    1.820493e+00
  2.167431e+01    1.941317e+00
  2.169019e+01    2.090798e+00
  2.170607e+01    2.298237e+00
  2.172194e+01    2.565170e+00
  2.173782e+01    2.906032e+00
  2.175369e+01    3.279380e+00
  2.176957e+01    3.722172e+00
  2.178544e+01    4.325984e+00
  2.180132e+01    4.906420e+00
  2.181719e+01    5.712526e+00
  2.183307e+01    6.454980e+00
  2.184895e+01    7.309824e+00
  2.186482e+01    8.122375e+00
  2.188070e+01    8.930435e+00
  2.189657e+01    9.811113e+00
  2.191245e+01    1.043768e+01
  2.192832e+01    1.071475e+01
  2.194420e+01    1.048643e+01
  2.196007e+01    9.834965e+00
  2.197595e+01    8.863227e+00
  2.199183e+01    7.722630e+00
  2.200770e+01    6.513192e+00
  2.202358e+01    5.528112e+00
  2.203945e+01    4.700928e+00
  2.205533e+01    4.028702e+00
  2.207120e+01    3.480286e+00
  2.208708e+01    3.040593e+00
  2.210296e+01    2.717232e+00
  2.211883e+01    2.436858e+00
  2.213471e+01    2.187413e+00
  2.215058e+01    2.012168e+00
  2.216646e+01    1.868282e+00
  2.218233e+01    1.722851e+00
  2.219821e+01    1.632110e+00
  2.221408e+01    1.560648e+00
  2.222996e+01    1.497335e+00
  2.224584e+01    1.444367e+00
  2.226171e+01    1.399610e+00
  2.227759e+01    1.360919e+00
  2.229346e+01    1.319389e+00
  2.230934e+01    1.282998e+00
  2.232521e+01    1.253578e+00
  2.234109e+01    1.212111e+00
  2.235696e+01    1.185379e+00
  2.237284e+01    1.157537e+00
  2.238872e+01    1.148797e+00
  2.240459e+01    1.128453e+00
  2.242047e+01    1.103600e+00
  2.243634e+01    1.107608e+00
  2.245222e+01    1.096819e+00
  2.246809e+01    1.071281e+00
  2.248397e+01    1.059014e+00
  2.249984e+01    1.067536e+00
  2.251572e+01    1.047579e+00
  2.253160e+01    1.031046e+00
  2.254747e+01    1.031615e+00
  2.256335e+01    1.022764e+00
  2.257922e+01    1.001892e+00
  2.259510e+01    1.011585e+00
  2.261097e+01    1.009277e+00
  2.262685e+01    1.005400e+00
  2.264272e+01    9.936291e-01
  2.265860e+01    9.891385e-01
  2.267448e+01    9.707413e-01
  2.269035e+01    9.652655e-01
  2.270623e+01    9.747562e-01
  2.272210e+01    9.566339e-01
  2.273798e+01    9.511991e-01
  2.275385e+01    9.538686e-01
  2.276973e+01    9.363868e-01
  2.278560e+01    9.516587e-01
  2.280148e+01    9.560391e-01
  2.281736e+01    9.618814e-01
  2.283323e+01    9.380287e-01
  2.284911e+01    9.238867e-01
  2.286498e+01    9.254414e-01
  2.288086e+01    9.260345e-01
  2.289673e+01    9.318114e-01
  2.291261e+01    9.082872e-01
  2.292848e+01    9.277223e-01
  2.294436e+01    9.306547e-01
  2.296024e+01    9.398255e-01
  2.297611e+01    9.239829e-01
  2.299199e+01    9.190563e-01
  2.300786e+01    9.285351e-01
  2.302374e+01    9.174999e-01
  2.303961e+01    9.037126e-01
  2.305549e+01    8.869512e-01
  2.307137e+01    8.999133e-01
  2.308724e+01    8.873815e-01
  2.310312e+01    9.064969e-01
  2.311899e+01    9.120636e-01
  2.313487e+01    8.949035e-01
  2.315074e+01    8.931897e-01
  2.316662e+01    8.967879e-01
  2.318249e+01    8.925098e-01
  2.319837e+01    8.612036e-01
  2.321425e+01    8.752363e-01
  2.323012e+01    8.696541e-01
  2.324600e+01    8.662233e-01
  2.326187e+01    8.785496e-01
  2.327775e+01    8.815814e-01
  2.329362e+01    8.716087e-01
  2.330950e+01    8.831518e-01
  2.332537e+01    8.836496e-01
  2.334125e+01    8.778479e-01
  2.335713e+01    8.470598e-01
  2.337300e+01    8.667321e-01
  2.338888e+01    8.648813e-01
  2.340475e+01    8.530792e-01
  2.342063e+01    8.486669e-01
  2.343650e+01    8.496010e-01
  2.345238e+01    8.501764e-01
  2.346825e+01    8.520713e-01
  2.348413e+01    8.537125e-01
  2.350001e+01    8.453197e-01
  2.351588e+01    8.659974e-01
  2.353176e+01    8.580527e-01
  2.354763e+01    8.646101e-01
  2.356351e+01    8.535384e-01
  2.357938e+01    8.589646e-01
  2.359526e+01    8.694369e-01
  2.361113e+01    8.414063e-01
  2.362701e+01    8.361838e-01
  2.364289e+01    8.217852e-01
  2.365876e+01    8.374975e-01
  2.367464e+01    8.340439e-01
  2.369051e+01    8.142599e-01
  2.370639e+01    8.416896e-01
  2.372226e+01    8.520777e-01
  2.373814e+01    8.289059e-01
  2.375401e+01    8.146405e-01
  2.376989e+01    8.199256e-01
  2.378577e+01    8.360035e-01
  2.380164e+01    8.279123e-01
  2.381752e+01    8.053097e-01
  2.383339e+01    8.218021e-01
  2.384927e+01    8.151467e-01
  2.386514e+01    8.332564e-01
  2.388102e+01    8.275754e-01
  2.389689e+01    8.159341e-01
  2.391277e+01    8.178865e-01
  2.392865e+01    8.059863e-01
  2.394452e+01    7.871656e-01
  2.396040e+01    8.084352e-01
  2.397627e+01    8.090326e-01
  2.399215e+01    7.776235e-01
  2.400802e+01    7.908231e-01
  2.402390e+01    7.704000e-01
  2.403978e+01    8.042453e-01
  2.405565e+01    7.984623e-01
  2.407153e+01    7.895756e-01
  2.408740e+01    7.818146e-01
  2.410328e+01    7.761506e-01
  2.411915e+01    7.888581e-01
  2.413503e+01    7.847493e-01
  2.415090e+01    7.838120e-01
  2.416678e+01    7.789527e-01
  2.418266e+01    7.793328e-01
  2.419853e+01    7.929620e-01
  2.421441e+01    7.831626e-01
  2.423028e+01    7.761529e-01
  2.424616e+01    8.022749e-01
  2.426203e+01    7.971789e-01
  2.427791e+01    7.936064e-01
  2.429378e+01    8.003268e-01
  2.430966e+01    8.224198e-01
  2.432554e+01    8.097591e-01
  2.434141e+01    8.073725e-01
  2.435729e+01    7.927271e-01
  2.437316e+01    8.096476e-01
  2.438904e+01    8.162249e-01
  2.440491e+01    7.874554e-01
  2.442079e+01    8.026763e-01
  2.443666e+01    8.087335e-01
  2.445254e+01    7.984174e-01
  2.446842e+01    7.903514e-01
  2.448429e+01    8.010811e-01
  2.450017e+01    7.889352e-01
  2.451604e+01    8.268626e-01
  2.453192e+01    8.184305e-01
  2.454779e+01    7.977741e-01
  2.456367e+01    8.027164e-01
  2.457954e+01    8.101873e-01
  2.459542e+01    7.825315e-01
  2.461130e+01    7.947527e-01
  2.462717e+01    7.982908e-01
  2.464305e+01    8.022771e-01
  2.465892e+01    8.036764e-01
  2.467480e+01    8.006170e-01
  2.469067e+01    7.958583e-01
  2.470655e+01    8.081963e-01
  2.472242e+01    8.072885e-01
  2.473830e+01    8.212616e-01
  2.475418e+01    7.885094e-01
  2.477005e+01    7.762294e-01
  2.478593e+01    7.954114e-01
  2.480180e+01    7.902198e-01
  2.481768e+01    7.855148e-01
  2.483355e+01    7.698119e-01
  2.484943e+01    7.987879e-01
  2.486530e+01    7.859339e-01
  2.488118e+01    7.949452e-01
  2.489706e+01    7.806771e-01
  2.491293e+01    7.807099e-01
  2.492881e+01    7.983005e-01
  2.494468e+01    8.013479e-01
  2.496056e+01    8.060341e-01
  2.497643e+01    7.863573e-01
  2.499231e+01    8.161468e-01
  2.500819e+01    8.150104e-01
  2.502406e+01    8.123402e-01
  2.503994e+01    8.194418e-01
  2.505581e+01    7.885942e-01
  2.507169e+01    8.082821e-01
  2.508756e+01    8.264558e-01
  2.510344e+01    8.230370e-01
  2.511931e+01    8.316850e-01
  2.513519e+01    8.319139e-01
  2.515107e+01    8.301269e-01
  2.516694e+01    8.299364e-01
  2.518282e+01    8.154866e-01
  2.519869e+01    8.267523e-01
  2.521457e+01    8.680624e-01
  2.523044e+01    8.645929e-01
  2.524632e+01    8.798419e-01
  2.526219e+01    8.843379e-01
  2.527807e+01    8.592181e-01
  2.529395e+01    8.534728e-01
  2.530982e+01    8.620254e-01
  2.532570e+01    8.865154e-01
  2.534157e+01    8.836098e-01
  2.535745e+01    8.906913e-01
  2.537332e+01    9.115166e-01
  2.538920e+01    9.012271e-01
  2.540507e+01    8.962099e-01
  2.542095e+01    9.116648e-01
  2.543683e+01    9.192555e-01
  2.545270e+01    9.365057e-01
  2.546858e+01    9.548450e-01
  2.548445e+01    9.600750e-01
  2.550033e+01    9.889647e-01
  2.551620e+01    1.008161e+00
  2.553208e+01    9.916812e-01
  2.554795e+01    1.007413e+00
  2.556383e+01    1.025897e+00
  2.557971e+01    1.048499e+00
  2.559558e+01    1.074332e+00
  2.561146e+01    1.121611e+00
  2.562733e+01    1.147679e+00
  2.564321e+01    1.196577e+00
  2.565908e+01    1.244024e+00
  2.567496e+01    1.289759e+00
  2.569083e+01    1.342470e+00
  2.570671e+01    1.402676e+00
  2.572259e+01    1.487311e+00
  2.573846e+01    1.590869e+00
  2.575434e+01    1.715320e+00
  2.577021e+01    1.889624e+00
  2.578609e+01    2.029646e+00
  2.580196e+01    2.249562e+00
  2.581784e+01    2.508908e+00
  2.583371e+01    2.821472e+00
  2.584959e+01    3.242285e+00
  2.586547e+01    3.731870e+00
  2.588134e+01    4.322439e+00
  2.589722e+01    4.968918e+00
  2.591309e+01    5.718807e+00
  2.592897e+01    6.445504e+00
  2.594484e+01    7.225048e+00
  2.596072e+01    7.917262e+00
  2.597660e+01    8.488499e+00
  2.599247e+01    8.774486e+00
  2.600835e+01    8.789647e+00
  2.602422e+01    8.425776e+00
  2.604010e+01    7.809214e+00
  2.605597e+01    6.955636e+00
  2.607185e+01    6.047144e+00
  2.608772e+01    5.219617e+00
  2.610360e+01    4.402621e+00
  2.611948e+01    3.744069e+00
  2.613535e+01    3.268888e+00
  2.615123e+01    2.838996e+00
  2.616710e+01    2.534493e+00
  2.618298e+01    2.262119e+00
  2.619885e+01    2.039186e+00
  2.621473e+01    1.879067e+00
  2.623060e+01    1.714855e+00
  2.624648e+01    1.595267e+00
  2.626236e+01    1.498812e+00
  2.627823e+01    1.395394e+00
  2.629411e+01    1.362562e+00
  2.630998e+01    1.282335e+00
  2.632586e+01    1.207682e+00
  2.634173e+01    1.176639e+00
  2.635761e+01    1.161370e+00
  2.637348e+01    1.125049e+00
  2.638936e+01    1.078989e+00
  2.640524e+01    1.077266e+00
  2.642111e+01    1.070410e+00
  2.643699e+01    1.035246e+00
  2.645286e+01    1.028878e+00
  2.646874e+01    9.890634e-01
  2.648461e+01    9.870505e-01
  2.650049e+01    9.874371e-01
  2.651636e+01    9.641711e-01
  2.653224e+01    9.615562e-01
  2.654812e+01    9.537354e-01
  2.656399e+01    9.456842e-01
  2.657987e+01    9.389120e-01
  2.659574e+01    9.095016e-01
  2.661162e+01    9.167932e-01
  2.662749e+01    9.199728e-01
  2.664337e+01    9.496220e-01
  2.665924e+01    9.178074e-01
  2.667512e+01    9.112083e-01
  2.669100e+01    9.379752e-01
  2.670687e+01    9.267444e-01
  2.672275e+01    9.136158e-01
  2.673862e+01    9.034927e-01
  2.675450e+01    9.143519e-01
  2.677037e+01    9.153678e-01
  2.678625e+01    9.253203e-01
  2.680212e+01    9.090571e-01
  2.681800e+01    9.148968e-01
  2.683388e+01    9.236183e-01
  2.684975e+01    9.178267e-01
  2.686563e+01    9.005011e-01
  2.688150e+01    9.091463e-01
  2.689738e+01    8.946082e-01
  2.691325e+01    9.203707e-01
  2.692913e+01    9.531533e-01
  2.694501e+01    9.595674e-01
  2.696088e+01    9.520440e-01
  2.697676e+01    9.890394e-01
  2.699263e+01    1.001518e+00
  2.700851e+01    1.021801e+00
  2.702438e+01    1.032939e+00
  2.704026e+01    1.062902e+00
  2.705613e+01    1.100796e+00
  2.707201e+01    1.149997e+00
  2.708789e+01    1.211592e+00
  2.710376e+01    1.289010e+00
  2.711964e+01    1.346070e+00
  2.713551e+01    1.444099e+00
  2.715139e+01    1.583592e+00
  2.716726e+01    1.730591e+00
  2.718314e+01    1.937353e+00
  2.719901e+01    2.114833e+00
  2.721489e+01    2.249183e+00
  2.723077e+01    2.391122e+00
  2.724664e+01    2.491011e+00
  2.726252e+01    2.539976e+00
  2.727839e+01    2.477379e+00
  2.729427e+01    2.395070e+00
  2.731014e+01    2.231900e+00
  2.732602e+01    2.017558e+00
  2.734189e+01    1.851671e+00
  2.735777e+01    1.664772e+00
  2.737365e+01    1.512374e+00
  2.738952e+01    1.386737e+00
  2.740540e+01    1.297504e+00
  2.742127e+01    1.214088e+00
  2.743715e+01    1.161999e+00
  2.745302e+01    1.110258e+00
  2.746890e+01    1.063750e+00
  2.748477e+01    1.048617e+00
  2.750065e+01    1.015160e+00
  2.751653e+01    1.004418e+00
  2.753240e+01    9.429977e-01
  2.754828e+01    9.228198e-01
  2.756415e+01    8.949580e-01
  2.758003e+01    8.829468e-01
  2.759590e+01    8.914831e-01
  2.761178e+01    8.865304e-01
  2.762765e+01    8.854217e-01
  2.764353e+01    8.400096e-01
  2.765941e+01    8.513255e-01
  2.767528e+01    8.407485e-01
  2.769116e+01    8.654147e-01
  2.770703e+01    8.422796e-01
  2.772291e+01    8.399002e-01
  2.773878e+01    8.637670e-01
  2.775466e+01    8.574345e-01
  2.777054e+01    8.381867e-01
  2.778641e+01    8.467914e-01
  2.780229e+01    8.648668e-01
  2.781816e+01    8.423126e-01
  2.783404e+01    8.207664e-01
  2.784991e+01    8.174226e-01
  2.786579e+01    8.095762e-01
  2.788166e+01    8.105974e-01
  2.789754e+01    8.176320e-01
  2.791342e+01    8.231748e-01
  2.792929e+01    8.334994e-01
  2.794517e+01    8.084298e-01
  2.796104e+01    7.946536e-01
  2.797692e+01    8.051204e-01
  2.799279e+01    8.002425e-01
  2.800867e+01    7.893323e-01
  2.802454e+01    7.972477e-01
  2.804042e+01    7.893054e-01
  2.805630e+01    7.861274e-01
  2.807217e+01    7.834123e-01
  2.808805e+01    7.906191e-01
  2.810392e+01    7.998248e-01
  2.811980e+01    7.979220e-01
  2.813567e+01    7.996603e-01
  2.815155e+01    7.783971e-01
  2.816742e+01    7.686979e-01
  2.818330e+01    7.951314e-01
  2.819918e+01    7.921385e-01
  2.821505e+01    7.901869e-01
  2.823093e+01    7.847069e-01
  2.824680e+01    7.893231e-01
  2.826268e+01    7.967581e-01
  2.827855e+01    7.950391e-01
  2.829443e+01    7.982581e-01
  2.831030e+01    8.019866e-01
  2.832618e+01    7.832127e-01
  2.834206e+01    7.854071e-01
  2.835793e+01    7.767583e-01
  2.837381e+01    7.541763e-01
  2.838968e+01    7.780772e-01
  2.840556e+01    7.742977e-01
  2.842143e+01    7.597725e-01
  2.843731e+01    7.647268e-01
  2.845318e+01    7.612426e-01
  2.846906e+01    7.621996e-01
  2.848494e+01    7.536963e-01
  2.850081e+01    7.709295e-01
  2.851669e+01    7.704747e-01
  2.853256e+01    7.775532e-01
  2.854844e+01    7.603204e-01
  2.856431e+01    7.712407e-01
  2.858019e+01    7.857314e-01
  2.859606e+01    7.718880e-01
  2.861194e+01    7.517172e-01
  2.862782e+01    7.369512e-01
  2.864369e+01    7.531112e-01
  2.865957e+01    7.581954e-01
  2.867544e+01    7.612162e-01
  2.869132e+01    7.649115e-01
  2.870719e+01    7.722868e-01
  2.872307e+01    7.536234e-01
  2.873895e+01    7.673060e-01
  2.875482e+01    7.671821e-01
  2.877070e+01    7.449427e-01
  2.878657e+01    7.416703e-01
  2.880245e+01    7.438451e-01
  2.881832e+01    7.387727e-01
  2.883420e+01    7.322441e-01
  2.885007e+01    7.400908e-01
  2.886595e+01    7.302935e-01
  2.888183e+01    7.425364e-01
  2.889770e+01    7.527111e-01
  2.891358e+01    7.629848e-01
  2.892945e+01    7.478815e-01
  2.894533e+01    7.420884e-01
  2.896120e+01    7.503949e-01
  2.897708e+01    7.407080e-01
  2.899295e+01    7.395000e-01
  2.900883e+01    7.526789e-01
  2.902471e+01    7.689302e-01
  2.904058e+01    7.486995e-01
  2.905646e+01    7.537034e-01
  2.907233e+01    7.466540e-01
  2.908821e+01    7.420367e-01
  2.910408e+01    7.479040e-01
  2.911996e+01    7.369039e-01
  2.913583e+01    7.349816e-01
  2.915171e+01    7.635281e-01
  2.916759e+01    7.436126e-01
  2.918346e+01    7.485446e-01
  2.919934e+01    7.400492e-01
  2.921521e+01    7.435836e-01
  2.923109e+01    7.485528e-01
  2.924696e+01    7.507232e-01
  2.926284e+01    7.420498e-01
  2.927871e+01    7.520851e-01
  2.929459e+01    7.515758e-01
  2.931047e+01    7.489005e-01
  2.932634e+01    7.528098e-01
  2.934222e+01    7.338260e-01
  2.935809e+01    7.485652e-01
  2.937397e+01    7.309714e-01
  2.938984e+01    7.328525e-01
  2.940572e+01    7.485276e-01
  2.942159e+01    7.348474e-01
  2.943747e+01    7.421479e-01
  2.945335e+01    7.356276e-01
  2.946922e+01    7.331733e-01
  2.948510e+01    7.305396e-01
  2.950097e+01    7.317559e-01
  2.951685e+01    7.388517e-01
  2.953272e+01    7.280551e-01
  2.954860e+01    7.386186e-01
  2.956447e+01    7.278758e-01
  2.958035e+01    7.239952e-01
  2.959623e+01    7.156355e-01
  2.961210e+01    7.525610e-01
  2.962798e+01    7.586020e-01
  2.964385e+01    7.389492e-01
  2.965973e+01    7.212313e-01
  2.967560e+01    7.312390e-01
  2.969148e+01    7.350841e-01
  2.970736e+01    7.347319e-01
  2.972323e+01    7.346702e-01
  2.973911e+01    7.390693e-01
  2.975498e+01    7.263458e-01
  2.977086e+01    7.436587e-01
  2.978673e+01    7.281507e-01
  2.980261e+01    7.234395e-01
  2.981848e+01    7.476392e-01
  2.983436e+01    7.243063e-01
  2.985024e+01    7.004777e-01
  2.986611e+01    7.190929e-01
  2.988199e+01    7.245721e-01
  2.989786e+01    7.129412e-01
  2.991374e+01    7.120606e-01
  2.992961e+01    7.177011e-01
  2.994549e+01    7.269440e-01
  2.996136e+01    7.284124e-01
  2.997724e+01    7.249805e-01
  2.999312e+01    7.359563e-01
  3.000899e+01    7.328998e-01
  3.002487e+01    7.329118e-01
  3.004074e+01    7.340966e-01
  3.005662e+01    7.515371e-01
  3.007249e+01    7.385915e-01
  3.008837e+01    7.421812e-01
  3.010424e+01    7.470262e-01
  3.012012e+01    7.491473e-01
  3.013600e+01    7.176135e-01
  3.015187e+01    7.151765e-01
  3.016775e+01    7.317739e-01
  3.018362e+01    7.414138e-01
  3.019950e+01    7.319090e-01
  3.021537e+01    7.483008e-01
  3.023125e+01    7.101914e-01
  3.024712e+01    7.054276e-01
  3.026300e+01    7.214566e-01
  3.027888e+01    7.262987e-01
  3.029475e+01    7.108689e-01
  3.031063e+01    7.226149e-01
  3.032650e+01    7.380188e-01
  3.034238e+01    7.111931e-01
  3.035825e+01    7.034259e-01
  3.037413e+01    7.225980e-01
  3.039000e+01    7.433741e-01
  3.040588e+01    7.177172e-01
  3.042176e+01    7.074327e-01
  3.043763e+01    7.113128e-01
  3.045351e+01    7.085930e-01
  3.046938e+01    7.158071e-01
  3.048526e+01    7.182033e-01
  3.050113e+01    7.101923e-01
  3.051701e+01    7.244365e-01
  3.053288e+01    7.217798e-01
  3.054876e+01    7.201756e-01
  3.056464e+01    7.036247e-01
  3.058051e+01    7.033001e-01
  3.059639e+01    7.216802e-01
  3.061226e+01    7.204073e-01
  3.062814e+01    7.218059e-01
  3.064401e+01    7.122242e-01
  3.065989e+01    7.290403e-01
  3.067577e+01    7.303983e-01
  3.069164e+01    7.197126e-01
  3.070752e+01    7.184187e-01
  3.072339e+01    7.180883e-01
  3.073927e+01    7.348953e-01
  3.075514e+01    7.263772e-01
  3.077102e+01    7.196304e-01
  3.078689e+01    7.252052e-01
  3.080277e+01    7.253029e-01
  3.081865e+01    7.271991e-01
  3.083452e+01    7.364889e-01
  3.085040e+01    7.257959e-01
  3.086627e+01    7.390537e-01
  3.088215e+01    7.217043e-01
  3.089802e+01    7.284206e-01
  3.091390e+01    7.148262e-01
  3.092977e+01    7.051235e-01
  3.094565e+01    7.372151e-01
  3.096153e+01    7.268865e-01
  3.097740e+01    7.204370e-01
  3.099328e+01    7.184909e-01
  3.100915e+01    7.143809e-01
  3.102503e+01    7.251741e-01
  3.104090e+01    7.240723e-01
  3.105678e+01    7.345550e-01
  3.107265e+01    7.227435e-01
  3.108853e+01    7.321044e-01
  3.110441e+01    7.220662e-01
  3.112028e+01    7.177662e-01
  3.113616e+01    7.329115e-01
  3.115203e+01    7.257635e-01
  3.116791e+01    7.406886e-01
  3.118378e+01    7.354810e-01
  3.119966e+01    7.340658e-01
  3.121553e+01    7.287327e-01
  3.123141e+01    7.295809e-01
  3.124729e+01    7.377654e-01
  3.126316e+01    7.330184e-01
  3.127904e+01    7.469231e-01
  3.129491e+01    7.388378e-01
  3.131079e+01    7.018769e-01
  3.132666e+01    7.411382e-01
  3.134254e+01    7.511896e-01
  3.135841e+01    7.559640e-01
  3.137429e+01    7.623143e-01
  3.139017e+01    7.602823e-01
  3.140604e+01    7.410098e-01
  3.142192e+01    7.329849e-01
  3.143779e+01    7.593523e-01
  3.145367e+01    7.644150e-01
  3.146954e+01    7.686444e-01
  3.148542e+01    7.639078e-01
  3.150129e+01    7.622938e-01
  3.151717e+01    7.849600e-01
  3.153305e+01    7.884595e-01
  3.154892e+01    7.589536e-01
  3.156480e+01    7.729819e-01
  3.158067e+01    8.039260e-01
  3.159655e+01    8.182930e-01
  3.161242e+01    8.159056e-01
  3.162830e+01    8.214985e-01
  3.164418e+01    8.460516e-01
  3.166005e+01    8.697174e-01
  3.167593e+01    8.853773e-01
  3.169180e+01    9.110041e-01
  3.170768e+01    9.379425e-01
  3.172355e+01    9.723859e-01
  3.173943e+01    9.773351e-01
  3.175530e+01    1.034064e+00
  3.177118e+01    1.069644e+00
  3.178706e+01    1.128581e+00
  3.180293e+01    1.228715e+00
  3.181881e+01    1.330499e+00
  3.183468e+01    1.441500e+00
  3.185056e+01    1.561895e+00
  3.186643e+01    1.719802e+00
  3.188231e+01    1.895546e+00
  3.189818e+01    2.069257e+00
  3.191406e+01    2.229749e+00
  3.192994e+01    2.393833e+00
  3.194581e+01    2.470315e+00
  3.196169e+01    2.487625e+00
  3.197756e+01    2.497551e+00
  3.199344e+01    2.374891e+00
  3.200931e+01    2.181843e+00
  3.202519e+01    1.984893e+00
  3.204106e+01    1.797052e+00
  3.205694e+01    1.620247e+00
  3.207282e+01    1.452950e+00
  3.208869e+01    1.345204e+00
  3.210457e+01    1.210177e+00
  3.212044e+01    1.143644e+00
  3.213632e+01    1.055140e+00
  3.215219e+01    1.009881e+00
  3.216807e+01    9.546022e-01
  3.218394e+01    8.924937e-01
  3.219982e+01    8.811644e-01
  3.221570e+01    8.761641e-01
  3.223157e+01    8.596173e-01
  3.224745e+01    8.272161e-01
  3.226332e+01    8.344206e-01
  3.227920e+01    8.202002e-01
  3.229507e+01    8.171856e-01
  3.231095e+01    8.197986e-01
  3.232682e+01    7.821106e-01
  3.234270e+01    7.877129e-01
  3.235858e+01    7.862630e-01
  3.237445e+01    7.755799e-01
  3.239033e+01    7.659218e-01
  3.240620e+01    7.564246e-01
  3.242208e+01    7.487662e-01
  3.243795e+01    7.590415e-01
  3.245383e+01    7.553824e-01
  3.246970e+01    7.472833e-01
  3.248558e+01    7.484738e-01
  3.250146e+01    7.353851e-01
  3.251733e+01    7.097731e-01
  3.253321e+01    7.061093e-01
  3.254908e+01    7.219399e-01
