# == pyFAI calibration ==
# Distance Sample to Detector: 0.3999999939076516 m
# PONI: 9.750e-02, 1.135e-01 m
# Rotations: -0.000175 0.000000 -0.000000 rad
# 
# == Fit2d calibration ==
# Distance Sample-beamCenter: 400.000 mm
# Center: x=1514.000, y=1300.000 pix
# Tilt: 0.010 deg  TiltPlanRot: 0.010 deg
# 
# Detector Detector	 Spline= None	 PixelSize= 7.500e-05, 7.500e-05 m
#    Detector has a mask: False 
#    Detector has a dark current: False 
#    detector has a flat field: False 
# 
# Wavelength: 6.888e-11 m
# Mask applied: user provided
# Dark current applied: False
# Flat field applied: False
# Polarization factor: 0.99
# Normalization factor: 1.0
# --> /home/myspot/data/2024_07_Rosario/Ru-CGO-ex/2024-07-27_002_Ru-CGO-ex_Activtation_ramp_000002_data_000078.dat
#       q_nm^-1             I 
  2.003187e-02    0.000000e+00
  3.590745e-02    0.000000e+00
  5.178302e-02    2.670345e-02
  6.765859e-02    1.083267e-01
  8.353417e-02    8.947597e-02
  9.940974e-02    3.949442e-02
  1.152853e-01    1.577930e-02
  1.311609e-01    1.920634e-02
  1.470365e-01    6.494864e-02
  1.629120e-01    4.476247e-02
  1.787876e-01    4.344329e-02
  1.946632e-01    4.698789e-02
  2.105388e-01    3.685626e-02
  2.264143e-01    4.383283e-02
  2.422899e-01    2.531838e-02
  2.581655e-01    1.504746e-02
  2.740411e-01    1.617265e-02
  2.899166e-01    1.547647e-02
  3.057922e-01    2.310269e-02
  3.216678e-01    2.109907e-03
  3.375433e-01    2.491798e-02
  3.534189e-01    3.102380e-02
  3.692945e-01    2.332603e-02
  3.851701e-01    1.886060e-02
  4.010456e-01    3.246890e-02
  4.169212e-01    3.287225e-02
  4.327968e-01    2.971420e-02
  4.486724e-01    6.158249e-02
  4.645479e-01    6.272309e-02
  4.804235e-01    2.583261e-02
  4.962991e-01    4.769387e-02
  5.121747e-01    4.970234e-02
  5.280502e-01    4.407359e-02
  5.439258e-01    1.760160e-02
  5.598014e-01    6.044947e-02
  5.756770e-01    4.248493e-02
  5.915525e-01    3.407288e-02
  6.074281e-01    3.414688e-02
  6.233037e-01    4.904893e-02
  6.391793e-01    2.922331e-02
  6.550548e-01    2.702936e-02
  6.709304e-01    3.140702e-02
  6.868060e-01    2.846264e-02
  7.026815e-01    2.376464e-02
  7.185571e-01    4.189024e-02
  7.344327e-01    2.649158e-02
  7.503083e-01    3.776960e-02
  7.661838e-01    8.675520e-02
  7.820594e-01    1.374025e-01
  7.979350e-01    1.451200e-01
  8.138106e-01    2.126922e-01
  8.296861e-01    2.758714e-01
  8.455617e-01    2.924861e-01
  8.614373e-01    3.237907e-01
  8.773129e-01    4.013796e-01
  8.931884e-01    4.251180e-01
  9.090640e-01    5.304732e-01
  9.249396e-01    6.657177e-01
  9.408152e-01    6.528270e-01
  9.566907e-01    6.364356e-01
  9.725663e-01    8.469630e-01
  9.884419e-01    9.083363e-01
  1.004317e+00    1.028911e+00
  1.020193e+00    1.091766e+00
  1.036069e+00    1.129295e+00
  1.051944e+00    1.262509e+00
  1.067820e+00    1.316549e+00
  1.083695e+00    1.288126e+00
  1.099571e+00    1.393455e+00
  1.115446e+00    1.564132e+00
  1.131322e+00    1.508418e+00
  1.147198e+00    1.460519e+00
  1.163073e+00    1.457992e+00
  1.178949e+00    1.587210e+00
  1.194824e+00    1.680068e+00
  1.210700e+00    1.857945e+00
  1.226575e+00    2.065673e+00
  1.242451e+00    2.225929e+00
  1.258327e+00    2.323259e+00
  1.274202e+00    2.333081e+00
  1.290078e+00    2.390919e+00
  1.305953e+00    2.376850e+00
  1.321829e+00    2.324242e+00
  1.337705e+00    2.409735e+00
  1.353580e+00    2.578484e+00
  1.369456e+00    2.567470e+00
  1.385331e+00    2.594435e+00
  1.401207e+00    2.482095e+00
  1.417082e+00    2.646450e+00
  1.432958e+00    2.788509e+00
  1.448834e+00    2.847585e+00
  1.464709e+00    2.801127e+00
  1.480585e+00    2.804899e+00
  1.496460e+00    2.897279e+00
  1.512336e+00    2.964323e+00
  1.528211e+00    3.009595e+00
  1.544087e+00    2.887196e+00
  1.559963e+00    2.902619e+00
  1.575838e+00    3.043443e+00
  1.591714e+00    3.109531e+00
  1.607589e+00    2.924426e+00
  1.623465e+00    2.937596e+00
  1.639340e+00    2.969848e+00
  1.655216e+00    2.975423e+00
  1.671092e+00    2.997454e+00
  1.686967e+00    2.858465e+00
  1.702843e+00    2.833892e+00
  1.718718e+00    2.891920e+00
  1.734594e+00    2.853187e+00
  1.750469e+00    2.878319e+00
  1.766345e+00    2.892313e+00
  1.782221e+00    2.909417e+00
  1.798096e+00    2.827353e+00
  1.813972e+00    2.742115e+00
  1.829847e+00    2.728104e+00
  1.845723e+00    2.763299e+00
  1.861598e+00    2.928293e+00
  1.877474e+00    2.878805e+00
  1.893350e+00    2.752577e+00
  1.909225e+00    2.870879e+00
  1.925101e+00    2.616133e+00
  1.940976e+00    2.786005e+00
  1.956852e+00    2.858707e+00
  1.972727e+00    2.790766e+00
  1.988603e+00    2.644619e+00
  2.004479e+00    2.696868e+00
  2.020354e+00    2.797288e+00
  2.036230e+00    2.807219e+00
  2.052105e+00    2.653242e+00
  2.067981e+00    2.654050e+00
  2.083856e+00    2.776118e+00
  2.099732e+00    2.811910e+00
  2.115608e+00    2.719016e+00
  2.131483e+00    2.791557e+00
  2.147359e+00    2.769120e+00
  2.163234e+00    2.787703e+00
  2.179110e+00    2.746892e+00
  2.194985e+00    2.815937e+00
  2.210861e+00    2.787570e+00
  2.226737e+00    2.757714e+00
  2.242612e+00    2.769611e+00
  2.258488e+00    2.727034e+00
  2.274363e+00    2.643894e+00
  2.290239e+00    2.656835e+00
  2.306115e+00    2.744748e+00
  2.321990e+00    2.764759e+00
  2.337866e+00    2.806724e+00
  2.353741e+00    2.782450e+00
  2.369617e+00    2.774833e+00
  2.385492e+00    2.722967e+00
  2.401368e+00    2.686291e+00
  2.417244e+00    2.654808e+00
  2.433119e+00    2.637652e+00
  2.448995e+00    2.634058e+00
  2.464870e+00    2.705214e+00
  2.480746e+00    2.652700e+00
  2.496621e+00    2.741384e+00
  2.512497e+00    2.874872e+00
  2.528373e+00    2.835083e+00
  2.544248e+00    2.799589e+00
  2.560124e+00    2.764589e+00
  2.575999e+00    2.805451e+00
  2.591875e+00    2.823169e+00
  2.607750e+00    2.763938e+00
  2.623626e+00    2.856766e+00
  2.639502e+00    2.822577e+00
  2.655377e+00    2.867285e+00
  2.671253e+00    2.877482e+00
  2.687128e+00    2.795251e+00
  2.703004e+00    2.817097e+00
  2.718879e+00    2.764045e+00
  2.734755e+00    2.756875e+00
  2.750631e+00    2.836480e+00
  2.766506e+00    2.889383e+00
  2.782382e+00    2.850744e+00
  2.798257e+00    2.841825e+00
  2.814133e+00    2.828483e+00
  2.830008e+00    2.742340e+00
  2.845884e+00    2.885820e+00
  2.861760e+00    2.949208e+00
  2.877635e+00    2.894854e+00
  2.893511e+00    2.891998e+00
  2.909386e+00    2.824865e+00
  2.925262e+00    2.811577e+00
  2.941137e+00    2.868186e+00
  2.957013e+00    2.818820e+00
  2.972889e+00    2.763723e+00
  2.988764e+00    2.817198e+00
  3.004640e+00    2.965756e+00
  3.020515e+00    2.881889e+00
  3.036391e+00    2.876697e+00
  3.052266e+00    2.954273e+00
  3.068142e+00    2.951043e+00
  3.084018e+00    2.998660e+00
  3.099893e+00    2.987795e+00
  3.115769e+00    2.947153e+00
  3.131644e+00    2.932396e+00
  3.147520e+00    2.823996e+00
  3.163395e+00    2.858097e+00
  3.179271e+00    2.889255e+00
  3.195147e+00    2.934079e+00
  3.211022e+00    2.895471e+00
  3.226898e+00    2.847473e+00
  3.242773e+00    2.900736e+00
  3.258649e+00    2.919721e+00
  3.274525e+00    2.825886e+00
  3.290400e+00    2.830618e+00
  3.306276e+00    2.885649e+00
  3.322151e+00    2.855822e+00
  3.338027e+00    2.834024e+00
  3.353902e+00    2.861809e+00
  3.369778e+00    2.927520e+00
  3.385654e+00    2.974521e+00
  3.401529e+00    2.957089e+00
  3.417405e+00    2.932913e+00
  3.433280e+00    2.893928e+00
  3.449156e+00    2.916710e+00
  3.465031e+00    2.926468e+00
  3.480907e+00    2.901131e+00
  3.496783e+00    2.923875e+00
  3.512658e+00    2.910494e+00
  3.528534e+00    2.913021e+00
  3.544409e+00    2.944441e+00
  3.560285e+00    2.968754e+00
  3.576160e+00    2.947206e+00
  3.592036e+00    2.903510e+00
  3.607912e+00    2.994091e+00
  3.623787e+00    3.015241e+00
  3.639663e+00    2.982309e+00
  3.655538e+00    3.013020e+00
  3.671414e+00    2.892560e+00
  3.687289e+00    2.913030e+00
  3.703165e+00    2.937122e+00
  3.719041e+00    2.943804e+00
  3.734916e+00    2.949066e+00
  3.750792e+00    2.916718e+00
  3.766667e+00    2.979032e+00
  3.782543e+00    2.913329e+00
  3.798418e+00    2.936692e+00
  3.814294e+00    2.951471e+00
  3.830170e+00    2.954330e+00
  3.846045e+00    2.938445e+00
  3.861921e+00    3.013786e+00
  3.877796e+00    3.019369e+00
  3.893672e+00    3.074152e+00
  3.909547e+00    3.017259e+00
  3.925423e+00    2.993909e+00
  3.941299e+00    2.938050e+00
  3.957174e+00    3.018504e+00
  3.973050e+00    3.054335e+00
  3.988925e+00    3.022997e+00
  4.004801e+00    3.026173e+00
  4.020676e+00    3.038271e+00
  4.036552e+00    2.971825e+00
  4.052428e+00    2.881311e+00
  4.068303e+00    2.959645e+00
  4.084179e+00    2.945545e+00
  4.100054e+00    3.056002e+00
  4.115930e+00    3.079490e+00
  4.131806e+00    2.953943e+00
  4.147681e+00    2.866538e+00
  4.163557e+00    3.018978e+00
  4.179432e+00    3.129342e+00
  4.195308e+00    3.047835e+00
  4.211183e+00    2.991858e+00
  4.227059e+00    2.971196e+00
  4.242935e+00    2.938919e+00
  4.258810e+00    3.008642e+00
  4.274686e+00    2.981641e+00
  4.290561e+00    2.970602e+00
  4.306437e+00    3.073998e+00
  4.322312e+00    3.067944e+00
  4.338188e+00    3.105935e+00
  4.354064e+00    3.064741e+00
  4.369939e+00    2.996873e+00
  4.385815e+00    2.981150e+00
  4.401690e+00    2.989441e+00
  4.417566e+00    3.093469e+00
  4.433441e+00    3.105406e+00
  4.449317e+00    3.088196e+00
  4.465193e+00    3.049781e+00
  4.481068e+00    3.045520e+00
  4.496944e+00    3.102887e+00
  4.512819e+00    3.092049e+00
  4.528695e+00    3.081568e+00
  4.544570e+00    3.159455e+00
  4.560446e+00    3.150003e+00
  4.576322e+00    3.031756e+00
  4.592197e+00    3.022763e+00
  4.608073e+00    3.089810e+00
  4.623948e+00    3.131830e+00
  4.639824e+00    3.133077e+00
  4.655699e+00    3.052239e+00
  4.671575e+00    3.012981e+00
  4.687451e+00    3.030157e+00
  4.703326e+00    2.981358e+00
  4.719202e+00    3.025109e+00
  4.735077e+00    3.260162e+00
  4.750953e+00    3.229820e+00
  4.766828e+00    3.029181e+00
  4.782704e+00    3.080570e+00
  4.798580e+00    3.102093e+00
  4.814455e+00    3.064930e+00
  4.830331e+00    3.096810e+00
  4.846206e+00    3.132934e+00
  4.862082e+00    3.048856e+00
  4.877957e+00    3.033318e+00
  4.893833e+00    3.077049e+00
  4.909709e+00    3.129079e+00
  4.925584e+00    3.157311e+00
  4.941460e+00    3.112747e+00
  4.957335e+00    3.112074e+00
  4.973211e+00    3.086955e+00
  4.989086e+00    3.105487e+00
  5.004962e+00    3.118746e+00
  5.020838e+00    3.124822e+00
  5.036713e+00    3.120434e+00
  5.052589e+00    3.126824e+00
  5.068464e+00    3.140308e+00
  5.084340e+00    3.245276e+00
  5.100216e+00    3.177315e+00
  5.116091e+00    3.127791e+00
  5.131967e+00    3.150929e+00
  5.147842e+00    3.211240e+00
  5.163718e+00    3.304802e+00
  5.179593e+00    3.109004e+00
  5.195469e+00    3.159848e+00
  5.211345e+00    3.086092e+00
  5.227220e+00    3.107868e+00
  5.243096e+00    3.039545e+00
  5.258971e+00    3.059766e+00
  5.274847e+00    3.152850e+00
  5.290722e+00    3.130128e+00
  5.306598e+00    3.168149e+00
  5.322474e+00    3.137043e+00
  5.338349e+00    3.107749e+00
  5.354225e+00    3.143688e+00
  5.370100e+00    3.134242e+00
  5.385976e+00    3.167358e+00
  5.401851e+00    3.152507e+00
  5.417727e+00    3.065716e+00
  5.433603e+00    3.076905e+00
  5.449478e+00    3.098555e+00
  5.465354e+00    3.113418e+00
  5.481229e+00    3.068055e+00
  5.497105e+00    3.078495e+00
  5.512980e+00    3.105954e+00
  5.528856e+00    3.088317e+00
  5.544732e+00    3.110569e+00
  5.560607e+00    3.093869e+00
  5.576483e+00    3.095226e+00
  5.592358e+00    3.098487e+00
  5.608234e+00    3.038061e+00
  5.624109e+00    3.077298e+00
  5.639985e+00    3.074334e+00
  5.655861e+00    3.012604e+00
  5.671736e+00    3.023222e+00
  5.687612e+00    3.056466e+00
  5.703487e+00    3.063900e+00
  5.719363e+00    3.131118e+00
  5.735238e+00    3.056238e+00
  5.751114e+00    3.060128e+00
  5.766990e+00    3.065049e+00
  5.782865e+00    3.027910e+00
  5.798741e+00    3.006619e+00
  5.814616e+00    3.075083e+00
  5.830492e+00    3.144226e+00
  5.846367e+00    3.024779e+00
  5.862243e+00    2.953101e+00
  5.878119e+00    3.028049e+00
  5.893994e+00    2.997107e+00
  5.909870e+00    3.096006e+00
  5.925745e+00    3.040568e+00
  5.941621e+00    3.106270e+00
  5.957497e+00    3.102849e+00
  5.973372e+00    3.055535e+00
  5.989248e+00    2.997581e+00
  6.005123e+00    3.069948e+00
  6.020999e+00    3.025621e+00
  6.036874e+00    2.948909e+00
  6.052750e+00    3.061256e+00
  6.068626e+00    3.037256e+00
  6.084501e+00    3.052900e+00
  6.100377e+00    3.102347e+00
  6.116252e+00    3.094514e+00
  6.132128e+00    3.080789e+00
  6.148003e+00    3.081770e+00
  6.163879e+00    3.184279e+00
  6.179755e+00    3.047842e+00
  6.195630e+00    3.026933e+00
  6.211506e+00    3.101039e+00
  6.227381e+00    2.988160e+00
  6.243257e+00    3.020652e+00
  6.259132e+00    2.962547e+00
  6.275008e+00    3.070418e+00
  6.290884e+00    3.028146e+00
  6.306759e+00    2.943922e+00
  6.322635e+00    3.014753e+00
  6.338510e+00    3.039553e+00
  6.354386e+00    2.993382e+00
  6.370261e+00    3.049960e+00
  6.386137e+00    3.040505e+00
  6.402013e+00    3.051168e+00
  6.417888e+00    2.985873e+00
  6.433764e+00    2.965082e+00
  6.449639e+00    2.967171e+00
  6.465515e+00    3.015815e+00
  6.481390e+00    3.032145e+00
  6.497266e+00    3.076417e+00
  6.513142e+00    3.015014e+00
  6.529017e+00    3.058654e+00
  6.544893e+00    3.082560e+00
  6.560768e+00    3.039735e+00
  6.576644e+00    3.018554e+00
  6.592519e+00    2.964371e+00
  6.608395e+00    2.966714e+00
  6.624271e+00    3.073953e+00
  6.640146e+00    3.064216e+00
  6.656022e+00    3.034695e+00
  6.671897e+00    3.054729e+00
  6.687773e+00    2.992178e+00
  6.703648e+00    3.013477e+00
  6.719524e+00    3.067853e+00
  6.735400e+00    3.059053e+00
  6.751275e+00    3.005487e+00
  6.767151e+00    2.955300e+00
  6.783026e+00    3.032491e+00
  6.798902e+00    3.013345e+00
  6.814777e+00    2.989863e+00
  6.830653e+00    3.014344e+00
  6.846529e+00    3.004831e+00
  6.862404e+00    2.955482e+00
  6.878280e+00    2.959730e+00
  6.894155e+00    3.046394e+00
  6.910031e+00    3.091589e+00
  6.925907e+00    3.030361e+00
  6.941782e+00    2.995820e+00
  6.957658e+00    2.979897e+00
  6.973533e+00    2.963953e+00
  6.989409e+00    2.987473e+00
  7.005284e+00    2.949794e+00
  7.021160e+00    3.018858e+00
  7.037036e+00    3.038274e+00
  7.052911e+00    2.946049e+00
  7.068787e+00    2.984270e+00
  7.084662e+00    2.996488e+00
  7.100538e+00    2.939707e+00
  7.116413e+00    2.903735e+00
  7.132289e+00    2.998638e+00
  7.148165e+00    2.970291e+00
  7.164040e+00    2.931291e+00
  7.179916e+00    2.919772e+00
  7.195791e+00    2.968399e+00
  7.211667e+00    2.966821e+00
  7.227542e+00    2.948135e+00
  7.243418e+00    2.963457e+00
  7.259294e+00    2.902322e+00
  7.275169e+00    2.931520e+00
  7.291045e+00    2.984646e+00
  7.306920e+00    2.904849e+00
  7.322796e+00    2.939465e+00
  7.338671e+00    2.989510e+00
  7.354547e+00    2.965139e+00
  7.370423e+00    2.931487e+00
  7.386298e+00    2.922691e+00
  7.402174e+00    2.886639e+00
  7.418049e+00    3.039572e+00
  7.433925e+00    3.081328e+00
  7.449800e+00    3.024584e+00
  7.465676e+00    3.024877e+00
  7.481552e+00    2.985131e+00
  7.497427e+00    3.000427e+00
  7.513303e+00    2.931478e+00
  7.529178e+00    2.974282e+00
  7.545054e+00    2.973626e+00
  7.560929e+00    2.878134e+00
  7.576805e+00    2.914939e+00
  7.592681e+00    2.938231e+00
  7.608556e+00    2.944326e+00
  7.624432e+00    2.955291e+00
  7.640307e+00    2.877788e+00
  7.656183e+00    2.895351e+00
  7.672058e+00    2.922986e+00
  7.687934e+00    2.955310e+00
  7.703810e+00    2.880402e+00
  7.719685e+00    2.912696e+00
  7.735561e+00    2.945963e+00
  7.751436e+00    2.946398e+00
  7.767312e+00    2.933005e+00
  7.783187e+00    2.943285e+00
  7.799063e+00    2.930236e+00
  7.814939e+00    2.913344e+00
  7.830814e+00    2.889830e+00
  7.846690e+00    2.932630e+00
  7.862565e+00    2.883389e+00
  7.878441e+00    2.861027e+00
  7.894317e+00    2.828633e+00
  7.910192e+00    2.861028e+00
  7.926068e+00    2.929397e+00
  7.941943e+00    2.889297e+00
  7.957819e+00    2.886472e+00
  7.973694e+00    2.946804e+00
  7.989570e+00    2.925941e+00
  8.005446e+00    2.919658e+00
  8.021321e+00    2.931369e+00
  8.037197e+00    2.927080e+00
  8.053072e+00    2.853269e+00
  8.068948e+00    2.849571e+00
  8.084823e+00    2.888144e+00
  8.100699e+00    2.864399e+00
  8.116575e+00    2.916861e+00
  8.132450e+00    2.947227e+00
  8.148326e+00    3.017015e+00
  8.164201e+00    2.964486e+00
  8.180077e+00    2.925436e+00
  8.195952e+00    2.943481e+00
  8.211828e+00    2.923856e+00
  8.227704e+00    2.972733e+00
  8.243579e+00    3.003778e+00
  8.259455e+00    2.957733e+00
  8.275330e+00    2.904680e+00
  8.291206e+00    2.913051e+00
  8.307081e+00    2.880661e+00
  8.322957e+00    2.904466e+00
  8.338833e+00    2.905646e+00
  8.354708e+00    2.841294e+00
  8.370584e+00    2.844937e+00
  8.386459e+00    2.885067e+00
  8.402335e+00    2.867949e+00
  8.418210e+00    2.858470e+00
  8.434086e+00    2.883137e+00
  8.449962e+00    2.874093e+00
  8.465837e+00    2.931793e+00
  8.481713e+00    2.881582e+00
  8.497588e+00    2.865212e+00
  8.513464e+00    2.900822e+00
  8.529339e+00    2.908610e+00
  8.545215e+00    2.875645e+00
  8.561091e+00    2.847100e+00
  8.576966e+00    2.853083e+00
  8.592842e+00    2.850185e+00
  8.608717e+00    2.884416e+00
  8.624593e+00    2.840796e+00
  8.640468e+00    2.785633e+00
  8.656344e+00    2.874827e+00
  8.672220e+00    2.922310e+00
  8.688095e+00    2.899351e+00
  8.703971e+00    2.892906e+00
  8.719846e+00    2.891258e+00
  8.735722e+00    2.792738e+00
  8.751598e+00    2.852061e+00
  8.767473e+00    2.882576e+00
  8.783349e+00    2.887677e+00
  8.799224e+00    2.858717e+00
  8.815100e+00    2.865047e+00
  8.830975e+00    2.785354e+00
  8.846851e+00    2.739245e+00
  8.862727e+00    2.772709e+00
  8.878602e+00    2.839669e+00
  8.894478e+00    2.855064e+00
  8.910353e+00    2.818522e+00
  8.926229e+00    2.808087e+00
  8.942104e+00    2.832073e+00
  8.957980e+00    2.803422e+00
  8.973856e+00    2.766582e+00
  8.989731e+00    2.817022e+00
  9.005607e+00    2.771991e+00
  9.021482e+00    2.783822e+00
  9.037358e+00    2.783026e+00
  9.053233e+00    2.819753e+00
  9.069109e+00    2.779385e+00
  9.084985e+00    2.778376e+00
  9.100860e+00    2.751867e+00
  9.116736e+00    2.829685e+00
  9.132611e+00    2.831532e+00
  9.148487e+00    2.754485e+00
  9.164362e+00    2.769595e+00
  9.180238e+00    2.734795e+00
  9.196114e+00    2.783670e+00
  9.211989e+00    2.761917e+00
  9.227865e+00    2.847176e+00
  9.243740e+00    2.839860e+00
  9.259616e+00    2.793221e+00
  9.275491e+00    2.780308e+00
  9.291367e+00    2.772282e+00
  9.307243e+00    2.696167e+00
  9.323118e+00    2.748899e+00
  9.338994e+00    2.796928e+00
  9.354869e+00    2.773406e+00
  9.370745e+00    2.718215e+00
  9.386620e+00    2.767050e+00
  9.402496e+00    2.739213e+00
  9.418372e+00    2.720042e+00
  9.434247e+00    2.780042e+00
  9.450123e+00    2.789151e+00
  9.465998e+00    2.732963e+00
  9.481874e+00    2.735172e+00
  9.497749e+00    2.752127e+00
  9.513625e+00    2.733849e+00
  9.529501e+00    2.778532e+00
  9.545376e+00    2.745513e+00
  9.561252e+00    2.732742e+00
  9.577127e+00    2.753244e+00
  9.593003e+00    2.717786e+00
  9.608878e+00    2.683518e+00
  9.624754e+00    2.721738e+00
  9.640630e+00    2.743545e+00
  9.656505e+00    2.757184e+00
  9.672381e+00    2.717143e+00
  9.688256e+00    2.726800e+00
  9.704132e+00    2.742498e+00
  9.720008e+00    2.673200e+00
  9.735883e+00    2.683043e+00
  9.751759e+00    2.715154e+00
  9.767634e+00    2.703305e+00
  9.783510e+00    2.696071e+00
  9.799385e+00    2.692419e+00
  9.815261e+00    2.710827e+00
  9.831137e+00    2.693033e+00
  9.847012e+00    2.717739e+00
  9.862888e+00    2.740302e+00
  9.878763e+00    2.692205e+00
  9.894639e+00    2.670009e+00
  9.910514e+00    2.634020e+00
  9.926390e+00    2.641648e+00
  9.942266e+00    2.661884e+00
  9.958141e+00    2.631939e+00
  9.974017e+00    2.675140e+00
  9.989892e+00    2.721442e+00
  1.000577e+01    2.717481e+00
  1.002164e+01    2.691751e+00
  1.003752e+01    2.630444e+00
  1.005339e+01    2.653622e+00
  1.006927e+01    2.697614e+00
  1.008515e+01    2.696507e+00
  1.010102e+01    2.669817e+00
  1.011690e+01    2.643597e+00
  1.013277e+01    2.660115e+00
  1.014865e+01    2.649151e+00
  1.016452e+01    2.627733e+00
  1.018040e+01    2.644501e+00
  1.019627e+01    2.674091e+00
  1.021215e+01    2.626872e+00
  1.022803e+01    2.633795e+00
  1.024390e+01    2.668262e+00
  1.025978e+01    2.648206e+00
  1.027565e+01    2.635616e+00
  1.029153e+01    2.588967e+00
  1.030740e+01    2.618049e+00
  1.032328e+01    2.626690e+00
  1.033915e+01    2.639184e+00
  1.035503e+01    2.648031e+00
  1.037091e+01    2.645581e+00
  1.038678e+01    2.583014e+00
  1.040266e+01    2.541193e+00
  1.041853e+01    2.608577e+00
  1.043441e+01    2.555144e+00
  1.045028e+01    2.527646e+00
  1.046616e+01    2.526537e+00
  1.048204e+01    2.568616e+00
  1.049791e+01    2.602235e+00
  1.051379e+01    2.610816e+00
  1.052966e+01    2.612052e+00
  1.054554e+01    2.604689e+00
  1.056141e+01    2.602019e+00
  1.057729e+01    2.651465e+00
  1.059316e+01    2.613049e+00
  1.060904e+01    2.554332e+00
  1.062492e+01    2.505441e+00
  1.064079e+01    2.555439e+00
  1.065667e+01    2.570624e+00
  1.067254e+01    2.551316e+00
  1.068842e+01    2.568566e+00
  1.070429e+01    2.566099e+00
  1.072017e+01    2.560435e+00
  1.073604e+01    2.482702e+00
  1.075192e+01    2.497859e+00
  1.076780e+01    2.521790e+00
  1.078367e+01    2.522372e+00
  1.079955e+01    2.514682e+00
  1.081542e+01    2.496197e+00
  1.083130e+01    2.509379e+00
  1.084717e+01    2.475419e+00
  1.086305e+01    2.510642e+00
  1.087892e+01    2.435028e+00
  1.089480e+01    2.493448e+00
  1.091068e+01    2.509707e+00
  1.092655e+01    2.511388e+00
  1.094243e+01    2.549450e+00
  1.095830e+01    2.526877e+00
  1.097418e+01    2.563056e+00
  1.099005e+01    2.498744e+00
  1.100593e+01    2.445478e+00
  1.102180e+01    2.470638e+00
  1.103768e+01    2.474776e+00
  1.105356e+01    2.493999e+00
  1.106943e+01    2.478915e+00
  1.108531e+01    2.481136e+00
  1.110118e+01    2.477553e+00
  1.111706e+01    2.424079e+00
  1.113293e+01    2.399022e+00
  1.114881e+01    2.487930e+00
  1.116468e+01    2.477934e+00
  1.118056e+01    2.469375e+00
  1.119644e+01    2.413727e+00
  1.121231e+01    2.444852e+00
  1.122819e+01    2.405811e+00
  1.124406e+01    2.451477e+00
  1.125994e+01    2.425691e+00
  1.127581e+01    2.401929e+00
  1.129169e+01    2.437261e+00
  1.130756e+01    2.420075e+00
  1.132344e+01    2.422112e+00
  1.133932e+01    2.437054e+00
  1.135519e+01    2.419851e+00
  1.137107e+01    2.395038e+00
  1.138694e+01    2.380626e+00
  1.140282e+01    2.357961e+00
  1.141869e+01    2.422971e+00
  1.143457e+01    2.408853e+00
  1.145045e+01    2.405172e+00
  1.146632e+01    2.418935e+00
  1.148220e+01    2.345069e+00
  1.149807e+01    2.342985e+00
  1.151395e+01    2.410989e+00
  1.152982e+01    2.420531e+00
  1.154570e+01    2.389489e+00
  1.156157e+01    2.411820e+00
  1.157745e+01    2.409933e+00
  1.159333e+01    2.424803e+00
  1.160920e+01    2.389870e+00
  1.162508e+01    2.400764e+00
  1.164095e+01    2.384795e+00
  1.165683e+01    2.379566e+00
  1.167270e+01    2.348182e+00
  1.168858e+01    2.347998e+00
  1.170445e+01    2.353710e+00
  1.172033e+01    2.342833e+00
  1.173621e+01    2.364571e+00
  1.175208e+01    2.343649e+00
  1.176796e+01    2.362740e+00
  1.178383e+01    2.381073e+00
  1.179971e+01    2.341170e+00
  1.181558e+01    2.344275e+00
  1.183146e+01    2.353932e+00
  1.184733e+01    2.336846e+00
  1.186321e+01    2.355994e+00
  1.187909e+01    2.343017e+00
  1.189496e+01    2.318466e+00
  1.191084e+01    2.353679e+00
  1.192671e+01    2.345472e+00
  1.194259e+01    2.337381e+00
  1.195846e+01    2.325894e+00
  1.197434e+01    2.334938e+00
  1.199021e+01    2.306356e+00
  1.200609e+01    2.320052e+00
  1.202197e+01    2.332559e+00
  1.203784e+01    2.305576e+00
  1.205372e+01    2.300160e+00
  1.206959e+01    2.292749e+00
  1.208547e+01    2.337870e+00
  1.210134e+01    2.303766e+00
  1.211722e+01    2.340494e+00
  1.213309e+01    2.293980e+00
  1.214897e+01    2.344150e+00
  1.216485e+01    2.377681e+00
  1.218072e+01    2.303490e+00
  1.219660e+01    2.279296e+00
  1.221247e+01    2.298333e+00
  1.222835e+01    2.307882e+00
  1.224422e+01    2.303452e+00
  1.226010e+01    2.348923e+00
  1.227597e+01    2.305148e+00
  1.229185e+01    2.320671e+00
  1.230773e+01    2.345286e+00
  1.232360e+01    2.336082e+00
  1.233948e+01    2.313229e+00
  1.235535e+01    2.311775e+00
  1.237123e+01    2.317877e+00
  1.238710e+01    2.297057e+00
  1.240298e+01    2.285867e+00
  1.241886e+01    2.313530e+00
  1.243473e+01    2.321551e+00
  1.245061e+01    2.274014e+00
  1.246648e+01    2.297142e+00
  1.248236e+01    2.342588e+00
  1.249823e+01    2.363514e+00
  1.251411e+01    2.380339e+00
  1.252998e+01    2.344203e+00
  1.254586e+01    2.374803e+00
  1.256174e+01    2.376175e+00
  1.257761e+01    2.372064e+00
  1.259349e+01    2.421927e+00
  1.260936e+01    2.413434e+00
  1.262524e+01    2.438725e+00
  1.264111e+01    2.418642e+00
  1.265699e+01    2.411506e+00
  1.267286e+01    2.415566e+00
  1.268874e+01    2.427929e+00
  1.270462e+01    2.464209e+00
  1.272049e+01    2.496151e+00
  1.273637e+01    2.485914e+00
  1.275224e+01    2.552744e+00
  1.276812e+01    2.584219e+00
  1.278399e+01    2.632416e+00
  1.279987e+01    2.587666e+00
  1.281574e+01    2.685254e+00
  1.283162e+01    2.727870e+00
  1.284750e+01    2.824042e+00
  1.286337e+01    2.912012e+00
  1.287925e+01    3.070168e+00
  1.289512e+01    3.103845e+00
  1.291100e+01    3.225076e+00
  1.292687e+01    3.500677e+00
  1.294275e+01    3.744974e+00
  1.295862e+01    3.975750e+00
  1.297450e+01    4.275963e+00
  1.299038e+01    4.747664e+00
  1.300625e+01    5.269205e+00
  1.302213e+01    5.939906e+00
  1.303800e+01    6.806767e+00
  1.305388e+01    7.931098e+00
  1.306975e+01    9.205994e+00
  1.308563e+01    1.063355e+01
  1.310150e+01    1.208734e+01
  1.311738e+01    1.345889e+01
  1.313326e+01    1.474438e+01
  1.314913e+01    1.611489e+01
  1.316501e+01    1.723282e+01
  1.318088e+01    1.818916e+01
  1.319676e+01    1.840736e+01
  1.321263e+01    1.775031e+01
  1.322851e+01    1.614466e+01
  1.324438e+01    1.400691e+01
  1.326026e+01    1.185204e+01
  1.327614e+01    9.913582e+00
  1.329201e+01    8.322256e+00
  1.330789e+01    7.114238e+00
  1.332376e+01    6.185168e+00
  1.333964e+01    5.446068e+00
  1.335551e+01    4.797587e+00
  1.337139e+01    4.393634e+00
  1.338727e+01    4.071816e+00
  1.340314e+01    3.796924e+00
  1.341902e+01    3.515506e+00
  1.343489e+01    3.329331e+00
  1.345077e+01    3.102251e+00
  1.346664e+01    2.989786e+00
  1.348252e+01    2.851002e+00
  1.349839e+01    2.824291e+00
  1.351427e+01    2.731332e+00
  1.353015e+01    2.564326e+00
  1.354602e+01    2.547755e+00
  1.356190e+01    2.522130e+00
  1.357777e+01    2.501280e+00
  1.359365e+01    2.489167e+00
  1.360952e+01    2.464368e+00
  1.362540e+01    2.392453e+00
  1.364127e+01    2.322116e+00
  1.365715e+01    2.306917e+00
  1.367303e+01    2.310214e+00
  1.368890e+01    2.294060e+00
  1.370478e+01    2.280843e+00
  1.372065e+01    2.285319e+00
  1.373653e+01    2.223863e+00
  1.375240e+01    2.210447e+00
  1.376828e+01    2.208385e+00
  1.378415e+01    2.196060e+00
  1.380003e+01    2.176784e+00
  1.381591e+01    2.143292e+00
  1.383178e+01    2.117327e+00
  1.384766e+01    2.131572e+00
  1.386353e+01    2.162409e+00
  1.387941e+01    2.150652e+00
  1.389528e+01    2.126950e+00
  1.391116e+01    2.096791e+00
  1.392703e+01    2.083603e+00
  1.394291e+01    2.087466e+00
  1.395879e+01    2.064990e+00
  1.397466e+01    2.056128e+00
  1.399054e+01    2.059742e+00
  1.400641e+01    2.050277e+00
  1.402229e+01    2.081107e+00
  1.403816e+01    2.042023e+00
  1.405404e+01    2.068952e+00
  1.406991e+01    2.015929e+00
  1.408579e+01    2.010347e+00
  1.410167e+01    2.045109e+00
  1.411754e+01    2.030733e+00
  1.413342e+01    2.002366e+00
  1.414929e+01    2.021865e+00
  1.416517e+01    1.995923e+00
  1.418104e+01    1.969153e+00
  1.419692e+01    1.938083e+00
  1.421279e+01    1.968995e+00
  1.422867e+01    1.949864e+00
  1.424455e+01    1.953173e+00
  1.426042e+01    1.976382e+00
  1.427630e+01    1.967617e+00
  1.429217e+01    1.986168e+00
  1.430805e+01    1.914583e+00
  1.432392e+01    1.932031e+00
  1.433980e+01    1.945992e+00
  1.435568e+01    1.941275e+00
  1.437155e+01    1.935382e+00
  1.438743e+01    1.934256e+00
  1.440330e+01    1.947415e+00
  1.441918e+01    1.954315e+00
  1.443505e+01    1.942565e+00
  1.445093e+01    1.938666e+00
  1.446680e+01    1.929345e+00
  1.448268e+01    1.890417e+00
  1.449856e+01    1.897361e+00
  1.451443e+01    1.930436e+00
  1.453031e+01    1.894554e+00
  1.454618e+01    1.879913e+00
  1.456206e+01    1.928463e+00
  1.457793e+01    1.912645e+00
  1.459381e+01    1.903368e+00
  1.460968e+01    1.901472e+00
  1.462556e+01    1.908902e+00
  1.464144e+01    1.927795e+00
  1.465731e+01    1.917860e+00
  1.467319e+01    1.892804e+00
  1.468906e+01    1.903830e+00
  1.470494e+01    1.902100e+00
  1.472081e+01    1.898693e+00
  1.473669e+01    1.914373e+00
  1.475256e+01    1.926916e+00
  1.476844e+01    1.903928e+00
  1.478432e+01    1.909178e+00
  1.480019e+01    1.908956e+00
  1.481607e+01    1.896566e+00
  1.483194e+01    1.920659e+00
  1.484782e+01    1.947976e+00
  1.486369e+01    1.984567e+00
  1.487957e+01    1.991566e+00
  1.489544e+01    1.953644e+00
  1.491132e+01    1.936968e+00
  1.492720e+01    1.944636e+00
  1.494307e+01    2.003143e+00
  1.495895e+01    2.041013e+00
  1.497482e+01    2.048175e+00
  1.499070e+01    2.064014e+00
  1.500657e+01    2.123000e+00
  1.502245e+01    2.182255e+00
  1.503832e+01    2.270295e+00
  1.505420e+01    2.357940e+00
  1.507008e+01    2.471561e+00
  1.508595e+01    2.648599e+00
  1.510183e+01    2.849782e+00
  1.511770e+01    3.069068e+00
  1.513358e+01    3.338301e+00
  1.514945e+01    3.662512e+00
  1.516533e+01    4.014073e+00
  1.518120e+01    4.477482e+00
  1.519708e+01    4.886855e+00
  1.521296e+01    5.197481e+00
  1.522883e+01    5.512264e+00
  1.524471e+01    5.785211e+00
  1.526058e+01    6.127720e+00
  1.527646e+01    6.243896e+00
  1.529233e+01    6.133549e+00
  1.530821e+01    6.009992e+00
  1.532409e+01    5.625437e+00
  1.533996e+01    5.008755e+00
  1.535584e+01    4.406903e+00
  1.537171e+01    3.907567e+00
  1.538759e+01    3.450418e+00
  1.540346e+01    3.149991e+00
  1.541934e+01    2.886566e+00
  1.543521e+01    2.590612e+00
  1.545109e+01    2.440311e+00
  1.546697e+01    2.312296e+00
  1.548284e+01    2.225979e+00
  1.549872e+01    2.154513e+00
  1.551459e+01    2.060018e+00
  1.553047e+01    2.004959e+00
  1.554634e+01    1.986841e+00
  1.556222e+01    1.971508e+00
  1.557809e+01    1.918964e+00
  1.559397e+01    1.882835e+00
  1.560985e+01    1.856861e+00
  1.562572e+01    1.828210e+00
  1.564160e+01    1.799442e+00
  1.565747e+01    1.761993e+00
  1.567335e+01    1.781045e+00
  1.568922e+01    1.758015e+00
  1.570510e+01    1.775555e+00
  1.572097e+01    1.756066e+00
  1.573685e+01    1.718158e+00
  1.575273e+01    1.701825e+00
  1.576860e+01    1.745992e+00
  1.578448e+01    1.701786e+00
  1.580035e+01    1.696896e+00
  1.581623e+01    1.666207e+00
  1.583210e+01    1.704924e+00
  1.584798e+01    1.677392e+00
  1.586385e+01    1.675339e+00
  1.587973e+01    1.668417e+00
  1.589561e+01    1.651703e+00
  1.591148e+01    1.629536e+00
  1.592736e+01    1.638029e+00
  1.594323e+01    1.629599e+00
  1.595911e+01    1.634968e+00
  1.597498e+01    1.671652e+00
  1.599086e+01    1.635667e+00
  1.600673e+01    1.604803e+00
  1.602261e+01    1.616006e+00
  1.603849e+01    1.630903e+00
  1.605436e+01    1.593603e+00
  1.607024e+01    1.598744e+00
  1.608611e+01    1.596446e+00
  1.610199e+01    1.606421e+00
  1.611786e+01    1.585866e+00
  1.613374e+01    1.614029e+00
  1.614961e+01    1.593466e+00
  1.616549e+01    1.562155e+00
  1.618137e+01    1.563828e+00
  1.619724e+01    1.581528e+00
  1.621312e+01    1.595058e+00
  1.622899e+01    1.585716e+00
  1.624487e+01    1.541429e+00
  1.626074e+01    1.562883e+00
  1.627662e+01    1.527358e+00
  1.629250e+01    1.505933e+00
  1.630837e+01    1.526904e+00
  1.632425e+01    1.529127e+00
  1.634012e+01    1.532368e+00
  1.635600e+01    1.525238e+00
  1.637187e+01    1.527427e+00
  1.638775e+01    1.527098e+00
  1.640362e+01    1.528204e+00
  1.641950e+01    1.496969e+00
  1.643538e+01    1.499117e+00
  1.645125e+01    1.525548e+00
  1.646713e+01    1.565136e+00
  1.648300e+01    1.523728e+00
  1.649888e+01    1.510968e+00
  1.651475e+01    1.508128e+00
  1.653063e+01    1.522095e+00
  1.654650e+01    1.528673e+00
  1.656238e+01    1.486109e+00
  1.657826e+01    1.510924e+00
  1.659413e+01    1.505759e+00
  1.661001e+01    1.468768e+00
  1.662588e+01    1.473881e+00
  1.664176e+01    1.499703e+00
  1.665763e+01    1.488512e+00
  1.667351e+01    1.465667e+00
  1.668938e+01    1.479954e+00
  1.670526e+01    1.448375e+00
  1.672114e+01    1.456794e+00
  1.673701e+01    1.459205e+00
  1.675289e+01    1.470808e+00
  1.676876e+01    1.469907e+00
  1.678464e+01    1.468962e+00
  1.680051e+01    1.486042e+00
  1.681639e+01    1.479245e+00
  1.683226e+01    1.439337e+00
  1.684814e+01    1.442324e+00
  1.686402e+01    1.425350e+00
  1.687989e+01    1.455365e+00
  1.689577e+01    1.457154e+00
  1.691164e+01    1.461963e+00
  1.692752e+01    1.438895e+00
  1.694339e+01    1.436763e+00
  1.695927e+01    1.415326e+00
  1.697514e+01    1.435767e+00
  1.699102e+01    1.436837e+00
  1.700690e+01    1.420614e+00
  1.702277e+01    1.408774e+00
  1.703865e+01    1.428415e+00
  1.705452e+01    1.428163e+00
  1.707040e+01    1.385826e+00
  1.708627e+01    1.399355e+00
  1.710215e+01    1.429402e+00
  1.711802e+01    1.437259e+00
  1.713390e+01    1.410879e+00
  1.714978e+01    1.412492e+00
  1.716565e+01    1.408952e+00
  1.718153e+01    1.389969e+00
  1.719740e+01    1.386533e+00
  1.721328e+01    1.391827e+00
  1.722915e+01    1.375421e+00
  1.724503e+01    1.381576e+00
  1.726091e+01    1.358341e+00
  1.727678e+01    1.342665e+00
  1.729266e+01    1.334987e+00
  1.730853e+01    1.368414e+00
  1.732441e+01    1.397035e+00
  1.734028e+01    1.406958e+00
  1.735616e+01    1.409593e+00
  1.737203e+01    1.377717e+00
  1.738791e+01    1.353310e+00
  1.740379e+01    1.325861e+00
  1.741966e+01    1.336341e+00
  1.743554e+01    1.363371e+00
  1.745141e+01    1.366314e+00
  1.746729e+01    1.379621e+00
  1.748316e+01    1.347447e+00
  1.749904e+01    1.347438e+00
  1.751491e+01    1.376075e+00
  1.753079e+01    1.374428e+00
  1.754667e+01    1.329195e+00
  1.756254e+01    1.331328e+00
  1.757842e+01    1.369018e+00
  1.759429e+01    1.347986e+00
  1.761017e+01    1.370245e+00
  1.762604e+01    1.358926e+00
  1.764192e+01    1.326203e+00
  1.765779e+01    1.340844e+00
  1.767367e+01    1.365658e+00
  1.768955e+01    1.379429e+00
  1.770542e+01    1.342178e+00
  1.772130e+01    1.330202e+00
  1.773717e+01    1.327904e+00
  1.775305e+01    1.333343e+00
  1.776892e+01    1.335784e+00
  1.778480e+01    1.319119e+00
  1.780067e+01    1.342279e+00
  1.781655e+01    1.338657e+00
  1.783243e+01    1.318277e+00
  1.784830e+01    1.333903e+00
  1.786418e+01    1.320750e+00
  1.788005e+01    1.315563e+00
  1.789593e+01    1.321141e+00
  1.791180e+01    1.321575e+00
  1.792768e+01    1.302319e+00
  1.794355e+01    1.291508e+00
  1.795943e+01    1.300531e+00
  1.797531e+01    1.321052e+00
  1.799118e+01    1.326079e+00
  1.800706e+01    1.307230e+00
  1.802293e+01    1.320390e+00
  1.803881e+01    1.303214e+00
  1.805468e+01    1.292636e+00
  1.807056e+01    1.281072e+00
  1.808643e+01    1.279829e+00
  1.810231e+01    1.285743e+00
  1.811819e+01    1.297773e+00
  1.813406e+01    1.269882e+00
  1.814994e+01    1.282109e+00
  1.816581e+01    1.288091e+00
  1.818169e+01    1.305206e+00
  1.819756e+01    1.297191e+00
  1.821344e+01    1.276809e+00
  1.822932e+01    1.295288e+00
  1.824519e+01    1.286621e+00
  1.826107e+01    1.268851e+00
  1.827694e+01    1.249418e+00
  1.829282e+01    1.246433e+00
  1.830869e+01    1.280633e+00
  1.832457e+01    1.283583e+00
  1.834044e+01    1.286745e+00
  1.835632e+01    1.292043e+00
  1.837220e+01    1.250748e+00
  1.838807e+01    1.257327e+00
  1.840395e+01    1.260796e+00
  1.841982e+01    1.232038e+00
  1.843570e+01    1.254691e+00
  1.845157e+01    1.269539e+00
  1.846745e+01    1.263267e+00
  1.848332e+01    1.247719e+00
  1.849920e+01    1.260964e+00
  1.851508e+01    1.265081e+00
  1.853095e+01    1.264135e+00
  1.854683e+01    1.229460e+00
  1.856270e+01    1.235999e+00
  1.857858e+01    1.235483e+00
  1.859445e+01    1.233865e+00
  1.861033e+01    1.216514e+00
  1.862620e+01    1.223227e+00
  1.864208e+01    1.249702e+00
  1.865796e+01    1.255610e+00
  1.867383e+01    1.214639e+00
  1.868971e+01    1.192602e+00
  1.870558e+01    1.213512e+00
  1.872146e+01    1.219373e+00
  1.873733e+01    1.227163e+00
  1.875321e+01    1.225402e+00
  1.876908e+01    1.232603e+00
  1.878496e+01    1.213274e+00
  1.880084e+01    1.229024e+00
  1.881671e+01    1.202109e+00
  1.883259e+01    1.226477e+00
  1.884846e+01    1.209575e+00
  1.886434e+01    1.205399e+00
  1.888021e+01    1.215623e+00
  1.889609e+01    1.237962e+00
  1.891196e+01    1.215258e+00
  1.892784e+01    1.190998e+00
  1.894372e+01    1.186623e+00
  1.895959e+01    1.193843e+00
  1.897547e+01    1.196808e+00
  1.899134e+01    1.197799e+00
  1.900722e+01    1.168849e+00
  1.902309e+01    1.202846e+00
  1.903897e+01    1.195396e+00
  1.905484e+01    1.156826e+00
  1.907072e+01    1.181189e+00
  1.908660e+01    1.163403e+00
  1.910247e+01    1.204413e+00
  1.911835e+01    1.203744e+00
  1.913422e+01    1.211438e+00
  1.915010e+01    1.181316e+00
  1.916597e+01    1.185347e+00
  1.918185e+01    1.172574e+00
  1.919773e+01    1.170577e+00
  1.921360e+01    1.157116e+00
  1.922948e+01    1.175970e+00
  1.924535e+01    1.190333e+00
  1.926123e+01    1.181974e+00
  1.927710e+01    1.199686e+00
  1.929298e+01    1.190714e+00
  1.930885e+01    1.184190e+00
  1.932473e+01    1.175797e+00
  1.934061e+01    1.175037e+00
  1.935648e+01    1.160923e+00
  1.937236e+01    1.147437e+00
  1.938823e+01    1.170485e+00
  1.940411e+01    1.180047e+00
  1.941998e+01    1.153143e+00
  1.943586e+01    1.158790e+00
  1.945173e+01    1.172280e+00
  1.946761e+01    1.154140e+00
  1.948349e+01    1.164866e+00
  1.949936e+01    1.178084e+00
  1.951524e+01    1.175722e+00
  1.953111e+01    1.152401e+00
  1.954699e+01    1.153542e+00
  1.956286e+01    1.184086e+00
  1.957874e+01    1.158999e+00
  1.959461e+01    1.145220e+00
  1.961049e+01    1.150797e+00
  1.962637e+01    1.148132e+00
  1.964224e+01    1.166520e+00
  1.965812e+01    1.156021e+00
  1.967399e+01    1.162636e+00
  1.968987e+01    1.151869e+00
  1.970574e+01    1.136027e+00
  1.972162e+01    1.134459e+00
  1.973749e+01    1.138689e+00
  1.975337e+01    1.136364e+00
  1.976925e+01    1.116198e+00
  1.978512e+01    1.142774e+00
  1.980100e+01    1.150668e+00
  1.981687e+01    1.134510e+00
  1.983275e+01    1.118636e+00
  1.984862e+01    1.106274e+00
  1.986450e+01    1.131852e+00
  1.988037e+01    1.161339e+00
  1.989625e+01    1.151583e+00
  1.991213e+01    1.137792e+00
  1.992800e+01    1.107553e+00
  1.994388e+01    1.102314e+00
  1.995975e+01    1.114856e+00
  1.997563e+01    1.119855e+00
  1.999150e+01    1.128400e+00
  2.000738e+01    1.115153e+00
  2.002325e+01    1.122293e+00
  2.003913e+01    1.102712e+00
  2.005501e+01    1.077594e+00
  2.007088e+01    1.109852e+00
  2.008676e+01    1.126536e+00
  2.010263e+01    1.124662e+00
  2.011851e+01    1.135764e+00
  2.013438e+01    1.069547e+00
  2.015026e+01    1.071186e+00
  2.016614e+01    1.106271e+00
  2.018201e+01    1.101442e+00
  2.019789e+01    1.092218e+00
  2.021376e+01    1.117199e+00
  2.022964e+01    1.110625e+00
  2.024551e+01    1.094534e+00
  2.026139e+01    1.107783e+00
  2.027726e+01    1.063793e+00
  2.029314e+01    1.079596e+00
  2.030902e+01    1.106821e+00
  2.032489e+01    1.114020e+00
  2.034077e+01    1.092488e+00
  2.035664e+01    1.080823e+00
  2.037252e+01    1.062773e+00
  2.038839e+01    1.076092e+00
  2.040427e+01    1.094255e+00
  2.042014e+01    1.084673e+00
  2.043602e+01    1.088311e+00
  2.045190e+01    1.096413e+00
  2.046777e+01    1.114860e+00
  2.048365e+01    1.110250e+00
  2.049952e+01    1.093420e+00
  2.051540e+01    1.089603e+00
  2.053127e+01    1.093953e+00
  2.054715e+01    1.098542e+00
  2.056302e+01    1.083069e+00
  2.057890e+01    1.090138e+00
  2.059478e+01    1.088578e+00
  2.061065e+01    1.074735e+00
  2.062653e+01    1.074751e+00
  2.064240e+01    1.075603e+00
  2.065828e+01    1.055096e+00
  2.067415e+01    1.057540e+00
  2.069003e+01    1.070518e+00
  2.070590e+01    1.074031e+00
  2.072178e+01    1.114430e+00
  2.073766e+01    1.103656e+00
  2.075353e+01    1.120271e+00
  2.076941e+01    1.110406e+00
  2.078528e+01    1.101063e+00
  2.080116e+01    1.105248e+00
  2.081703e+01    1.089457e+00
  2.083291e+01    1.081953e+00
  2.084878e+01    1.084328e+00
  2.086466e+01    1.088936e+00
  2.088054e+01    1.093825e+00
  2.089641e+01    1.055153e+00
  2.091229e+01    1.076634e+00
  2.092816e+01    1.079558e+00
  2.094404e+01    1.070588e+00
  2.095991e+01    1.067768e+00
  2.097579e+01    1.082940e+00
  2.099166e+01    1.090725e+00
  2.100754e+01    1.062973e+00
  2.102342e+01    1.059851e+00
  2.103929e+01    1.106938e+00
  2.105517e+01    1.086943e+00
  2.107104e+01    1.095089e+00
  2.108692e+01    1.093759e+00
  2.110279e+01    1.075538e+00
  2.111867e+01    1.083914e+00
  2.113455e+01    1.065777e+00
  2.115042e+01    1.077424e+00
  2.116630e+01    1.098581e+00
  2.118217e+01    1.073851e+00
  2.119805e+01    1.089068e+00
  2.121392e+01    1.097942e+00
  2.122980e+01    1.112036e+00
  2.124567e+01    1.120526e+00
  2.126155e+01    1.111064e+00
  2.127743e+01    1.118301e+00
  2.129330e+01    1.114187e+00
  2.130918e+01    1.111855e+00
  2.132505e+01    1.118061e+00
  2.134093e+01    1.114644e+00
  2.135680e+01    1.159667e+00
  2.137268e+01    1.158366e+00
  2.138855e+01    1.177002e+00
  2.140443e+01    1.195652e+00
  2.142031e+01    1.204357e+00
  2.143618e+01    1.216607e+00
  2.145206e+01    1.216393e+00
  2.146793e+01    1.262835e+00
  2.148381e+01    1.292013e+00
  2.149968e+01    1.275855e+00
  2.151556e+01    1.275184e+00
  2.153143e+01    1.337604e+00
  2.154731e+01    1.352496e+00
  2.156319e+01    1.405336e+00
  2.157906e+01    1.447765e+00
  2.159494e+01    1.503481e+00
  2.161081e+01    1.552016e+00
  2.162669e+01    1.669935e+00
  2.164256e+01    1.751755e+00
  2.165844e+01    1.881603e+00
  2.167431e+01    2.046596e+00
  2.169019e+01    2.195683e+00
  2.170607e+01    2.399688e+00
  2.172194e+01    2.692164e+00
  2.173782e+01    3.000191e+00
  2.175369e+01    3.424770e+00
  2.176957e+01    3.893761e+00
  2.178544e+01    4.457100e+00
  2.180132e+01    5.154228e+00
  2.181719e+01    5.926439e+00
  2.183307e+01    6.649756e+00
  2.184895e+01    7.444816e+00
  2.186482e+01    8.135185e+00
  2.188070e+01    9.041226e+00
  2.189657e+01    9.707294e+00
  2.191245e+01    1.011939e+01
  2.192832e+01    1.016645e+01
  2.194420e+01    9.773730e+00
  2.196007e+01    9.036568e+00
  2.197595e+01    7.978982e+00
  2.199183e+01    6.803530e+00
  2.200770e+01    5.752763e+00
  2.202358e+01    4.865535e+00
  2.203945e+01    4.139518e+00
  2.205533e+01    3.560647e+00
  2.207120e+01    3.118996e+00
  2.208708e+01    2.731838e+00
  2.210296e+01    2.435127e+00
  2.211883e+01    2.241200e+00
  2.213471e+01    2.069764e+00
  2.215058e+01    1.904957e+00
  2.216646e+01    1.774860e+00
  2.218233e+01    1.639753e+00
  2.219821e+01    1.570853e+00
  2.221408e+01    1.502807e+00
  2.222996e+01    1.428123e+00
  2.224584e+01    1.390807e+00
  2.226171e+01    1.302294e+00
  2.227759e+01    1.273137e+00
  2.229346e+01    1.261215e+00
  2.230934e+01    1.224745e+00
  2.232521e+01    1.226289e+00
  2.234109e+01    1.179865e+00
  2.235696e+01    1.128680e+00
  2.237284e+01    1.126329e+00
  2.238872e+01    1.133965e+00
  2.240459e+01    1.117388e+00
  2.242047e+01    1.088736e+00
  2.243634e+01    1.084865e+00
  2.245222e+01    1.091399e+00
  2.246809e+01    1.084973e+00
  2.248397e+01    1.048283e+00
  2.249984e+01    1.043030e+00
  2.251572e+01    1.049972e+00
  2.253160e+01    1.038138e+00
  2.254747e+01    1.011805e+00
  2.256335e+01    1.000590e+00
  2.257922e+01    1.004129e+00
  2.259510e+01    9.912469e-01
  2.261097e+01    9.942027e-01
  2.262685e+01    9.786562e-01
  2.264272e+01    9.781376e-01
  2.265860e+01    9.604680e-01
  2.267448e+01    9.656660e-01
  2.269035e+01    9.855216e-01
  2.270623e+01    9.725335e-01
  2.272210e+01    9.549950e-01
  2.273798e+01    9.492803e-01
  2.275385e+01    9.508613e-01
  2.276973e+01    9.490790e-01
  2.278560e+01    9.511677e-01
  2.280148e+01    9.294925e-01
  2.281736e+01    9.265913e-01
  2.283323e+01    9.166639e-01
  2.284911e+01    9.265355e-01
  2.286498e+01    9.236181e-01
  2.288086e+01    9.142357e-01
  2.289673e+01    9.112562e-01
  2.291261e+01    9.264805e-01
  2.292848e+01    8.963548e-01
  2.294436e+01    9.094233e-01
  2.296024e+01    9.245260e-01
  2.297611e+01    9.003167e-01
  2.299199e+01    8.913264e-01
  2.300786e+01    9.021880e-01
  2.302374e+01    8.827615e-01
  2.303961e+01    8.759598e-01
  2.305549e+01    8.756372e-01
  2.307137e+01    8.838829e-01
  2.308724e+01    8.822427e-01
  2.310312e+01    8.905758e-01
  2.311899e+01    8.897400e-01
  2.313487e+01    8.905866e-01
  2.315074e+01    8.797343e-01
  2.316662e+01    8.827440e-01
  2.318249e+01    8.704114e-01
  2.319837e+01    8.920810e-01
  2.321425e+01    8.840492e-01
  2.323012e+01    8.816327e-01
  2.324600e+01    8.743981e-01
  2.326187e+01    8.757499e-01
  2.327775e+01    8.677447e-01
  2.329362e+01    8.671587e-01
  2.330950e+01    8.559653e-01
  2.332537e+01    8.689995e-01
  2.334125e+01    8.630213e-01
  2.335713e+01    8.695988e-01
  2.337300e+01    8.873452e-01
  2.338888e+01    8.668329e-01
  2.340475e+01    8.417355e-01
  2.342063e+01    8.691379e-01
  2.343650e+01    8.898093e-01
  2.345238e+01    8.606616e-01
  2.346825e+01    8.420333e-01
  2.348413e+01    8.496191e-01
  2.350001e+01    8.410897e-01
  2.351588e+01    8.218442e-01
  2.353176e+01    8.379002e-01
  2.354763e+01    8.455575e-01
  2.356351e+01    8.484191e-01
  2.357938e+01    8.380708e-01
  2.359526e+01    8.399214e-01
  2.361113e+01    8.639757e-01
  2.362701e+01    8.579984e-01
  2.364289e+01    8.646353e-01
  2.365876e+01    8.431319e-01
  2.367464e+01    8.274309e-01
  2.369051e+01    8.327755e-01
  2.370639e+01    8.397879e-01
  2.372226e+01    8.143357e-01
  2.373814e+01    8.085181e-01
  2.375401e+01    8.345546e-01
  2.376989e+01    8.417469e-01
  2.378577e+01    8.230126e-01
  2.380164e+01    8.208658e-01
  2.381752e+01    8.126538e-01
  2.383339e+01    8.202857e-01
  2.384927e+01    7.956235e-01
  2.386514e+01    7.836009e-01
  2.388102e+01    7.929784e-01
  2.389689e+01    7.930163e-01
  2.391277e+01    7.990745e-01
  2.392865e+01    8.133395e-01
  2.394452e+01    8.159062e-01
  2.396040e+01    8.112236e-01
  2.397627e+01    7.916551e-01
  2.399215e+01    7.991880e-01
  2.400802e+01    7.963762e-01
  2.402390e+01    8.047947e-01
  2.403978e+01    7.923506e-01
  2.405565e+01    7.813468e-01
  2.407153e+01    7.901936e-01
  2.408740e+01    7.906467e-01
  2.410328e+01    7.915767e-01
  2.411915e+01    7.762764e-01
  2.413503e+01    7.744523e-01
  2.415090e+01    7.945898e-01
  2.416678e+01    7.943170e-01
  2.418266e+01    7.983373e-01
  2.419853e+01    7.920148e-01
  2.421441e+01    7.868172e-01
  2.423028e+01    7.902663e-01
  2.424616e+01    8.000035e-01
  2.426203e+01    7.927640e-01
  2.427791e+01    7.761186e-01
  2.429378e+01    7.808412e-01
  2.430966e+01    7.667938e-01
  2.432554e+01    7.751925e-01
  2.434141e+01    7.691444e-01
  2.435729e+01    7.748496e-01
  2.437316e+01    7.934409e-01
  2.438904e+01    7.863305e-01
  2.440491e+01    8.069555e-01
  2.442079e+01    8.062311e-01
  2.443666e+01    8.066955e-01
  2.445254e+01    8.031822e-01
  2.446842e+01    7.982199e-01
  2.448429e+01    7.848485e-01
  2.450017e+01    7.894766e-01
  2.451604e+01    7.878233e-01
  2.453192e+01    7.871048e-01
  2.454779e+01    7.987996e-01
  2.456367e+01    7.957942e-01
  2.457954e+01    7.996649e-01
  2.459542e+01    7.989503e-01
  2.461130e+01    7.923078e-01
  2.462717e+01    7.842515e-01
  2.464305e+01    7.881219e-01
  2.465892e+01    8.091336e-01
  2.467480e+01    8.095497e-01
  2.469067e+01    7.847153e-01
  2.470655e+01    7.935050e-01
  2.472242e+01    7.890080e-01
  2.473830e+01    7.926186e-01
  2.475418e+01    7.838538e-01
  2.477005e+01    7.927321e-01
  2.478593e+01    7.823187e-01
  2.480180e+01    7.939345e-01
  2.481768e+01    8.095334e-01
  2.483355e+01    7.934818e-01
  2.484943e+01    7.889125e-01
  2.486530e+01    8.047926e-01
  2.488118e+01    7.983888e-01
  2.489706e+01    8.111479e-01
  2.491293e+01    7.981210e-01
  2.492881e+01    8.029752e-01
  2.494468e+01    7.976326e-01
  2.496056e+01    7.883403e-01
  2.497643e+01    8.093103e-01
  2.499231e+01    8.300066e-01
  2.500819e+01    8.010513e-01
  2.502406e+01    7.923985e-01
  2.503994e+01    8.153523e-01
  2.505581e+01    8.220502e-01
  2.507169e+01    8.333502e-01
  2.508756e+01    8.140753e-01
  2.510344e+01    8.095140e-01
  2.511931e+01    8.183337e-01
  2.513519e+01    8.155630e-01
  2.515107e+01    8.250694e-01
  2.516694e+01    8.255614e-01
  2.518282e+01    8.315241e-01
  2.519869e+01    8.320355e-01
  2.521457e+01    8.460982e-01
  2.523044e+01    8.516536e-01
  2.524632e+01    8.479494e-01
  2.526219e+01    8.617750e-01
  2.527807e+01    8.498626e-01
  2.529395e+01    8.377703e-01
  2.530982e+01    8.753141e-01
  2.532570e+01    8.775018e-01
  2.534157e+01    8.613015e-01
  2.535745e+01    8.788675e-01
  2.537332e+01    9.092727e-01
  2.538920e+01    9.027883e-01
  2.540507e+01    8.950024e-01
  2.542095e+01    9.057923e-01
  2.543683e+01    9.259973e-01
  2.545270e+01    9.239570e-01
  2.546858e+01    9.354277e-01
  2.548445e+01    9.709688e-01
  2.550033e+01    9.653307e-01
  2.551620e+01    9.726112e-01
  2.553208e+01    9.921954e-01
  2.554795e+01    1.031633e+00
  2.556383e+01    1.055976e+00
  2.557971e+01    1.073490e+00
  2.559558e+01    1.070114e+00
  2.561146e+01    1.101807e+00
  2.562733e+01    1.156642e+00
  2.564321e+01    1.182049e+00
  2.565908e+01    1.228493e+00
  2.567496e+01    1.284927e+00
  2.569083e+01    1.348525e+00
  2.570671e+01    1.437802e+00
  2.572259e+01    1.521967e+00
  2.573846e+01    1.646465e+00
  2.575434e+01    1.755006e+00
  2.577021e+01    1.914179e+00
  2.578609e+01    2.114499e+00
  2.580196e+01    2.386901e+00
  2.581784e+01    2.632836e+00
  2.583371e+01    2.965297e+00
  2.584959e+01    3.382050e+00
  2.586547e+01    3.934255e+00
  2.588134e+01    4.585907e+00
  2.589722e+01    5.199261e+00
  2.591309e+01    5.869818e+00
  2.592897e+01    6.639826e+00
  2.594484e+01    7.314097e+00
  2.596072e+01    7.977486e+00
  2.597660e+01    8.284486e+00
  2.599247e+01    8.360744e+00
  2.600835e+01    8.224093e+00
  2.602422e+01    7.683268e+00
  2.604010e+01    6.895142e+00
  2.605597e+01    6.060903e+00
  2.607185e+01    5.207541e+00
  2.608772e+01    4.413056e+00
  2.610360e+01    3.785933e+00
  2.611948e+01    3.245644e+00
  2.613535e+01    2.860456e+00
  2.615123e+01    2.533409e+00
  2.616710e+01    2.210148e+00
  2.618298e+01    1.988258e+00
  2.619885e+01    1.832261e+00
  2.621473e+01    1.701457e+00
  2.623060e+01    1.597773e+00
  2.624648e+01    1.499665e+00
  2.626236e+01    1.434014e+00
  2.627823e+01    1.330480e+00
  2.629411e+01    1.268698e+00
  2.630998e+01    1.211912e+00
  2.632586e+01    1.149752e+00
  2.634173e+01    1.134393e+00
  2.635761e+01    1.113227e+00
  2.637348e+01    1.088952e+00
  2.638936e+01    1.084335e+00
  2.640524e+01    1.033304e+00
  2.642111e+01    1.025673e+00
  2.643699e+01    1.022791e+00
  2.645286e+01    9.946342e-01
  2.646874e+01    9.787358e-01
  2.648461e+01    9.781290e-01
  2.650049e+01    9.645525e-01
  2.651636e+01    9.476717e-01
  2.653224e+01    9.553241e-01
  2.654812e+01    9.371871e-01
  2.656399e+01    9.362915e-01
  2.657987e+01    9.359480e-01
  2.659574e+01    9.332907e-01
  2.661162e+01    9.237027e-01
  2.662749e+01    9.206433e-01
  2.664337e+01    9.144482e-01
  2.665924e+01    9.273898e-01
  2.667512e+01    8.994139e-01
  2.669100e+01    9.013810e-01
  2.670687e+01    8.987619e-01
  2.672275e+01    9.108606e-01
  2.673862e+01    9.072357e-01
  2.675450e+01    9.041632e-01
  2.677037e+01    9.034303e-01
  2.678625e+01    9.024518e-01
  2.680212e+01    9.014403e-01
  2.681800e+01    8.964001e-01
  2.683388e+01    9.223672e-01
  2.684975e+01    9.270588e-01
  2.686563e+01    9.096069e-01
  2.688150e+01    9.249240e-01
  2.689738e+01    9.118427e-01
  2.691325e+01    9.116459e-01
  2.692913e+01    9.221501e-01
  2.694501e+01    9.418306e-01
  2.696088e+01    9.374089e-01
  2.697676e+01    9.606311e-01
  2.699263e+01    9.761412e-01
  2.700851e+01    1.028542e+00
  2.702438e+01    1.050001e+00
  2.704026e+01    1.082703e+00
  2.705613e+01    1.118733e+00
  2.707201e+01    1.151867e+00
  2.708789e+01    1.204834e+00
  2.710376e+01    1.287488e+00
  2.711964e+01    1.382659e+00
  2.713551e+01    1.522022e+00
  2.715139e+01    1.655820e+00
  2.716726e+01    1.792115e+00
  2.718314e+01    1.951133e+00
  2.719901e+01    2.151672e+00
  2.721489e+01    2.299571e+00
  2.723077e+01    2.400330e+00
  2.724664e+01    2.450050e+00
  2.726252e+01    2.399409e+00
  2.727839e+01    2.345366e+00
  2.729427e+01    2.185860e+00
  2.731014e+01    2.024839e+00
  2.732602e+01    1.843503e+00
  2.734189e+01    1.686486e+00
  2.735777e+01    1.542677e+00
  2.737365e+01    1.408517e+00
  2.738952e+01    1.321188e+00
  2.740540e+01    1.210243e+00
  2.742127e+01    1.148588e+00
  2.743715e+01    1.097575e+00
  2.745302e+01    1.052822e+00
  2.746890e+01    1.026135e+00
  2.748477e+01    9.916443e-01
  2.750065e+01    9.758001e-01
  2.751653e+01    9.677390e-01
  2.753240e+01    9.368153e-01
  2.754828e+01    9.169676e-01
  2.756415e+01    9.113163e-01
  2.758003e+01    8.860766e-01
  2.759590e+01    8.726693e-01
  2.761178e+01    8.623480e-01
  2.762765e+01    8.555335e-01
  2.764353e+01    8.507403e-01
  2.765941e+01    8.518944e-01
  2.767528e+01    8.553098e-01
  2.769116e+01    8.322359e-01
  2.770703e+01    8.526140e-01
  2.772291e+01    8.554350e-01
  2.773878e+01    8.357983e-01
  2.775466e+01    8.315825e-01
  2.777054e+01    8.078848e-01
  2.778641e+01    7.983747e-01
  2.780229e+01    8.329529e-01
  2.781816e+01    8.120546e-01
  2.783404e+01    7.946110e-01
  2.784991e+01    8.169043e-01
  2.786579e+01    8.112939e-01
  2.788166e+01    7.994180e-01
  2.789754e+01    8.225407e-01
  2.791342e+01    8.182788e-01
  2.792929e+01    8.192198e-01
  2.794517e+01    8.031883e-01
  2.796104e+01    8.137102e-01
  2.797692e+01    7.880633e-01
  2.799279e+01    7.952238e-01
  2.800867e+01    7.925388e-01
  2.802454e+01    8.079182e-01
  2.804042e+01    7.928390e-01
  2.805630e+01    7.945252e-01
  2.807217e+01    7.866868e-01
  2.808805e+01    7.933397e-01
  2.810392e+01    7.971854e-01
  2.811980e+01    7.847083e-01
  2.813567e+01    7.928632e-01
  2.815155e+01    7.974889e-01
  2.816742e+01    7.839432e-01
  2.818330e+01    7.888637e-01
  2.819918e+01    7.931733e-01
  2.821505e+01    7.807906e-01
  2.823093e+01    7.770873e-01
  2.824680e+01    7.768215e-01
  2.826268e+01    7.648054e-01
  2.827855e+01    7.762375e-01
  2.829443e+01    7.742254e-01
  2.831030e+01    7.927738e-01
  2.832618e+01    7.880872e-01
  2.834206e+01    7.757762e-01
  2.835793e+01    7.558138e-01
  2.837381e+01    7.488347e-01
  2.838968e+01    7.690040e-01
  2.840556e+01    7.653008e-01
  2.842143e+01    7.646501e-01
  2.843731e+01    7.568838e-01
  2.845318e+01    7.584712e-01
  2.846906e+01    7.669230e-01
  2.848494e+01    7.561501e-01
  2.850081e+01    7.638244e-01
  2.851669e+01    7.551160e-01
  2.853256e+01    7.387867e-01
  2.854844e+01    7.557597e-01
  2.856431e+01    7.580621e-01
  2.858019e+01    7.496468e-01
  2.859606e+01    7.565963e-01
  2.861194e+01    7.563001e-01
  2.862782e+01    7.534954e-01
  2.864369e+01    7.733046e-01
  2.865957e+01    7.618831e-01
  2.867544e+01    7.419033e-01
  2.869132e+01    7.611390e-01
  2.870719e+01    7.642764e-01
  2.872307e+01    7.521968e-01
  2.873895e+01    7.583969e-01
  2.875482e+01    7.604896e-01
  2.877070e+01    7.469105e-01
  2.878657e+01    7.401782e-01
  2.880245e+01    7.461188e-01
  2.881832e+01    7.368163e-01
  2.883420e+01    7.387229e-01
  2.885007e+01    7.319713e-01
  2.886595e+01    7.367949e-01
  2.888183e+01    7.585775e-01
  2.889770e+01    7.559163e-01
  2.891358e+01    7.546207e-01
  2.892945e+01    7.565256e-01
  2.894533e+01    7.299385e-01
  2.896120e+01    7.336503e-01
  2.897708e+01    7.577136e-01
  2.899295e+01    7.432771e-01
  2.900883e+01    7.518330e-01
  2.902471e+01    7.328720e-01
  2.904058e+01    7.275184e-01
  2.905646e+01    7.337964e-01
  2.907233e+01    7.312706e-01
  2.908821e+01    7.268521e-01
  2.910408e+01    7.405155e-01
  2.911996e+01    7.530693e-01
  2.913583e+01    7.578658e-01
  2.915171e+01    7.502023e-01
  2.916759e+01    7.354676e-01
  2.918346e+01    7.308356e-01
  2.919934e+01    7.164330e-01
  2.921521e+01    7.232468e-01
  2.923109e+01    7.357515e-01
  2.924696e+01    7.214764e-01
  2.926284e+01    7.245473e-01
  2.927871e+01    7.257493e-01
  2.929459e+01    7.272266e-01
  2.931047e+01    7.555044e-01
  2.932634e+01    7.205793e-01
  2.934222e+01    7.075591e-01
  2.935809e+01    7.463966e-01
  2.937397e+01    7.602809e-01
  2.938984e+01    7.528410e-01
  2.940572e+01    7.435569e-01
  2.942159e+01    7.188045e-01
  2.943747e+01    7.335367e-01
  2.945335e+01    7.148253e-01
  2.946922e+01    7.339557e-01
  2.948510e+01    7.441951e-01
  2.950097e+01    7.091172e-01
  2.951685e+01    7.151121e-01
  2.953272e+01    7.073041e-01
  2.954860e+01    7.162441e-01
  2.956447e+01    7.313554e-01
  2.958035e+01    7.108638e-01
  2.959623e+01    6.988226e-01
  2.961210e+01    7.228464e-01
  2.962798e+01    7.312032e-01
  2.964385e+01    7.108085e-01
  2.965973e+01    7.303112e-01
  2.967560e+01    7.455189e-01
  2.969148e+01    7.322785e-01
  2.970736e+01    7.414986e-01
  2.972323e+01    7.134842e-01
  2.973911e+01    7.347800e-01
  2.975498e+01    7.281681e-01
  2.977086e+01    7.108278e-01
  2.978673e+01    7.285246e-01
  2.980261e+01    7.207268e-01
  2.981848e+01    6.985846e-01
  2.983436e+01    6.959609e-01
  2.985024e+01    7.309737e-01
  2.986611e+01    7.319657e-01
  2.988199e+01    7.302390e-01
  2.989786e+01    7.191091e-01
  2.991374e+01    7.360624e-01
  2.992961e+01    7.294160e-01
  2.994549e+01    7.339377e-01
  2.996136e+01    7.288353e-01
  2.997724e+01    7.272161e-01
  2.999312e+01    7.280483e-01
  3.000899e+01    7.251292e-01
  3.002487e+01    7.284999e-01
  3.004074e+01    7.573566e-01
  3.005662e+01    7.467300e-01
  3.007249e+01    7.453535e-01
  3.008837e+01    7.446634e-01
  3.010424e+01    7.470394e-01
  3.012012e+01    7.269748e-01
  3.013600e+01    7.084607e-01
  3.015187e+01    7.101978e-01
  3.016775e+01    7.093121e-01
  3.018362e+01    7.125192e-01
  3.019950e+01    7.129070e-01
  3.021537e+01    7.227323e-01
  3.023125e+01    7.239724e-01
  3.024712e+01    7.232467e-01
  3.026300e+01    7.251281e-01
  3.027888e+01    7.314626e-01
  3.029475e+01    7.276564e-01
  3.031063e+01    7.163211e-01
  3.032650e+01    7.185541e-01
  3.034238e+01    7.061882e-01
  3.035825e+01    7.175936e-01
  3.037413e+01    7.263347e-01
  3.039000e+01    7.280008e-01
  3.040588e+01    7.260539e-01
  3.042176e+01    7.403871e-01
  3.043763e+01    7.323031e-01
  3.045351e+01    7.110200e-01
  3.046938e+01    7.219880e-01
  3.048526e+01    6.994877e-01
  3.050113e+01    7.005193e-01
  3.051701e+01    6.968402e-01
  3.053288e+01    7.129413e-01
  3.054876e+01    7.184861e-01
  3.056464e+01    7.054028e-01
  3.058051e+01    7.156031e-01
  3.059639e+01    7.251110e-01
  3.061226e+01    7.307237e-01
  3.062814e+01    7.233453e-01
  3.064401e+01    7.237194e-01
  3.065989e+01    7.084160e-01
  3.067577e+01    7.131851e-01
  3.069164e+01    7.326027e-01
  3.070752e+01    7.185664e-01
  3.072339e+01    7.182281e-01
  3.073927e+01    7.149639e-01
  3.075514e+01    7.126193e-01
  3.077102e+01    7.130166e-01
  3.078689e+01    7.217872e-01
  3.080277e+01    7.119724e-01
  3.081865e+01    7.129301e-01
  3.083452e+01    7.062478e-01
  3.085040e+01    6.967775e-01
  3.086627e+01    6.941949e-01
  3.088215e+01    6.894579e-01
  3.089802e+01    7.120625e-01
  3.091390e+01    7.306852e-01
  3.092977e+01    7.231033e-01
  3.094565e+01    7.186946e-01
  3.096153e+01    7.167941e-01
  3.097740e+01    7.274191e-01
  3.099328e+01    7.152568e-01
  3.100915e+01    7.162222e-01
  3.102503e+01    7.330569e-01
  3.104090e+01    7.409304e-01
  3.105678e+01    7.150106e-01
  3.107265e+01    7.256811e-01
  3.108853e+01    7.229072e-01
  3.110441e+01    7.186732e-01
  3.112028e+01    7.285745e-01
  3.113616e+01    7.083055e-01
  3.115203e+01    7.207196e-01
  3.116791e+01    7.301490e-01
  3.118378e+01    7.251836e-01
  3.119966e+01    7.207312e-01
  3.121553e+01    7.239105e-01
  3.123141e+01    7.236226e-01
  3.124729e+01    7.325007e-01
  3.126316e+01    7.295712e-01
  3.127904e+01    7.203370e-01
  3.129491e+01    7.308244e-01
  3.131079e+01    7.031458e-01
  3.132666e+01    7.250180e-01
  3.134254e+01    7.363089e-01
  3.135841e+01    7.351155e-01
  3.137429e+01    7.243065e-01
  3.139017e+01    7.271935e-01
  3.140604e+01    7.538064e-01
  3.142192e+01    7.636418e-01
  3.143779e+01    7.709472e-01
  3.145367e+01    7.558624e-01
  3.146954e+01    7.653725e-01
  3.148542e+01    7.573613e-01
  3.150129e+01    7.660704e-01
  3.151717e+01    7.613479e-01
  3.153305e+01    7.522998e-01
  3.154892e+01    7.856706e-01
  3.156480e+01    7.985851e-01
  3.158067e+01    8.195919e-01
  3.159655e+01    8.062153e-01
  3.161242e+01    8.039587e-01
  3.162830e+01    8.250653e-01
  3.164418e+01    8.332450e-01
  3.166005e+01    8.475299e-01
  3.167593e+01    8.549863e-01
  3.169180e+01    9.139975e-01
  3.170768e+01    9.579260e-01
  3.172355e+01    9.623649e-01
  3.173943e+01    9.881870e-01
  3.175530e+01    1.044344e+00
  3.177118e+01    1.102943e+00
  3.178706e+01    1.155015e+00
  3.180293e+01    1.234307e+00
  3.181881e+01    1.351211e+00
  3.183468e+01    1.503530e+00
  3.185056e+01    1.674969e+00
  3.186643e+01    1.835894e+00
  3.188231e+01    1.962730e+00
  3.189818e+01    2.115070e+00
  3.191406e+01    2.278173e+00
  3.192994e+01    2.420587e+00
  3.194581e+01    2.405926e+00
  3.196169e+01    2.349097e+00
  3.197756e+01    2.273218e+00
  3.199344e+01    2.117861e+00
  3.200931e+01    1.946724e+00
  3.202519e+01    1.756238e+00
  3.204106e+01    1.597080e+00
  3.205694e+01    1.429537e+00
  3.207282e+01    1.296133e+00
  3.208869e+01    1.182373e+00
  3.210457e+01    1.113791e+00
  3.212044e+01    1.077327e+00
  3.213632e+01    1.006805e+00
  3.215219e+01    9.740669e-01
  3.216807e+01    9.402525e-01
  3.218394e+01    8.944820e-01
  3.219982e+01    8.539063e-01
  3.221570e+01    8.686153e-01
  3.223157e+01    8.466344e-01
  3.224745e+01    8.068553e-01
  3.226332e+01    8.298162e-01
  3.227920e+01    8.287957e-01
  3.229507e+01    7.856899e-01
  3.231095e+01    7.702547e-01
  3.232682e+01    7.617923e-01
  3.234270e+01    7.562328e-01
  3.235858e+01    7.694107e-01
  3.237445e+01    7.729054e-01
  3.239033e+01    7.523442e-01
  3.240620e+01    7.305076e-01
  3.242208e+01    7.082611e-01
  3.243795e+01    7.416714e-01
  3.245383e+01    7.524363e-01
  3.246970e+01    7.489774e-01
  3.248558e+01    7.347143e-01
  3.250146e+01    7.661730e-01
  3.251733e+01    7.483177e-01
  3.253321e+01    7.300619e-01
  3.254908e+01    7.302670e-01
