# == pyFAI calibration ==
# Distance Sample to Detector: 0.3999999939076516 m
# PONI: 9.750e-02, 1.135e-01 m
# Rotations: -0.000175 0.000000 -0.000000 rad
# 
# == Fit2d calibration ==
# Distance Sample-beamCenter: 400.000 mm
# Center: x=1514.000, y=1300.000 pix
# Tilt: 0.010 deg  TiltPlanRot: 0.010 deg
# 
# Detector Detector	 Spline= None	 PixelSize= 7.500e-05, 7.500e-05 m
#    Detector has a mask: False 
#    Detector has a dark current: False 
#    detector has a flat field: False 
# 
# Wavelength: 6.888e-11 m
# Mask applied: user provided
# Dark current applied: False
# Flat field applied: False
# Polarization factor: 0.99
# Normalization factor: 1.0
# --> /home/myspot/data/2024_07_Rosario/Ru-CGO-ex/2024-07-27_002_Ru-CGO-ex_Activtation_ramp_000002_data_000158.dat
#       q_nm^-1             I 
  2.003187e-02    2.849293e-01
  3.590745e-02    0.000000e+00
  5.178302e-02    0.000000e+00
  6.765859e-02    4.685424e-02
  8.353417e-02    9.268984e-02
  9.940974e-02    7.473119e-02
  1.152853e-01    6.042184e-02
  1.311609e-01    1.873366e-02
  1.470365e-01    0.000000e+00
  1.629120e-01    0.000000e+00
  1.787876e-01    0.000000e+00
  1.946632e-01    9.237427e-03
  2.105388e-01    4.971413e-02
  2.264143e-01    8.016006e-02
  2.422899e-01    2.647253e-02
  2.581655e-01    4.150409e-02
  2.740411e-01    5.912643e-02
  2.899166e-01    5.848018e-02
  3.057922e-01    1.685017e-02
  3.216678e-01    2.687710e-02
  3.375433e-01    3.862917e-02
  3.534189e-01    5.156047e-02
  3.692945e-01    2.382869e-02
  3.851701e-01    8.028180e-02
  4.010456e-01    4.401355e-02
  4.169212e-01    1.841838e-02
  4.327968e-01    2.621594e-02
  4.486724e-01    3.313366e-02
  4.645479e-01    3.033686e-02
  4.804235e-01    3.054036e-02
  4.962991e-01    2.031904e-02
  5.121747e-01    4.449211e-02
  5.280502e-01    3.080495e-02
  5.439258e-01    4.123700e-02
  5.598014e-01    5.590189e-02
  5.756770e-01    2.794146e-02
  5.915525e-01    2.731590e-02
  6.074281e-01    5.218145e-02
  6.233037e-01    2.462744e-02
  6.391793e-01    3.977585e-02
  6.550548e-01    5.696993e-02
  6.709304e-01    2.809879e-02
  6.868060e-01    2.163619e-02
  7.026815e-01    3.132349e-02
  7.185571e-01    3.017893e-02
  7.344327e-01    3.092550e-02
  7.503083e-01    2.988060e-02
  7.661838e-01    4.933502e-02
  7.820594e-01    7.769077e-02
  7.979350e-01    1.322504e-01
  8.138106e-01    2.160738e-01
  8.296861e-01    2.965598e-01
  8.455617e-01    3.368014e-01
  8.614373e-01    3.944306e-01
  8.773129e-01    4.267261e-01
  8.931884e-01    4.828341e-01
  9.090640e-01    5.684960e-01
  9.249396e-01    7.331634e-01
  9.408152e-01    7.299939e-01
  9.566907e-01    7.909763e-01
  9.725663e-01    8.432972e-01
  9.884419e-01    9.468696e-01
  1.004317e+00    1.165741e+00
  1.020193e+00    1.103946e+00
  1.036069e+00    1.167364e+00
  1.051944e+00    1.203906e+00
  1.067820e+00    1.197597e+00
  1.083695e+00    1.259114e+00
  1.099571e+00    1.370770e+00
  1.115446e+00    1.454214e+00
  1.131322e+00    1.419717e+00
  1.147198e+00    1.466214e+00
  1.163073e+00    1.495238e+00
  1.178949e+00    1.487936e+00
  1.194824e+00    1.538365e+00
  1.210700e+00    1.744718e+00
  1.226575e+00    2.110312e+00
  1.242451e+00    2.340128e+00
  1.258327e+00    2.328242e+00
  1.274202e+00    2.311950e+00
  1.290078e+00    2.395241e+00
  1.305953e+00    2.525089e+00
  1.321829e+00    2.523358e+00
  1.337705e+00    2.473803e+00
  1.353580e+00    2.523646e+00
  1.369456e+00    2.637993e+00
  1.385331e+00    2.617798e+00
  1.401207e+00    2.562829e+00
  1.417082e+00    2.541549e+00
  1.432958e+00    2.607212e+00
  1.448834e+00    2.767383e+00
  1.464709e+00    2.801675e+00
  1.480585e+00    2.857531e+00
  1.496460e+00    2.902032e+00
  1.512336e+00    2.953980e+00
  1.528211e+00    2.900177e+00
  1.544087e+00    2.841693e+00
  1.559963e+00    2.911862e+00
  1.575838e+00    2.887109e+00
  1.591714e+00    2.951440e+00
  1.607589e+00    2.955028e+00
  1.623465e+00    2.836213e+00
  1.639340e+00    2.786295e+00
  1.655216e+00    2.774987e+00
  1.671092e+00    2.840070e+00
  1.686967e+00    2.733947e+00
  1.702843e+00    2.784581e+00
  1.718718e+00    2.782205e+00
  1.734594e+00    2.773042e+00
  1.750469e+00    2.710509e+00
  1.766345e+00    2.748506e+00
  1.782221e+00    2.817152e+00
  1.798096e+00    2.773212e+00
  1.813972e+00    2.732528e+00
  1.829847e+00    2.801485e+00
  1.845723e+00    2.931858e+00
  1.861598e+00    2.923909e+00
  1.877474e+00    2.805544e+00
  1.893350e+00    2.686637e+00
  1.909225e+00    2.624671e+00
  1.925101e+00    2.839060e+00
  1.940976e+00    2.755883e+00
  1.956852e+00    2.645061e+00
  1.972727e+00    2.737528e+00
  1.988603e+00    2.771698e+00
  2.004479e+00    2.696806e+00
  2.020354e+00    2.611879e+00
  2.036230e+00    2.718319e+00
  2.052105e+00    2.775748e+00
  2.067981e+00    2.686180e+00
  2.083856e+00    2.727262e+00
  2.099732e+00    2.653263e+00
  2.115608e+00    2.682098e+00
  2.131483e+00    2.709956e+00
  2.147359e+00    2.761611e+00
  2.163234e+00    2.773955e+00
  2.179110e+00    2.753456e+00
  2.194985e+00    2.816318e+00
  2.210861e+00    2.796986e+00
  2.226737e+00    2.793653e+00
  2.242612e+00    2.708863e+00
  2.258488e+00    2.632884e+00
  2.274363e+00    2.619163e+00
  2.290239e+00    2.649129e+00
  2.306115e+00    2.819081e+00
  2.321990e+00    2.862612e+00
  2.337866e+00    2.815933e+00
  2.353741e+00    2.810828e+00
  2.369617e+00    2.713726e+00
  2.385492e+00    2.675301e+00
  2.401368e+00    2.692026e+00
  2.417244e+00    2.708347e+00
  2.433119e+00    2.704055e+00
  2.448995e+00    2.706008e+00
  2.464870e+00    2.720476e+00
  2.480746e+00    2.778039e+00
  2.496621e+00    2.724685e+00
  2.512497e+00    2.762686e+00
  2.528373e+00    2.777637e+00
  2.544248e+00    2.741436e+00
  2.560124e+00    2.827667e+00
  2.575999e+00    2.809185e+00
  2.591875e+00    2.814646e+00
  2.607750e+00    2.800207e+00
  2.623626e+00    2.712938e+00
  2.639502e+00    2.781131e+00
  2.655377e+00    2.850252e+00
  2.671253e+00    2.888794e+00
  2.687128e+00    2.867710e+00
  2.703004e+00    2.807955e+00
  2.718879e+00    2.853551e+00
  2.734755e+00    2.934966e+00
  2.750631e+00    2.788025e+00
  2.766506e+00    2.779828e+00
  2.782382e+00    2.759217e+00
  2.798257e+00    2.784606e+00
  2.814133e+00    2.876869e+00
  2.830008e+00    2.898517e+00
  2.845884e+00    2.877585e+00
  2.861760e+00    2.891083e+00
  2.877635e+00    2.891760e+00
  2.893511e+00    2.900532e+00
  2.909386e+00    2.856190e+00
  2.925262e+00    2.904435e+00
  2.941137e+00    2.869649e+00
  2.957013e+00    2.834031e+00
  2.972889e+00    2.914502e+00
  2.988764e+00    2.896151e+00
  3.004640e+00    2.913889e+00
  3.020515e+00    2.963586e+00
  3.036391e+00    2.856707e+00
  3.052266e+00    2.834992e+00
  3.068142e+00    2.800889e+00
  3.084018e+00    2.847310e+00
  3.099893e+00    2.922863e+00
  3.115769e+00    2.914727e+00
  3.131644e+00    2.840429e+00
  3.147520e+00    2.898521e+00
  3.163395e+00    2.895301e+00
  3.179271e+00    2.903898e+00
  3.195147e+00    2.885942e+00
  3.211022e+00    2.802336e+00
  3.226898e+00    2.849156e+00
  3.242773e+00    2.815762e+00
  3.258649e+00    2.863474e+00
  3.274525e+00    2.885013e+00
  3.290400e+00    2.941924e+00
  3.306276e+00    2.911607e+00
  3.322151e+00    2.918092e+00
  3.338027e+00    2.896599e+00
  3.353902e+00    2.952855e+00
  3.369778e+00    2.931334e+00
  3.385654e+00    2.916767e+00
  3.401529e+00    2.976297e+00
  3.417405e+00    2.965577e+00
  3.433280e+00    2.966043e+00
  3.449156e+00    3.024560e+00
  3.465031e+00    2.964912e+00
  3.480907e+00    3.055847e+00
  3.496783e+00    2.950748e+00
  3.512658e+00    2.984364e+00
  3.528534e+00    2.969293e+00
  3.544409e+00    2.956178e+00
  3.560285e+00    3.078543e+00
  3.576160e+00    3.058187e+00
  3.592036e+00    2.978760e+00
  3.607912e+00    3.048056e+00
  3.623787e+00    3.040909e+00
  3.639663e+00    2.885802e+00
  3.655538e+00    2.960726e+00
  3.671414e+00    3.073345e+00
  3.687289e+00    2.992401e+00
  3.703165e+00    2.968680e+00
  3.719041e+00    2.985905e+00
  3.734916e+00    2.979908e+00
  3.750792e+00    2.970147e+00
  3.766667e+00    3.038322e+00
  3.782543e+00    3.017673e+00
  3.798418e+00    3.027733e+00
  3.814294e+00    3.046158e+00
  3.830170e+00    3.057344e+00
  3.846045e+00    3.001900e+00
  3.861921e+00    3.056665e+00
  3.877796e+00    3.031184e+00
  3.893672e+00    3.083513e+00
  3.909547e+00    3.014196e+00
  3.925423e+00    3.037170e+00
  3.941299e+00    2.986659e+00
  3.957174e+00    3.015922e+00
  3.973050e+00    3.016530e+00
  3.988925e+00    3.000253e+00
  4.004801e+00    3.046496e+00
  4.020676e+00    3.118290e+00
  4.036552e+00    3.062629e+00
  4.052428e+00    3.018496e+00
  4.068303e+00    3.001231e+00
  4.084179e+00    3.022874e+00
  4.100054e+00    3.139098e+00
  4.115930e+00    3.105994e+00
  4.131806e+00    3.051899e+00
  4.147681e+00    2.979485e+00
  4.163557e+00    2.970202e+00
  4.179432e+00    2.960273e+00
  4.195308e+00    3.016784e+00
  4.211183e+00    3.044026e+00
  4.227059e+00    3.007715e+00
  4.242935e+00    3.093399e+00
  4.258810e+00    3.110486e+00
  4.274686e+00    3.189148e+00
  4.290561e+00    3.085201e+00
  4.306437e+00    2.951632e+00
  4.322312e+00    2.961645e+00
  4.338188e+00    3.077872e+00
  4.354064e+00    3.041878e+00
  4.369939e+00    3.065069e+00
  4.385815e+00    3.164562e+00
  4.401690e+00    3.151791e+00
  4.417566e+00    3.097878e+00
  4.433441e+00    3.095680e+00
  4.449317e+00    3.061580e+00
  4.465193e+00    3.042009e+00
  4.481068e+00    3.132305e+00
  4.496944e+00    3.086297e+00
  4.512819e+00    3.042429e+00
  4.528695e+00    3.053224e+00
  4.544570e+00    3.089669e+00
  4.560446e+00    3.025414e+00
  4.576322e+00    3.064843e+00
  4.592197e+00    3.170965e+00
  4.608073e+00    3.037075e+00
  4.623948e+00    3.076818e+00
  4.639824e+00    3.132954e+00
  4.655699e+00    3.141214e+00
  4.671575e+00    3.170426e+00
  4.687451e+00    3.181920e+00
  4.703326e+00    3.108531e+00
  4.719202e+00    3.085533e+00
  4.735077e+00    3.051217e+00
  4.750953e+00    3.037542e+00
  4.766828e+00    3.088327e+00
  4.782704e+00    3.089413e+00
  4.798580e+00    3.109051e+00
  4.814455e+00    3.104547e+00
  4.830331e+00    3.124251e+00
  4.846206e+00    3.174253e+00
  4.862082e+00    3.151276e+00
  4.877957e+00    3.177046e+00
  4.893833e+00    3.189888e+00
  4.909709e+00    3.176497e+00
  4.925584e+00    3.177044e+00
  4.941460e+00    3.148485e+00
  4.957335e+00    3.140261e+00
  4.973211e+00    3.144879e+00
  4.989086e+00    3.202704e+00
  5.004962e+00    3.072180e+00
  5.020838e+00    3.060683e+00
  5.036713e+00    3.149240e+00
  5.052589e+00    3.141570e+00
  5.068464e+00    3.150839e+00
  5.084340e+00    3.143157e+00
  5.100216e+00    3.120386e+00
  5.116091e+00    3.126381e+00
  5.131967e+00    3.142257e+00
  5.147842e+00    3.186597e+00
  5.163718e+00    3.134599e+00
  5.179593e+00    3.110833e+00
  5.195469e+00    3.033530e+00
  5.211345e+00    3.079963e+00
  5.227220e+00    3.086469e+00
  5.243096e+00    3.153863e+00
  5.258971e+00    3.150748e+00
  5.274847e+00    3.203171e+00
  5.290722e+00    3.200593e+00
  5.306598e+00    3.254398e+00
  5.322474e+00    3.189509e+00
  5.338349e+00    3.122844e+00
  5.354225e+00    3.143376e+00
  5.370100e+00    3.095893e+00
  5.385976e+00    3.147917e+00
  5.401851e+00    3.172466e+00
  5.417727e+00    3.106453e+00
  5.433603e+00    3.068638e+00
  5.449478e+00    3.126276e+00
  5.465354e+00    3.147362e+00
  5.481229e+00    3.072736e+00
  5.497105e+00    3.054846e+00
  5.512980e+00    3.051789e+00
  5.528856e+00    3.093537e+00
  5.544732e+00    3.106240e+00
  5.560607e+00    3.012491e+00
  5.576483e+00    3.055051e+00
  5.592358e+00    3.088342e+00
  5.608234e+00    3.069501e+00
  5.624109e+00    3.127229e+00
  5.639985e+00    3.096407e+00
  5.655861e+00    3.034221e+00
  5.671736e+00    3.042543e+00
  5.687612e+00    3.058913e+00
  5.703487e+00    3.033280e+00
  5.719363e+00    3.118362e+00
  5.735238e+00    3.049940e+00
  5.751114e+00    3.043626e+00
  5.766990e+00    3.104695e+00
  5.782865e+00    3.077981e+00
  5.798741e+00    3.100689e+00
  5.814616e+00    3.048209e+00
  5.830492e+00    3.170569e+00
  5.846367e+00    3.065657e+00
  5.862243e+00    3.014890e+00
  5.878119e+00    3.039897e+00
  5.893994e+00    3.082020e+00
  5.909870e+00    3.051732e+00
  5.925745e+00    3.009353e+00
  5.941621e+00    2.981316e+00
  5.957497e+00    3.002534e+00
  5.973372e+00    2.959475e+00
  5.989248e+00    3.011139e+00
  6.005123e+00    3.052459e+00
  6.020999e+00    3.037779e+00
  6.036874e+00    3.027904e+00
  6.052750e+00    2.982276e+00
  6.068626e+00    3.086805e+00
  6.084501e+00    3.088025e+00
  6.100377e+00    3.128473e+00
  6.116252e+00    3.024634e+00
  6.132128e+00    3.105648e+00
  6.148003e+00    3.107532e+00
  6.163879e+00    3.093228e+00
  6.179755e+00    3.112167e+00
  6.195630e+00    3.096106e+00
  6.211506e+00    2.988181e+00
  6.227381e+00    3.037689e+00
  6.243257e+00    3.055624e+00
  6.259132e+00    3.042480e+00
  6.275008e+00    3.098056e+00
  6.290884e+00    3.037484e+00
  6.306759e+00    2.965092e+00
  6.322635e+00    3.010505e+00
  6.338510e+00    3.080035e+00
  6.354386e+00    3.031363e+00
  6.370261e+00    2.993293e+00
  6.386137e+00    3.021995e+00
  6.402013e+00    2.989524e+00
  6.417888e+00    3.026885e+00
  6.433764e+00    2.988436e+00
  6.449639e+00    3.025126e+00
  6.465515e+00    3.015204e+00
  6.481390e+00    3.070190e+00
  6.497266e+00    3.073552e+00
  6.513142e+00    3.049875e+00
  6.529017e+00    3.047950e+00
  6.544893e+00    3.045982e+00
  6.560768e+00    3.084148e+00
  6.576644e+00    3.072502e+00
  6.592519e+00    3.017715e+00
  6.608395e+00    3.011062e+00
  6.624271e+00    3.033764e+00
  6.640146e+00    3.016048e+00
  6.656022e+00    3.013388e+00
  6.671897e+00    3.062351e+00
  6.687773e+00    3.127176e+00
  6.703648e+00    3.074470e+00
  6.719524e+00    3.041319e+00
  6.735400e+00    3.081806e+00
  6.751275e+00    3.034636e+00
  6.767151e+00    3.001083e+00
  6.783026e+00    2.969531e+00
  6.798902e+00    3.002880e+00
  6.814777e+00    3.061115e+00
  6.830653e+00    2.998128e+00
  6.846529e+00    2.977652e+00
  6.862404e+00    3.027778e+00
  6.878280e+00    3.086426e+00
  6.894155e+00    3.045861e+00
  6.910031e+00    3.075761e+00
  6.925907e+00    3.020635e+00
  6.941782e+00    2.980801e+00
  6.957658e+00    3.024730e+00
  6.973533e+00    3.015290e+00
  6.989409e+00    3.027751e+00
  7.005284e+00    2.983969e+00
  7.021160e+00    3.009075e+00
  7.037036e+00    3.007341e+00
  7.052911e+00    3.025577e+00
  7.068787e+00    3.015409e+00
  7.084662e+00    3.069178e+00
  7.100538e+00    3.028966e+00
  7.116413e+00    3.048582e+00
  7.132289e+00    3.066904e+00
  7.148165e+00    3.057064e+00
  7.164040e+00    3.051665e+00
  7.179916e+00    3.094391e+00
  7.195791e+00    3.132392e+00
  7.211667e+00    3.052882e+00
  7.227542e+00    3.068124e+00
  7.243418e+00    3.004804e+00
  7.259294e+00    2.892875e+00
  7.275169e+00    2.952254e+00
  7.291045e+00    2.928642e+00
  7.306920e+00    2.959272e+00
  7.322796e+00    3.062428e+00
  7.338671e+00    3.036463e+00
  7.354547e+00    2.938002e+00
  7.370423e+00    3.015580e+00
  7.386298e+00    3.015514e+00
  7.402174e+00    2.973475e+00
  7.418049e+00    2.981865e+00
  7.433925e+00    2.953321e+00
  7.449800e+00    2.991833e+00
  7.465676e+00    2.964531e+00
  7.481552e+00    2.947438e+00
  7.497427e+00    3.005749e+00
  7.513303e+00    3.036068e+00
  7.529178e+00    2.920074e+00
  7.545054e+00    2.939220e+00
  7.560929e+00    2.962550e+00
  7.576805e+00    2.988683e+00
  7.592681e+00    2.980390e+00
  7.608556e+00    2.992213e+00
  7.624432e+00    2.953068e+00
  7.640307e+00    3.039156e+00
  7.656183e+00    2.985756e+00
  7.672058e+00    2.899459e+00
  7.687934e+00    2.929650e+00
  7.703810e+00    2.975689e+00
  7.719685e+00    2.963047e+00
  7.735561e+00    2.902986e+00
  7.751436e+00    2.928426e+00
  7.767312e+00    2.918061e+00
  7.783187e+00    2.955119e+00
  7.799063e+00    3.016429e+00
  7.814939e+00    2.985033e+00
  7.830814e+00    3.022119e+00
  7.846690e+00    2.994930e+00
  7.862565e+00    2.909338e+00
  7.878441e+00    2.954196e+00
  7.894317e+00    2.973784e+00
  7.910192e+00    2.967458e+00
  7.926068e+00    2.888816e+00
  7.941943e+00    2.910500e+00
  7.957819e+00    2.963828e+00
  7.973694e+00    2.976516e+00
  7.989570e+00    2.903060e+00
  8.005446e+00    2.929669e+00
  8.021321e+00    2.987399e+00
  8.037197e+00    2.913378e+00
  8.053072e+00    2.854654e+00
  8.068948e+00    2.960391e+00
  8.084823e+00    2.966710e+00
  8.100699e+00    2.941608e+00
  8.116575e+00    3.023549e+00
  8.132450e+00    2.966638e+00
  8.148326e+00    2.945319e+00
  8.164201e+00    2.929514e+00
  8.180077e+00    3.009257e+00
  8.195952e+00    3.039633e+00
  8.211828e+00    2.933764e+00
  8.227704e+00    2.894201e+00
  8.243579e+00    2.920717e+00
  8.259455e+00    2.979098e+00
  8.275330e+00    2.912964e+00
  8.291206e+00    2.889514e+00
  8.307081e+00    2.929473e+00
  8.322957e+00    2.967615e+00
  8.338833e+00    2.966601e+00
  8.354708e+00    2.948547e+00
  8.370584e+00    2.930580e+00
  8.386459e+00    2.982945e+00
  8.402335e+00    3.006726e+00
  8.418210e+00    2.903318e+00
  8.434086e+00    2.871131e+00
  8.449962e+00    2.850456e+00
  8.465837e+00    2.891282e+00
  8.481713e+00    2.929451e+00
  8.497588e+00    2.875425e+00
  8.513464e+00    2.896680e+00
  8.529339e+00    2.877296e+00
  8.545215e+00    2.892977e+00
  8.561091e+00    2.841403e+00
  8.576966e+00    2.844335e+00
  8.592842e+00    2.843812e+00
  8.608717e+00    2.858116e+00
  8.624593e+00    2.869015e+00
  8.640468e+00    2.882842e+00
  8.656344e+00    2.864922e+00
  8.672220e+00    2.849378e+00
  8.688095e+00    2.848035e+00
  8.703971e+00    2.850474e+00
  8.719846e+00    2.828293e+00
  8.735722e+00    2.860486e+00
  8.751598e+00    2.924081e+00
  8.767473e+00    2.902930e+00
  8.783349e+00    2.835301e+00
  8.799224e+00    2.780577e+00
  8.815100e+00    2.833567e+00
  8.830975e+00    2.820005e+00
  8.846851e+00    2.865626e+00
  8.862727e+00    2.842929e+00
  8.878602e+00    2.834028e+00
  8.894478e+00    2.821517e+00
  8.910353e+00    2.895063e+00
  8.926229e+00    2.847348e+00
  8.942104e+00    2.816801e+00
  8.957980e+00    2.839717e+00
  8.973856e+00    2.825881e+00
  8.989731e+00    2.848831e+00
  9.005607e+00    2.801201e+00
  9.021482e+00    2.824302e+00
  9.037358e+00    2.848102e+00
  9.053233e+00    2.818325e+00
  9.069109e+00    2.845310e+00
  9.084985e+00    2.825491e+00
  9.100860e+00    2.751598e+00
  9.116736e+00    2.736750e+00
  9.132611e+00    2.786140e+00
  9.148487e+00    2.822357e+00
  9.164362e+00    2.828218e+00
  9.180238e+00    2.796053e+00
  9.196114e+00    2.767365e+00
  9.211989e+00    2.814924e+00
  9.227865e+00    2.791346e+00
  9.243740e+00    2.749383e+00
  9.259616e+00    2.798842e+00
  9.275491e+00    2.821860e+00
  9.291367e+00    2.775160e+00
  9.307243e+00    2.738616e+00
  9.323118e+00    2.704225e+00
  9.338994e+00    2.771681e+00
  9.354869e+00    2.777403e+00
  9.370745e+00    2.787771e+00
  9.386620e+00    2.816669e+00
  9.402496e+00    2.819160e+00
  9.418372e+00    2.789896e+00
  9.434247e+00    2.826037e+00
  9.450123e+00    2.774127e+00
  9.465998e+00    2.754771e+00
  9.481874e+00    2.777613e+00
  9.497749e+00    2.779762e+00
  9.513625e+00    2.773534e+00
  9.529501e+00    2.777875e+00
  9.545376e+00    2.773259e+00
  9.561252e+00    2.721204e+00
  9.577127e+00    2.712736e+00
  9.593003e+00    2.776050e+00
  9.608878e+00    2.700675e+00
  9.624754e+00    2.747537e+00
  9.640630e+00    2.749053e+00
  9.656505e+00    2.716429e+00
  9.672381e+00    2.753408e+00
  9.688256e+00    2.724571e+00
  9.704132e+00    2.759134e+00
  9.720008e+00    2.709894e+00
  9.735883e+00    2.719661e+00
  9.751759e+00    2.729283e+00
  9.767634e+00    2.724815e+00
  9.783510e+00    2.688609e+00
  9.799385e+00    2.720364e+00
  9.815261e+00    2.680511e+00
  9.831137e+00    2.673694e+00
  9.847012e+00    2.704798e+00
  9.862888e+00    2.655228e+00
  9.878763e+00    2.655959e+00
  9.894639e+00    2.674447e+00
  9.910514e+00    2.687882e+00
  9.926390e+00    2.714577e+00
  9.942266e+00    2.682237e+00
  9.958141e+00    2.668109e+00
  9.974017e+00    2.700130e+00
  9.989892e+00    2.677052e+00
  1.000577e+01    2.686840e+00
  1.002164e+01    2.619205e+00
  1.003752e+01    2.666587e+00
  1.005339e+01    2.723994e+00
  1.006927e+01    2.678027e+00
  1.008515e+01    2.670190e+00
  1.010102e+01    2.724359e+00
  1.011690e+01    2.668149e+00
  1.013277e+01    2.666414e+00
  1.014865e+01    2.661852e+00
  1.016452e+01    2.652240e+00
  1.018040e+01    2.602078e+00
  1.019627e+01    2.638079e+00
  1.021215e+01    2.716515e+00
  1.022803e+01    2.694132e+00
  1.024390e+01    2.675146e+00
  1.025978e+01    2.651508e+00
  1.027565e+01    2.663157e+00
  1.029153e+01    2.650743e+00
  1.030740e+01    2.712515e+00
  1.032328e+01    2.647688e+00
  1.033915e+01    2.590219e+00
  1.035503e+01    2.597394e+00
  1.037091e+01    2.612928e+00
  1.038678e+01    2.595186e+00
  1.040266e+01    2.560474e+00
  1.041853e+01    2.587327e+00
  1.043441e+01    2.671540e+00
  1.045028e+01    2.697608e+00
  1.046616e+01    2.641636e+00
  1.048204e+01    2.598951e+00
  1.049791e+01    2.593920e+00
  1.051379e+01    2.602806e+00
  1.052966e+01    2.598836e+00
  1.054554e+01    2.586626e+00
  1.056141e+01    2.626871e+00
  1.057729e+01    2.621241e+00
  1.059316e+01    2.548016e+00
  1.060904e+01    2.564268e+00
  1.062492e+01    2.573580e+00
  1.064079e+01    2.554827e+00
  1.065667e+01    2.604263e+00
  1.067254e+01    2.542428e+00
  1.068842e+01    2.544859e+00
  1.070429e+01    2.564498e+00
  1.072017e+01    2.593244e+00
  1.073604e+01    2.581973e+00
  1.075192e+01    2.540020e+00
  1.076780e+01    2.553115e+00
  1.078367e+01    2.488968e+00
  1.079955e+01    2.508046e+00
  1.081542e+01    2.527554e+00
  1.083130e+01    2.580588e+00
  1.084717e+01    2.540009e+00
  1.086305e+01    2.526594e+00
  1.087892e+01    2.498149e+00
  1.089480e+01    2.496962e+00
  1.091068e+01    2.568879e+00
  1.092655e+01    2.577319e+00
  1.094243e+01    2.501446e+00
  1.095830e+01    2.480156e+00
  1.097418e+01    2.483321e+00
  1.099005e+01    2.544644e+00
  1.100593e+01    2.495110e+00
  1.102180e+01    2.465578e+00
  1.103768e+01    2.498777e+00
  1.105356e+01    2.480872e+00
  1.106943e+01    2.495936e+00
  1.108531e+01    2.516432e+00
  1.110118e+01    2.488012e+00
  1.111706e+01    2.471741e+00
  1.113293e+01    2.460510e+00
  1.114881e+01    2.471431e+00
  1.116468e+01    2.500622e+00
  1.118056e+01    2.501816e+00
  1.119644e+01    2.497034e+00
  1.121231e+01    2.463124e+00
  1.122819e+01    2.491812e+00
  1.124406e+01    2.478284e+00
  1.125994e+01    2.462843e+00
  1.127581e+01    2.454257e+00
  1.129169e+01    2.432221e+00
  1.130756e+01    2.404964e+00
  1.132344e+01    2.490301e+00
  1.133932e+01    2.450066e+00
  1.135519e+01    2.479161e+00
  1.137107e+01    2.451779e+00
  1.138694e+01    2.403854e+00
  1.140282e+01    2.406412e+00
  1.141869e+01    2.473180e+00
  1.143457e+01    2.409062e+00
  1.145045e+01    2.360936e+00
  1.146632e+01    2.408646e+00
  1.148220e+01    2.368622e+00
  1.149807e+01    2.426974e+00
  1.151395e+01    2.461043e+00
  1.152982e+01    2.440944e+00
  1.154570e+01    2.413856e+00
  1.156157e+01    2.402919e+00
  1.157745e+01    2.400054e+00
  1.159333e+01    2.352175e+00
  1.160920e+01    2.346761e+00
  1.162508e+01    2.365437e+00
  1.164095e+01    2.411505e+00
  1.165683e+01    2.404756e+00
  1.167270e+01    2.394342e+00
  1.168858e+01    2.421973e+00
  1.170445e+01    2.416527e+00
  1.172033e+01    2.394298e+00
  1.173621e+01    2.372036e+00
  1.175208e+01    2.390250e+00
  1.176796e+01    2.378029e+00
  1.178383e+01    2.372251e+00
  1.179971e+01    2.374632e+00
  1.181558e+01    2.364376e+00
  1.183146e+01    2.366339e+00
  1.184733e+01    2.349802e+00
  1.186321e+01    2.363435e+00
  1.187909e+01    2.361710e+00
  1.189496e+01    2.379076e+00
  1.191084e+01    2.378915e+00
  1.192671e+01    2.352076e+00
  1.194259e+01    2.338110e+00
  1.195846e+01    2.362719e+00
  1.197434e+01    2.382888e+00
  1.199021e+01    2.362072e+00
  1.200609e+01    2.377844e+00
  1.202197e+01    2.354563e+00
  1.203784e+01    2.327234e+00
  1.205372e+01    2.371629e+00
  1.206959e+01    2.323970e+00
  1.208547e+01    2.290801e+00
  1.210134e+01    2.286752e+00
  1.211722e+01    2.323928e+00
  1.213309e+01    2.336730e+00
  1.214897e+01    2.277148e+00
  1.216485e+01    2.306458e+00
  1.218072e+01    2.297195e+00
  1.219660e+01    2.351743e+00
  1.221247e+01    2.322142e+00
  1.222835e+01    2.304340e+00
  1.224422e+01    2.334675e+00
  1.226010e+01    2.317975e+00
  1.227597e+01    2.331949e+00
  1.229185e+01    2.279139e+00
  1.230773e+01    2.306070e+00
  1.232360e+01    2.335705e+00
  1.233948e+01    2.341613e+00
  1.235535e+01    2.305067e+00
  1.237123e+01    2.314162e+00
  1.238710e+01    2.325052e+00
  1.240298e+01    2.301374e+00
  1.241886e+01    2.316492e+00
  1.243473e+01    2.342263e+00
  1.245061e+01    2.321922e+00
  1.246648e+01    2.342296e+00
  1.248236e+01    2.349427e+00
  1.249823e+01    2.325243e+00
  1.251411e+01    2.370469e+00
  1.252998e+01    2.379642e+00
  1.254586e+01    2.379268e+00
  1.256174e+01    2.352238e+00
  1.257761e+01    2.393831e+00
  1.259349e+01    2.412127e+00
  1.260936e+01    2.440433e+00
  1.262524e+01    2.427993e+00
  1.264111e+01    2.415796e+00
  1.265699e+01    2.434537e+00
  1.267286e+01    2.477113e+00
  1.268874e+01    2.441216e+00
  1.270462e+01    2.476161e+00
  1.272049e+01    2.506800e+00
  1.273637e+01    2.528078e+00
  1.275224e+01    2.549040e+00
  1.276812e+01    2.598630e+00
  1.278399e+01    2.662826e+00
  1.279987e+01    2.692186e+00
  1.281574e+01    2.694367e+00
  1.283162e+01    2.762605e+00
  1.284750e+01    2.851421e+00
  1.286337e+01    2.877499e+00
  1.287925e+01    2.980384e+00
  1.289512e+01    3.210322e+00
  1.291100e+01    3.339943e+00
  1.292687e+01    3.493692e+00
  1.294275e+01    3.764954e+00
  1.295862e+01    4.061942e+00
  1.297450e+01    4.399414e+00
  1.299038e+01    4.906744e+00
  1.300625e+01    5.555406e+00
  1.302213e+01    6.368163e+00
  1.303800e+01    7.298455e+00
  1.305388e+01    8.393325e+00
  1.306975e+01    9.745996e+00
  1.308563e+01    1.103694e+01
  1.310150e+01    1.228870e+01
  1.311738e+01    1.347890e+01
  1.313326e+01    1.458605e+01
  1.314913e+01    1.552685e+01
  1.316501e+01    1.625976e+01
  1.318088e+01    1.668925e+01
  1.319676e+01    1.587654e+01
  1.321263e+01    1.448715e+01
  1.322851e+01    1.265537e+01
  1.324438e+01    1.079034e+01
  1.326026e+01    9.065087e+00
  1.327614e+01    7.570968e+00
  1.329201e+01    6.491189e+00
  1.330789e+01    5.639805e+00
  1.332376e+01    5.033639e+00
  1.333964e+01    4.615058e+00
  1.335551e+01    4.208511e+00
  1.337139e+01    3.858123e+00
  1.338727e+01    3.562822e+00
  1.340314e+01    3.335007e+00
  1.341902e+01    3.115512e+00
  1.343489e+01    3.025713e+00
  1.345077e+01    2.929886e+00
  1.346664e+01    2.819217e+00
  1.348252e+01    2.734025e+00
  1.349839e+01    2.665898e+00
  1.351427e+01    2.536731e+00
  1.353015e+01    2.506767e+00
  1.354602e+01    2.518425e+00
  1.356190e+01    2.488574e+00
  1.357777e+01    2.413052e+00
  1.359365e+01    2.338787e+00
  1.360952e+01    2.336419e+00
  1.362540e+01    2.355975e+00
  1.364127e+01    2.306813e+00
  1.365715e+01    2.244277e+00
  1.367303e+01    2.248249e+00
  1.368890e+01    2.262523e+00
  1.370478e+01    2.252088e+00
  1.372065e+01    2.225210e+00
  1.373653e+01    2.213181e+00
  1.375240e+01    2.221482e+00
  1.376828e+01    2.215428e+00
  1.378415e+01    2.178484e+00
  1.380003e+01    2.158069e+00
  1.381591e+01    2.143277e+00
  1.383178e+01    2.147913e+00
  1.384766e+01    2.101693e+00
  1.386353e+01    2.092531e+00
  1.387941e+01    2.108093e+00
  1.389528e+01    2.144388e+00
  1.391116e+01    2.100347e+00
  1.392703e+01    2.070191e+00
  1.394291e+01    2.100256e+00
  1.395879e+01    2.094314e+00
  1.397466e+01    2.080889e+00
  1.399054e+01    2.070398e+00
  1.400641e+01    2.041774e+00
  1.402229e+01    2.030232e+00
  1.403816e+01    2.041794e+00
  1.405404e+01    2.053285e+00
  1.406991e+01    2.028731e+00
  1.408579e+01    2.020929e+00
  1.410167e+01    1.999777e+00
  1.411754e+01    2.029549e+00
  1.413342e+01    2.043525e+00
  1.414929e+01    2.031498e+00
  1.416517e+01    2.006991e+00
  1.418104e+01    2.006947e+00
  1.419692e+01    1.991566e+00
  1.421279e+01    1.960038e+00
  1.422867e+01    1.973946e+00
  1.424455e+01    1.986959e+00
  1.426042e+01    1.989265e+00
  1.427630e+01    1.940734e+00
  1.429217e+01    1.965628e+00
  1.430805e+01    1.982283e+00
  1.432392e+01    1.955997e+00
  1.433980e+01    1.929072e+00
  1.435568e+01    1.962921e+00
  1.437155e+01    1.955617e+00
  1.438743e+01    1.924250e+00
  1.440330e+01    1.953493e+00
  1.441918e+01    1.953246e+00
  1.443505e+01    1.936323e+00
  1.445093e+01    1.942572e+00
  1.446680e+01    1.969770e+00
  1.448268e+01    1.959198e+00
  1.449856e+01    1.926331e+00
  1.451443e+01    1.937019e+00
  1.453031e+01    1.930197e+00
  1.454618e+01    1.958225e+00
  1.456206e+01    1.983418e+00
  1.457793e+01    1.949903e+00
  1.459381e+01    1.895279e+00
  1.460968e+01    1.910398e+00
  1.462556e+01    1.947226e+00
  1.464144e+01    1.954117e+00
  1.465731e+01    1.929359e+00
  1.467319e+01    1.906550e+00
  1.468906e+01    1.908785e+00
  1.470494e+01    1.910229e+00
  1.472081e+01    1.911136e+00
  1.473669e+01    1.919777e+00
  1.475256e+01    1.921663e+00
  1.476844e+01    1.910609e+00
  1.478432e+01    1.906110e+00
  1.480019e+01    1.878893e+00
  1.481607e+01    1.919292e+00
  1.483194e+01    1.947411e+00
  1.484782e+01    1.945572e+00
  1.486369e+01    1.956802e+00
  1.487957e+01    1.941238e+00
  1.489544e+01    2.007158e+00
  1.491132e+01    2.009862e+00
  1.492720e+01    2.001306e+00
  1.494307e+01    2.019686e+00
  1.495895e+01    2.064856e+00
  1.497482e+01    2.077861e+00
  1.499070e+01    2.116673e+00
  1.500657e+01    2.192840e+00
  1.502245e+01    2.243695e+00
  1.503832e+01    2.321114e+00
  1.505420e+01    2.410415e+00
  1.507008e+01    2.572701e+00
  1.508595e+01    2.726918e+00
  1.510183e+01    2.937167e+00
  1.511770e+01    3.251228e+00
  1.513358e+01    3.561710e+00
  1.514945e+01    3.884047e+00
  1.516533e+01    4.295554e+00
  1.518120e+01    4.655030e+00
  1.519708e+01    4.962926e+00
  1.521296e+01    5.190228e+00
  1.522883e+01    5.363256e+00
  1.524471e+01    5.546500e+00
  1.526058e+01    5.708944e+00
  1.527646e+01    5.637362e+00
  1.529233e+01    5.404354e+00
  1.530821e+01    5.048510e+00
  1.532409e+01    4.500787e+00
  1.533996e+01    3.966330e+00
  1.535584e+01    3.572522e+00
  1.537171e+01    3.220406e+00
  1.538759e+01    2.871118e+00
  1.540346e+01    2.641120e+00
  1.541934e+01    2.535487e+00
  1.543521e+01    2.382752e+00
  1.545109e+01    2.212922e+00
  1.546697e+01    2.176349e+00
  1.548284e+01    2.127309e+00
  1.549872e+01    2.030373e+00
  1.551459e+01    1.959150e+00
  1.553047e+01    1.915836e+00
  1.554634e+01    1.911402e+00
  1.556222e+01    1.873258e+00
  1.557809e+01    1.821082e+00
  1.559397e+01    1.837993e+00
  1.560985e+01    1.800883e+00
  1.562572e+01    1.759192e+00
  1.564160e+01    1.785280e+00
  1.565747e+01    1.769783e+00
  1.567335e+01    1.754322e+00
  1.568922e+01    1.761380e+00
  1.570510e+01    1.775829e+00
  1.572097e+01    1.745207e+00
  1.573685e+01    1.734803e+00
  1.575273e+01    1.704341e+00
  1.576860e+01    1.659385e+00
  1.578448e+01    1.667269e+00
  1.580035e+01    1.684811e+00
  1.581623e+01    1.674900e+00
  1.583210e+01    1.637569e+00
  1.584798e+01    1.643773e+00
  1.586385e+01    1.648111e+00
  1.587973e+01    1.673818e+00
  1.589561e+01    1.666188e+00
  1.591148e+01    1.633195e+00
  1.592736e+01    1.613317e+00
  1.594323e+01    1.610545e+00
  1.595911e+01    1.658864e+00
  1.597498e+01    1.647932e+00
  1.599086e+01    1.627937e+00
  1.600673e+01    1.629328e+00
  1.602261e+01    1.578672e+00
  1.603849e+01    1.622802e+00
  1.605436e+01    1.619485e+00
  1.607024e+01    1.612774e+00
  1.608611e+01    1.609347e+00
  1.610199e+01    1.594674e+00
  1.611786e+01    1.579207e+00
  1.613374e+01    1.585376e+00
  1.614961e+01    1.590746e+00
  1.616549e+01    1.602441e+00
  1.618137e+01    1.606528e+00
  1.619724e+01    1.554236e+00
  1.621312e+01    1.572913e+00
  1.622899e+01    1.561805e+00
  1.624487e+01    1.598521e+00
  1.626074e+01    1.606921e+00
  1.627662e+01    1.568624e+00
  1.629250e+01    1.558030e+00
  1.630837e+01    1.543835e+00
  1.632425e+01    1.539546e+00
  1.634012e+01    1.558094e+00
  1.635600e+01    1.541322e+00
  1.637187e+01    1.552922e+00
  1.638775e+01    1.546761e+00
  1.640362e+01    1.572587e+00
  1.641950e+01    1.536205e+00
  1.643538e+01    1.538498e+00
  1.645125e+01    1.528407e+00
  1.646713e+01    1.523041e+00
  1.648300e+01    1.499336e+00
  1.649888e+01    1.494894e+00
  1.651475e+01    1.509632e+00
  1.653063e+01    1.512412e+00
  1.654650e+01    1.540336e+00
  1.656238e+01    1.532518e+00
  1.657826e+01    1.494625e+00
  1.659413e+01    1.480039e+00
  1.661001e+01    1.461565e+00
  1.662588e+01    1.476655e+00
  1.664176e+01    1.483430e+00
  1.665763e+01    1.476975e+00
  1.667351e+01    1.495168e+00
  1.668938e+01    1.504987e+00
  1.670526e+01    1.530446e+00
  1.672114e+01    1.504057e+00
  1.673701e+01    1.496990e+00
  1.675289e+01    1.484469e+00
  1.676876e+01    1.470670e+00
  1.678464e+01    1.480345e+00
  1.680051e+01    1.472723e+00
  1.681639e+01    1.476100e+00
  1.683226e+01    1.484915e+00
  1.684814e+01    1.492532e+00
  1.686402e+01    1.469878e+00
  1.687989e+01    1.476206e+00
  1.689577e+01    1.478151e+00
  1.691164e+01    1.464994e+00
  1.692752e+01    1.454612e+00
  1.694339e+01    1.481950e+00
  1.695927e+01    1.435329e+00
  1.697514e+01    1.434104e+00
  1.699102e+01    1.406401e+00
  1.700690e+01    1.402609e+00
  1.702277e+01    1.445205e+00
  1.703865e+01    1.467355e+00
  1.705452e+01    1.417402e+00
  1.707040e+01    1.411075e+00
  1.708627e+01    1.442578e+00
  1.710215e+01    1.440781e+00
  1.711802e+01    1.434973e+00
  1.713390e+01    1.420686e+00
  1.714978e+01    1.404408e+00
  1.716565e+01    1.399368e+00
  1.718153e+01    1.386984e+00
  1.719740e+01    1.399013e+00
  1.721328e+01    1.380903e+00
  1.722915e+01    1.418146e+00
  1.724503e+01    1.402349e+00
  1.726091e+01    1.406905e+00
  1.727678e+01    1.423833e+00
  1.729266e+01    1.378644e+00
  1.730853e+01    1.369885e+00
  1.732441e+01    1.376289e+00
  1.734028e+01    1.405580e+00
  1.735616e+01    1.415926e+00
  1.737203e+01    1.367544e+00
  1.738791e+01    1.389645e+00
  1.740379e+01    1.387406e+00
  1.741966e+01    1.369718e+00
  1.743554e+01    1.369521e+00
  1.745141e+01    1.361084e+00
  1.746729e+01    1.372213e+00
  1.748316e+01    1.390790e+00
  1.749904e+01    1.360541e+00
  1.751491e+01    1.363605e+00
  1.753079e+01    1.353155e+00
  1.754667e+01    1.386524e+00
  1.756254e+01    1.371914e+00
  1.757842e+01    1.394503e+00
  1.759429e+01    1.363197e+00
  1.761017e+01    1.359271e+00
  1.762604e+01    1.387502e+00
  1.764192e+01    1.364252e+00
  1.765779e+01    1.341527e+00
  1.767367e+01    1.355896e+00
  1.768955e+01    1.361558e+00
  1.770542e+01    1.364425e+00
  1.772130e+01    1.352206e+00
  1.773717e+01    1.340761e+00
  1.775305e+01    1.365329e+00
  1.776892e+01    1.342211e+00
  1.778480e+01    1.324561e+00
  1.780067e+01    1.348274e+00
  1.781655e+01    1.316292e+00
  1.783243e+01    1.307511e+00
  1.784830e+01    1.340636e+00
  1.786418e+01    1.351738e+00
  1.788005e+01    1.328899e+00
  1.789593e+01    1.333391e+00
  1.791180e+01    1.338509e+00
  1.792768e+01    1.314499e+00
  1.794355e+01    1.303420e+00
  1.795943e+01    1.329143e+00
  1.797531e+01    1.306751e+00
  1.799118e+01    1.307743e+00
  1.800706e+01    1.322921e+00
  1.802293e+01    1.318104e+00
  1.803881e+01    1.313492e+00
  1.805468e+01    1.310204e+00
  1.807056e+01    1.326543e+00
  1.808643e+01    1.335666e+00
  1.810231e+01    1.338313e+00
  1.811819e+01    1.325045e+00
  1.813406e+01    1.289511e+00
  1.814994e+01    1.296169e+00
  1.816581e+01    1.307823e+00
  1.818169e+01    1.298754e+00
  1.819756e+01    1.295081e+00
  1.821344e+01    1.295313e+00
  1.822932e+01    1.285208e+00
  1.824519e+01    1.280600e+00
  1.826107e+01    1.305982e+00
  1.827694e+01    1.279476e+00
  1.829282e+01    1.275078e+00
  1.830869e+01    1.274160e+00
  1.832457e+01    1.292585e+00
  1.834044e+01    1.303952e+00
  1.835632e+01    1.272903e+00
  1.837220e+01    1.250972e+00
  1.838807e+01    1.254257e+00
  1.840395e+01    1.261188e+00
  1.841982e+01    1.277145e+00
  1.843570e+01    1.268424e+00
  1.845157e+01    1.252533e+00
  1.846745e+01    1.257688e+00
  1.848332e+01    1.267151e+00
  1.849920e+01    1.238555e+00
  1.851508e+01    1.241907e+00
  1.853095e+01    1.252950e+00
  1.854683e+01    1.267029e+00
  1.856270e+01    1.258646e+00
  1.857858e+01    1.259133e+00
  1.859445e+01    1.280029e+00
  1.861033e+01    1.251274e+00
  1.862620e+01    1.224119e+00
  1.864208e+01    1.217775e+00
  1.865796e+01    1.205356e+00
  1.867383e+01    1.237159e+00
  1.868971e+01    1.230615e+00
  1.870558e+01    1.207060e+00
  1.872146e+01    1.211216e+00
  1.873733e+01    1.238318e+00
  1.875321e+01    1.234994e+00
  1.876908e+01    1.235813e+00
  1.878496e+01    1.217700e+00
  1.880084e+01    1.195641e+00
  1.881671e+01    1.214876e+00
  1.883259e+01    1.208803e+00
  1.884846e+01    1.251608e+00
  1.886434e+01    1.246835e+00
  1.888021e+01    1.239045e+00
  1.889609e+01    1.228419e+00
  1.891196e+01    1.203892e+00
  1.892784e+01    1.204030e+00
  1.894372e+01    1.188188e+00
  1.895959e+01    1.197029e+00
  1.897547e+01    1.207566e+00
  1.899134e+01    1.190968e+00
  1.900722e+01    1.211825e+00
  1.902309e+01    1.203217e+00
  1.903897e+01    1.224349e+00
  1.905484e+01    1.215216e+00
  1.907072e+01    1.193967e+00
  1.908660e+01    1.207419e+00
  1.910247e+01    1.204009e+00
  1.911835e+01    1.209268e+00
  1.913422e+01    1.201515e+00
  1.915010e+01    1.201943e+00
  1.916597e+01    1.210788e+00
  1.918185e+01    1.205958e+00
  1.919773e+01    1.193133e+00
  1.921360e+01    1.172185e+00
  1.922948e+01    1.168747e+00
  1.924535e+01    1.178467e+00
  1.926123e+01    1.160151e+00
  1.927710e+01    1.168138e+00
  1.929298e+01    1.195807e+00
  1.930885e+01    1.195120e+00
  1.932473e+01    1.180662e+00
  1.934061e+01    1.189725e+00
  1.935648e+01    1.190156e+00
  1.937236e+01    1.176969e+00
  1.938823e+01    1.154002e+00
  1.940411e+01    1.160390e+00
  1.941998e+01    1.167101e+00
  1.943586e+01    1.179598e+00
  1.945173e+01    1.168086e+00
  1.946761e+01    1.159321e+00
  1.948349e+01    1.180578e+00
  1.949936e+01    1.183286e+00
  1.951524e+01    1.156081e+00
  1.953111e+01    1.169370e+00
  1.954699e+01    1.171341e+00
  1.956286e+01    1.153063e+00
  1.957874e+01    1.119041e+00
  1.959461e+01    1.129870e+00
  1.961049e+01    1.159330e+00
  1.962637e+01    1.129110e+00
  1.964224e+01    1.134766e+00
  1.965812e+01    1.142401e+00
  1.967399e+01    1.131330e+00
  1.968987e+01    1.156651e+00
  1.970574e+01    1.141734e+00
  1.972162e+01    1.122952e+00
  1.973749e+01    1.137593e+00
  1.975337e+01    1.122805e+00
  1.976925e+01    1.119797e+00
  1.978512e+01    1.120575e+00
  1.980100e+01    1.136600e+00
  1.981687e+01    1.118237e+00
  1.983275e+01    1.130999e+00
  1.984862e+01    1.130737e+00
  1.986450e+01    1.113641e+00
  1.988037e+01    1.108497e+00
  1.989625e+01    1.119316e+00
  1.991213e+01    1.119317e+00
  1.992800e+01    1.117799e+00
  1.994388e+01    1.119107e+00
  1.995975e+01    1.140232e+00
  1.997563e+01    1.130437e+00
  1.999150e+01    1.105486e+00
  2.000738e+01    1.100673e+00
  2.002325e+01    1.107488e+00
  2.003913e+01    1.120435e+00
  2.005501e+01    1.124658e+00
  2.007088e+01    1.128688e+00
  2.008676e+01    1.114245e+00
  2.010263e+01    1.118490e+00
  2.011851e+01    1.121107e+00
  2.013438e+01    1.120020e+00
  2.015026e+01    1.127946e+00
  2.016614e+01    1.113000e+00
  2.018201e+01    1.121335e+00
  2.019789e+01    1.118712e+00
  2.021376e+01    1.131619e+00
  2.022964e+01    1.109702e+00
  2.024551e+01    1.108466e+00
  2.026139e+01    1.102042e+00
  2.027726e+01    1.103431e+00
  2.029314e+01    1.070150e+00
  2.030902e+01    1.074687e+00
  2.032489e+01    1.092612e+00
  2.034077e+01    1.099010e+00
  2.035664e+01    1.092841e+00
  2.037252e+01    1.074101e+00
  2.038839e+01    1.088958e+00
  2.040427e+01    1.088549e+00
  2.042014e+01    1.100111e+00
  2.043602e+01    1.110406e+00
  2.045190e+01    1.079976e+00
  2.046777e+01    1.080523e+00
  2.048365e+01    1.089418e+00
  2.049952e+01    1.112785e+00
  2.051540e+01    1.118615e+00
  2.053127e+01    1.105881e+00
  2.054715e+01    1.091355e+00
  2.056302e+01    1.094544e+00
  2.057890e+01    1.069675e+00
  2.059478e+01    1.079165e+00
  2.061065e+01    1.072577e+00
  2.062653e+01    1.091371e+00
  2.064240e+01    1.101080e+00
  2.065828e+01    1.091936e+00
  2.067415e+01    1.092950e+00
  2.069003e+01    1.082432e+00
  2.070590e+01    1.116585e+00
  2.072178e+01    1.105672e+00
  2.073766e+01    1.076360e+00
  2.075353e+01    1.072650e+00
  2.076941e+01    1.085594e+00
  2.078528e+01    1.091679e+00
  2.080116e+01    1.072907e+00
  2.081703e+01    1.083597e+00
  2.083291e+01    1.084926e+00
  2.084878e+01    1.079561e+00
  2.086466e+01    1.095963e+00
  2.088054e+01    1.098766e+00
  2.089641e+01    1.100893e+00
  2.091229e+01    1.078776e+00
  2.092816e+01    1.074535e+00
  2.094404e+01    1.062600e+00
  2.095991e+01    1.076621e+00
  2.097579e+01    1.098039e+00
  2.099166e+01    1.094532e+00
  2.100754e+01    1.088522e+00
  2.102342e+01    1.066312e+00
  2.103929e+01    1.056677e+00
  2.105517e+01    1.063426e+00
  2.107104e+01    1.104349e+00
  2.108692e+01    1.083094e+00
  2.110279e+01    1.090014e+00
  2.111867e+01    1.072996e+00
  2.113455e+01    1.066862e+00
  2.115042e+01    1.076084e+00
  2.116630e+01    1.108427e+00
  2.118217e+01    1.106869e+00
  2.119805e+01    1.102689e+00
  2.121392e+01    1.103727e+00
  2.122980e+01    1.113696e+00
  2.124567e+01    1.115303e+00
  2.126155e+01    1.118155e+00
  2.127743e+01    1.117460e+00
  2.129330e+01    1.113679e+00
  2.130918e+01    1.126961e+00
  2.132505e+01    1.129811e+00
  2.134093e+01    1.144796e+00
  2.135680e+01    1.151584e+00
  2.137268e+01    1.155506e+00
  2.138855e+01    1.150764e+00
  2.140443e+01    1.155163e+00
  2.142031e+01    1.155061e+00
  2.143618e+01    1.208119e+00
  2.145206e+01    1.237517e+00
  2.146793e+01    1.227566e+00
  2.148381e+01    1.279253e+00
  2.149968e+01    1.287805e+00
  2.151556e+01    1.355334e+00
  2.153143e+01    1.365044e+00
  2.154731e+01    1.367518e+00
  2.156319e+01    1.424926e+00
  2.157906e+01    1.499602e+00
  2.159494e+01    1.549122e+00
  2.161081e+01    1.609214e+00
  2.162669e+01    1.713830e+00
  2.164256e+01    1.866323e+00
  2.165844e+01    2.008883e+00
  2.167431e+01    2.131719e+00
  2.169019e+01    2.386111e+00
  2.170607e+01    2.674034e+00
  2.172194e+01    3.006759e+00
  2.173782e+01    3.448579e+00
  2.175369e+01    3.926306e+00
  2.176957e+01    4.445300e+00
  2.178544e+01    5.066497e+00
  2.180132e+01    5.737857e+00
  2.181719e+01    6.411690e+00
  2.183307e+01    7.081087e+00
  2.184895e+01    7.770152e+00
  2.186482e+01    8.391139e+00
  2.188070e+01    8.839818e+00
  2.189657e+01    9.050561e+00
  2.191245e+01    8.898867e+00
  2.192832e+01    8.412524e+00
  2.194420e+01    7.582724e+00
  2.196007e+01    6.640831e+00
  2.197595e+01    5.636894e+00
  2.199183e+01    4.764540e+00
  2.200770e+01    4.069191e+00
  2.202358e+01    3.483559e+00
  2.203945e+01    3.080777e+00
  2.205533e+01    2.729190e+00
  2.207120e+01    2.411861e+00
  2.208708e+01    2.162460e+00
  2.210296e+01    1.990397e+00
  2.211883e+01    1.860947e+00
  2.213471e+01    1.731914e+00
  2.215058e+01    1.614295e+00
  2.216646e+01    1.539886e+00
  2.218233e+01    1.467446e+00
  2.219821e+01    1.422835e+00
  2.221408e+01    1.383335e+00
  2.222996e+01    1.310117e+00
  2.224584e+01    1.273764e+00
  2.226171e+01    1.256670e+00
  2.227759e+01    1.222113e+00
  2.229346e+01    1.184831e+00
  2.230934e+01    1.170588e+00
  2.232521e+01    1.169738e+00
  2.234109e+01    1.155047e+00
  2.235696e+01    1.087999e+00
  2.237284e+01    1.076631e+00
  2.238872e+01    1.062425e+00
  2.240459e+01    1.058424e+00
  2.242047e+01    1.060444e+00
  2.243634e+01    1.027793e+00
  2.245222e+01    1.037223e+00
  2.246809e+01    1.029460e+00
  2.248397e+01    1.004070e+00
  2.249984e+01    1.017370e+00
  2.251572e+01    1.028822e+00
  2.253160e+01    1.017282e+00
  2.254747e+01    1.004934e+00
  2.256335e+01    1.016498e+00
  2.257922e+01    9.914956e-01
  2.259510e+01    9.695572e-01
  2.261097e+01    9.812261e-01
  2.262685e+01    9.681935e-01
  2.264272e+01    9.740149e-01
  2.265860e+01    9.576706e-01
  2.267448e+01    9.579918e-01
  2.269035e+01    9.730708e-01
  2.270623e+01    9.617455e-01
  2.272210e+01    9.638018e-01
  2.273798e+01    9.435131e-01
  2.275385e+01    9.270442e-01
  2.276973e+01    9.388942e-01
  2.278560e+01    9.300480e-01
  2.280148e+01    9.210737e-01
  2.281736e+01    9.201427e-01
  2.283323e+01    9.271816e-01
  2.284911e+01    9.326825e-01
  2.286498e+01    9.293128e-01
  2.288086e+01    9.327606e-01
  2.289673e+01    9.351656e-01
  2.291261e+01    9.183244e-01
  2.292848e+01    9.095517e-01
  2.294436e+01    9.361252e-01
  2.296024e+01    9.155551e-01
  2.297611e+01    9.103447e-01
  2.299199e+01    8.972359e-01
  2.300786e+01    9.182966e-01
  2.302374e+01    9.089987e-01
  2.303961e+01    8.818183e-01
  2.305549e+01    8.899674e-01
  2.307137e+01    8.743285e-01
  2.308724e+01    8.596181e-01
  2.310312e+01    8.839208e-01
  2.311899e+01    8.946434e-01
  2.313487e+01    8.827902e-01
  2.315074e+01    8.756106e-01
  2.316662e+01    8.805411e-01
  2.318249e+01    8.681087e-01
  2.319837e+01    8.902069e-01
  2.321425e+01    8.843738e-01
  2.323012e+01    8.859459e-01
  2.324600e+01    8.713723e-01
  2.326187e+01    8.653089e-01
  2.327775e+01    8.593851e-01
  2.329362e+01    8.600439e-01
  2.330950e+01    8.721324e-01
  2.332537e+01    8.489827e-01
  2.334125e+01    8.637975e-01
  2.335713e+01    8.671026e-01
  2.337300e+01    8.463954e-01
  2.338888e+01    8.608270e-01
  2.340475e+01    8.674496e-01
  2.342063e+01    8.546657e-01
  2.343650e+01    8.313230e-01
  2.345238e+01    8.405328e-01
  2.346825e+01    8.544181e-01
  2.348413e+01    8.594728e-01
  2.350001e+01    8.537316e-01
  2.351588e+01    8.469926e-01
  2.353176e+01    8.420799e-01
  2.354763e+01    8.449107e-01
  2.356351e+01    8.387418e-01
  2.357938e+01    8.465644e-01
  2.359526e+01    8.381419e-01
  2.361113e+01    8.508419e-01
  2.362701e+01    8.494020e-01
  2.364289e+01    8.238333e-01
  2.365876e+01    8.367853e-01
  2.367464e+01    8.214822e-01
  2.369051e+01    8.237213e-01
  2.370639e+01    8.213364e-01
  2.372226e+01    8.313963e-01
  2.373814e+01    8.338783e-01
  2.375401e+01    8.026319e-01
  2.376989e+01    8.136261e-01
  2.378577e+01    8.237854e-01
  2.380164e+01    8.266264e-01
  2.381752e+01    8.205151e-01
  2.383339e+01    8.049341e-01
  2.384927e+01    7.939125e-01
  2.386514e+01    7.937697e-01
  2.388102e+01    7.833095e-01
  2.389689e+01    8.107890e-01
  2.391277e+01    8.102487e-01
  2.392865e+01    7.902396e-01
  2.394452e+01    7.885692e-01
  2.396040e+01    7.978518e-01
  2.397627e+01    7.877503e-01
  2.399215e+01    7.735498e-01
  2.400802e+01    7.680337e-01
  2.402390e+01    7.994410e-01
  2.403978e+01    7.975212e-01
  2.405565e+01    7.964571e-01
  2.407153e+01    7.798615e-01
  2.408740e+01    7.740679e-01
  2.410328e+01    7.918150e-01
  2.411915e+01    7.716378e-01
  2.413503e+01    7.958604e-01
  2.415090e+01    8.023383e-01
  2.416678e+01    7.927375e-01
  2.418266e+01    7.663768e-01
  2.419853e+01    7.656464e-01
  2.421441e+01    7.838715e-01
  2.423028e+01    7.750804e-01
  2.424616e+01    7.817784e-01
  2.426203e+01    7.777216e-01
  2.427791e+01    7.625042e-01
  2.429378e+01    7.823592e-01
  2.430966e+01    7.768253e-01
  2.432554e+01    7.884783e-01
  2.434141e+01    7.939959e-01
  2.435729e+01    7.980527e-01
  2.437316e+01    8.043129e-01
  2.438904e+01    7.912923e-01
  2.440491e+01    7.913469e-01
  2.442079e+01    8.173455e-01
  2.443666e+01    8.021066e-01
  2.445254e+01    7.722929e-01
  2.446842e+01    7.808732e-01
  2.448429e+01    7.781333e-01
  2.450017e+01    7.844038e-01
  2.451604e+01    7.950323e-01
  2.453192e+01    7.886253e-01
  2.454779e+01    7.882314e-01
  2.456367e+01    7.808366e-01
  2.457954e+01    7.853857e-01
  2.459542e+01    7.874233e-01
  2.461130e+01    7.994297e-01
  2.462717e+01    7.808744e-01
  2.464305e+01    7.898366e-01
  2.465892e+01    8.056241e-01
  2.467480e+01    7.977062e-01
  2.469067e+01    8.027015e-01
  2.470655e+01    7.945431e-01
  2.472242e+01    7.969281e-01
  2.473830e+01    7.989798e-01
  2.475418e+01    7.920132e-01
  2.477005e+01    8.053429e-01
  2.478593e+01    8.005274e-01
  2.480180e+01    7.942058e-01
  2.481768e+01    7.928566e-01
  2.483355e+01    7.939838e-01
  2.484943e+01    8.016337e-01
  2.486530e+01    8.025003e-01
  2.488118e+01    7.985433e-01
  2.489706e+01    7.804193e-01
  2.491293e+01    7.833485e-01
  2.492881e+01    7.860326e-01
  2.494468e+01    7.845076e-01
  2.496056e+01    7.797304e-01
  2.497643e+01    8.012810e-01
  2.499231e+01    8.044972e-01
  2.500819e+01    8.041739e-01
  2.502406e+01    7.961572e-01
  2.503994e+01    8.035263e-01
  2.505581e+01    8.077897e-01
  2.507169e+01    8.044359e-01
  2.508756e+01    8.061362e-01
  2.510344e+01    8.029861e-01
  2.511931e+01    8.134031e-01
  2.513519e+01    8.281181e-01
  2.515107e+01    8.280327e-01
  2.516694e+01    8.266007e-01
  2.518282e+01    8.329265e-01
  2.519869e+01    8.415411e-01
  2.521457e+01    8.431141e-01
  2.523044e+01    8.379086e-01
  2.524632e+01    8.427087e-01
  2.526219e+01    8.384419e-01
  2.527807e+01    8.536490e-01
  2.529395e+01    8.540859e-01
  2.530982e+01    8.530831e-01
  2.532570e+01    8.515733e-01
  2.534157e+01    8.555147e-01
  2.535745e+01    8.841648e-01
  2.537332e+01    9.019360e-01
  2.538920e+01    8.977813e-01
  2.540507e+01    9.030201e-01
  2.542095e+01    9.139038e-01
  2.543683e+01    9.308992e-01
  2.545270e+01    9.414770e-01
  2.546858e+01    9.629241e-01
  2.548445e+01    9.646635e-01
  2.550033e+01    9.898122e-01
  2.551620e+01    9.916057e-01
  2.553208e+01    1.005470e+00
  2.554795e+01    1.025848e+00
  2.556383e+01    1.055800e+00
  2.557971e+01    1.050554e+00
  2.559558e+01    1.076492e+00
  2.561146e+01    1.158396e+00
  2.562733e+01    1.187446e+00
  2.564321e+01    1.232567e+00
  2.565908e+01    1.293126e+00
  2.567496e+01    1.367843e+00
  2.569083e+01    1.446712e+00
  2.570671e+01    1.551463e+00
  2.572259e+01    1.643400e+00
  2.573846e+01    1.800009e+00
  2.575434e+01    1.976738e+00
  2.577021e+01    2.186216e+00
  2.578609e+01    2.469987e+00
  2.580196e+01    2.761642e+00
  2.581784e+01    3.127691e+00
  2.583371e+01    3.575308e+00
  2.584959e+01    4.087944e+00
  2.586547e+01    4.673103e+00
  2.588134e+01    5.227698e+00
  2.589722e+01    5.862960e+00
  2.591309e+01    6.472334e+00
  2.592897e+01    6.889445e+00
  2.594484e+01    7.295022e+00
  2.596072e+01    7.397079e+00
  2.597660e+01    7.247551e+00
  2.599247e+01    6.824352e+00
  2.600835e+01    6.166459e+00
  2.602422e+01    5.418783e+00
  2.604010e+01    4.710963e+00
  2.605597e+01    3.971331e+00
  2.607185e+01    3.393594e+00
  2.608772e+01    2.927665e+00
  2.610360e+01    2.545264e+00
  2.611948e+01    2.269294e+00
  2.613535e+01    2.057622e+00
  2.615123e+01    1.895067e+00
  2.616710e+01    1.721653e+00
  2.618298e+01    1.600334e+00
  2.619885e+01    1.497702e+00
  2.621473e+01    1.399861e+00
  2.623060e+01    1.312285e+00
  2.624648e+01    1.247445e+00
  2.626236e+01    1.224381e+00
  2.627823e+01    1.172710e+00
  2.629411e+01    1.127703e+00
  2.630998e+01    1.076529e+00
  2.632586e+01    1.092481e+00
  2.634173e+01    1.043089e+00
  2.635761e+01    1.019005e+00
  2.637348e+01    1.001058e+00
  2.638936e+01    9.624009e-01
  2.640524e+01    9.616261e-01
  2.642111e+01    9.569471e-01
  2.643699e+01    9.579433e-01
  2.645286e+01    9.444947e-01
  2.646874e+01    9.576541e-01
  2.648461e+01    9.312200e-01
  2.650049e+01    9.123022e-01
  2.651636e+01    9.146007e-01
  2.653224e+01    9.189519e-01
  2.654812e+01    8.943544e-01
  2.656399e+01    8.867427e-01
  2.657987e+01    8.877414e-01
  2.659574e+01    9.003417e-01
  2.661162e+01    8.887741e-01
  2.662749e+01    9.104385e-01
  2.664337e+01    8.863128e-01
  2.665924e+01    8.781508e-01
  2.667512e+01    8.796077e-01
  2.669100e+01    8.673073e-01
  2.670687e+01    8.589576e-01
  2.672275e+01    8.605627e-01
  2.673862e+01    8.663430e-01
  2.675450e+01    8.650884e-01
  2.677037e+01    8.623905e-01
  2.678625e+01    8.722973e-01
  2.680212e+01    8.903934e-01
  2.681800e+01    8.891634e-01
  2.683388e+01    8.995469e-01
  2.684975e+01    9.145676e-01
  2.686563e+01    9.198435e-01
  2.688150e+01    9.029200e-01
  2.689738e+01    9.108793e-01
  2.691325e+01    9.257402e-01
  2.692913e+01    9.258493e-01
  2.694501e+01    9.491197e-01
  2.696088e+01    9.674767e-01
  2.697676e+01    9.680519e-01
  2.699263e+01    9.876794e-01
  2.700851e+01    1.015716e+00
  2.702438e+01    1.072904e+00
  2.704026e+01    1.108556e+00
  2.705613e+01    1.163697e+00
  2.707201e+01    1.191285e+00
  2.708789e+01    1.306791e+00
  2.710376e+01    1.424606e+00
  2.711964e+01    1.525357e+00
  2.713551e+01    1.670876e+00
  2.715139e+01    1.827607e+00
  2.716726e+01    1.957042e+00
  2.718314e+01    2.052860e+00
  2.719901e+01    2.130015e+00
  2.721489e+01    2.201693e+00
  2.723077e+01    2.167106e+00
  2.724664e+01    2.122078e+00
  2.726252e+01    2.010728e+00
  2.727839e+01    1.838372e+00
  2.729427e+01    1.663201e+00
  2.731014e+01    1.574285e+00
  2.732602e+01    1.413465e+00
  2.734189e+01    1.312370e+00
  2.735777e+01    1.231757e+00
  2.737365e+01    1.155838e+00
  2.738952e+01    1.102594e+00
  2.740540e+01    1.070110e+00
  2.742127e+01    1.017726e+00
  2.743715e+01    9.676337e-01
  2.745302e+01    9.423977e-01
  2.746890e+01    9.367030e-01
  2.748477e+01    8.912534e-01
  2.750065e+01    8.837180e-01
  2.751653e+01    8.744721e-01
  2.753240e+01    8.602389e-01
  2.754828e+01    8.733431e-01
  2.756415e+01    8.538451e-01
  2.758003e+01    8.285112e-01
  2.759590e+01    8.430535e-01
  2.761178e+01    8.290060e-01
  2.762765e+01    8.217998e-01
  2.764353e+01    8.439432e-01
  2.765941e+01    8.375384e-01
  2.767528e+01    8.319066e-01
  2.769116e+01    8.198389e-01
  2.770703e+01    8.004456e-01
  2.772291e+01    8.116907e-01
  2.773878e+01    8.180867e-01
  2.775466e+01    8.117658e-01
  2.777054e+01    8.196368e-01
  2.778641e+01    7.998914e-01
  2.780229e+01    7.986301e-01
  2.781816e+01    8.085310e-01
  2.783404e+01    8.067497e-01
  2.784991e+01    7.960542e-01
  2.786579e+01    7.930494e-01
  2.788166e+01    8.006784e-01
  2.789754e+01    7.733069e-01
  2.791342e+01    7.713085e-01
  2.792929e+01    7.722670e-01
  2.794517e+01    7.786506e-01
  2.796104e+01    8.039668e-01
  2.797692e+01    7.895979e-01
  2.799279e+01    7.861791e-01
  2.800867e+01    7.935351e-01
  2.802454e+01    7.948194e-01
  2.804042e+01    7.804560e-01
  2.805630e+01    7.926985e-01
  2.807217e+01    7.782150e-01
  2.808805e+01    7.912507e-01
  2.810392e+01    7.703804e-01
  2.811980e+01    7.745460e-01
  2.813567e+01    7.680690e-01
  2.815155e+01    7.592500e-01
  2.816742e+01    7.652149e-01
  2.818330e+01    7.733283e-01
  2.819918e+01    7.582548e-01
  2.821505e+01    7.440040e-01
  2.823093e+01    7.556365e-01
  2.824680e+01    7.569547e-01
  2.826268e+01    7.562642e-01
  2.827855e+01    7.573511e-01
  2.829443e+01    7.702097e-01
  2.831030e+01    7.645004e-01
  2.832618e+01    7.726687e-01
  2.834206e+01    7.700809e-01
  2.835793e+01    7.801709e-01
  2.837381e+01    7.922534e-01
  2.838968e+01    7.768356e-01
  2.840556e+01    7.592039e-01
  2.842143e+01    7.593488e-01
  2.843731e+01    7.747189e-01
  2.845318e+01    7.518117e-01
  2.846906e+01    7.525620e-01
  2.848494e+01    7.658750e-01
  2.850081e+01    7.681292e-01
  2.851669e+01    7.457767e-01
  2.853256e+01    7.433571e-01
  2.854844e+01    7.446743e-01
  2.856431e+01    7.541627e-01
  2.858019e+01    7.571735e-01
  2.859606e+01    7.500941e-01
  2.861194e+01    7.583582e-01
  2.862782e+01    7.673041e-01
  2.864369e+01    7.502658e-01
  2.865957e+01    7.402586e-01
  2.867544e+01    7.478286e-01
  2.869132e+01    7.613938e-01
  2.870719e+01    7.734309e-01
  2.872307e+01    7.721297e-01
  2.873895e+01    7.488768e-01
  2.875482e+01    7.354611e-01
  2.877070e+01    7.475322e-01
  2.878657e+01    7.441518e-01
  2.880245e+01    7.397289e-01
  2.881832e+01    7.288648e-01
  2.883420e+01    7.417637e-01
  2.885007e+01    7.576109e-01
  2.886595e+01    7.623078e-01
  2.888183e+01    7.599435e-01
  2.889770e+01    7.458670e-01
  2.891358e+01    7.402435e-01
  2.892945e+01    7.552946e-01
  2.894533e+01    7.411470e-01
  2.896120e+01    7.292616e-01
  2.897708e+01    7.409499e-01
  2.899295e+01    7.444440e-01
  2.900883e+01    7.484994e-01
  2.902471e+01    7.535608e-01
  2.904058e+01    7.433295e-01
  2.905646e+01    7.183992e-01
  2.907233e+01    7.205181e-01
  2.908821e+01    7.281587e-01
  2.910408e+01    7.270477e-01
  2.911996e+01    7.319852e-01
  2.913583e+01    7.236447e-01
  2.915171e+01    7.290964e-01
  2.916759e+01    7.213505e-01
  2.918346e+01    7.114570e-01
  2.919934e+01    7.215481e-01
  2.921521e+01    7.223598e-01
  2.923109e+01    7.099925e-01
  2.924696e+01    7.204621e-01
  2.926284e+01    7.306907e-01
  2.927871e+01    7.198482e-01
  2.929459e+01    7.338000e-01
  2.931047e+01    7.135701e-01
  2.932634e+01    7.163386e-01
  2.934222e+01    7.457594e-01
  2.935809e+01    7.327935e-01
  2.937397e+01    7.326610e-01
  2.938984e+01    7.370908e-01
  2.940572e+01    7.331429e-01
  2.942159e+01    7.191700e-01
  2.943747e+01    7.360056e-01
  2.945335e+01    7.294186e-01
  2.946922e+01    7.308300e-01
  2.948510e+01    7.194675e-01
  2.950097e+01    7.321142e-01
  2.951685e+01    7.200074e-01
  2.953272e+01    7.229789e-01
  2.954860e+01    7.134792e-01
  2.956447e+01    7.152367e-01
  2.958035e+01    7.469432e-01
  2.959623e+01    7.330971e-01
  2.961210e+01    7.446781e-01
  2.962798e+01    7.043306e-01
  2.964385e+01    7.219070e-01
  2.965973e+01    7.411585e-01
  2.967560e+01    7.143458e-01
  2.969148e+01    7.275590e-01
  2.970736e+01    7.094759e-01
  2.972323e+01    7.026644e-01
  2.973911e+01    7.267370e-01
  2.975498e+01    7.123933e-01
  2.977086e+01    7.088096e-01
  2.978673e+01    7.239553e-01
  2.980261e+01    7.200166e-01
  2.981848e+01    7.159156e-01
  2.983436e+01    7.033367e-01
  2.985024e+01    6.982486e-01
  2.986611e+01    7.011147e-01
  2.988199e+01    7.004867e-01
  2.989786e+01    7.067789e-01
  2.991374e+01    7.093777e-01
  2.992961e+01    6.988872e-01
  2.994549e+01    6.945274e-01
  2.996136e+01    7.159916e-01
  2.997724e+01    7.428975e-01
  2.999312e+01    7.201997e-01
  3.000899e+01    7.171942e-01
  3.002487e+01    7.202941e-01
  3.004074e+01    7.351832e-01
  3.005662e+01    7.417600e-01
  3.007249e+01    7.360340e-01
  3.008837e+01    7.419157e-01
  3.010424e+01    7.364436e-01
  3.012012e+01    7.307563e-01
  3.013600e+01    7.368184e-01
  3.015187e+01    7.313341e-01
  3.016775e+01    7.022187e-01
  3.018362e+01    7.058252e-01
  3.019950e+01    7.126883e-01
  3.021537e+01    6.913729e-01
  3.023125e+01    7.103154e-01
  3.024712e+01    7.038770e-01
  3.026300e+01    7.146838e-01
  3.027888e+01    7.110840e-01
  3.029475e+01    7.489552e-01
  3.031063e+01    7.275457e-01
  3.032650e+01    6.957941e-01
  3.034238e+01    7.036998e-01
  3.035825e+01    6.972058e-01
  3.037413e+01    7.207589e-01
  3.039000e+01    7.275355e-01
  3.040588e+01    7.025459e-01
  3.042176e+01    7.175039e-01
  3.043763e+01    7.091792e-01
  3.045351e+01    7.089047e-01
  3.046938e+01    7.108807e-01
  3.048526e+01    7.028033e-01
  3.050113e+01    7.119653e-01
  3.051701e+01    7.300272e-01
  3.053288e+01    7.140812e-01
  3.054876e+01    7.015624e-01
  3.056464e+01    7.067260e-01
  3.058051e+01    7.083079e-01
  3.059639e+01    7.146037e-01
  3.061226e+01    6.964096e-01
  3.062814e+01    7.235287e-01
  3.064401e+01    7.229532e-01
  3.065989e+01    7.078800e-01
  3.067577e+01    7.164190e-01
  3.069164e+01    7.097656e-01
  3.070752e+01    7.042720e-01
  3.072339e+01    7.057517e-01
  3.073927e+01    7.227789e-01
  3.075514e+01    7.139332e-01
  3.077102e+01    7.270675e-01
  3.078689e+01    7.138226e-01
  3.080277e+01    7.139355e-01
  3.081865e+01    7.337567e-01
  3.083452e+01    7.245151e-01
  3.085040e+01    7.053811e-01
  3.086627e+01    7.024018e-01
  3.088215e+01    7.225752e-01
  3.089802e+01    7.254905e-01
  3.091390e+01    7.176145e-01
  3.092977e+01    7.151235e-01
  3.094565e+01    7.202558e-01
  3.096153e+01    7.132874e-01
  3.097740e+01    7.170764e-01
  3.099328e+01    7.141842e-01
  3.100915e+01    7.131335e-01
  3.102503e+01    7.183511e-01
  3.104090e+01    7.197733e-01
  3.105678e+01    7.245748e-01
  3.107265e+01    7.310686e-01
  3.108853e+01    7.201637e-01
  3.110441e+01    7.222602e-01
  3.112028e+01    7.222712e-01
  3.113616e+01    7.219636e-01
  3.115203e+01    7.218998e-01
  3.116791e+01    7.196891e-01
  3.118378e+01    7.271193e-01
  3.119966e+01    7.313868e-01
  3.121553e+01    7.173088e-01
  3.123141e+01    7.240503e-01
  3.124729e+01    7.325340e-01
  3.126316e+01    7.380799e-01
  3.127904e+01    7.349231e-01
  3.129491e+01    7.231725e-01
  3.131079e+01    7.279217e-01
  3.132666e+01    7.357454e-01
  3.134254e+01    7.318807e-01
  3.135841e+01    7.399962e-01
  3.137429e+01    7.393777e-01
  3.139017e+01    7.493609e-01
  3.140604e+01    7.517300e-01
  3.142192e+01    7.814007e-01
  3.143779e+01    7.530800e-01
  3.145367e+01    7.586204e-01
  3.146954e+01    7.690072e-01
  3.148542e+01    7.631958e-01
  3.150129e+01    7.533060e-01
  3.151717e+01    7.500240e-01
  3.153305e+01    7.830166e-01
  3.154892e+01    7.886838e-01
  3.156480e+01    8.032392e-01
  3.158067e+01    8.107339e-01
  3.159655e+01    8.176993e-01
  3.161242e+01    8.415207e-01
  3.162830e+01    8.262075e-01
  3.164418e+01    8.532307e-01
  3.166005e+01    9.013295e-01
  3.167593e+01    9.150177e-01
  3.169180e+01    9.541596e-01
  3.170768e+01    9.843698e-01
  3.172355e+01    1.018597e+00
  3.173943e+01    1.076695e+00
  3.175530e+01    1.163115e+00
  3.177118e+01    1.228843e+00
  3.178706e+01    1.328372e+00
  3.180293e+01    1.433246e+00
  3.181881e+01    1.556625e+00
  3.183468e+01    1.650611e+00
  3.185056e+01    1.842054e+00
  3.186643e+01    2.028238e+00
  3.188231e+01    2.115395e+00
  3.189818e+01    2.168598e+00
  3.191406e+01    2.203115e+00
  3.192994e+01    2.132289e+00
  3.194581e+01    2.007916e+00
  3.196169e+01    1.883759e+00
  3.197756e+01    1.697266e+00
  3.199344e+01    1.553103e+00
  3.200931e+01    1.411440e+00
  3.202519e+01    1.282342e+00
  3.204106e+01    1.202212e+00
  3.205694e+01    1.108457e+00
  3.207282e+01    1.051061e+00
  3.208869e+01    9.874890e-01
  3.210457e+01    9.183311e-01
  3.212044e+01    9.385058e-01
  3.213632e+01    8.964130e-01
  3.215219e+01    8.473496e-01
  3.216807e+01    8.436705e-01
  3.218394e+01    8.374161e-01
  3.219982e+01    8.079002e-01
  3.221570e+01    7.998794e-01
  3.223157e+01    7.899350e-01
  3.224745e+01    7.687148e-01
  3.226332e+01    7.467386e-01
  3.227920e+01    7.561238e-01
  3.229507e+01    7.374243e-01
  3.231095e+01    7.388792e-01
  3.232682e+01    7.446163e-01
  3.234270e+01    7.388497e-01
  3.235858e+01    7.509377e-01
  3.237445e+01    7.116177e-01
  3.239033e+01    7.045440e-01
  3.240620e+01    7.127671e-01
  3.242208e+01    7.239703e-01
  3.243795e+01    7.227481e-01
  3.245383e+01    7.239693e-01
  3.246970e+01    7.057719e-01
  3.248558e+01    7.091528e-01
  3.250146e+01    7.194295e-01
  3.251733e+01    7.206669e-01
  3.253321e+01    7.202014e-01
  3.254908e+01    7.239064e-01
