# == pyFAI calibration ==
# Distance Sample to Detector: 0.3999999939076516 m
# PONI: 9.750e-02, 1.135e-01 m
# Rotations: -0.000175 0.000000 -0.000000 rad
# 
# == Fit2d calibration ==
# Distance Sample-beamCenter: 400.000 mm
# Center: x=1514.000, y=1300.000 pix
# Tilt: 0.010 deg  TiltPlanRot: 0.010 deg
# 
# Detector Detector	 Spline= None	 PixelSize= 7.500e-05, 7.500e-05 m
#    Detector has a mask: False 
#    Detector has a dark current: False 
#    detector has a flat field: False 
# 
# Wavelength: 6.888e-11 m
# Mask applied: user provided
# Dark current applied: False
# Flat field applied: False
# Polarization factor: 0.99
# Normalization factor: 1.0
# --> /home/myspot/data/2024_07_Rosario/Ru-CGO-ex/2024-07-27_002_Ru-CGO-ex_Activtation_ramp_000002_data_000120.dat
#       q_nm^-1             I 
  2.003187e-02    9.938993e-02
  3.590745e-02    2.277141e-01
  5.178302e-02    1.161038e-01
  6.765859e-02    1.890974e-01
  8.353417e-02    2.268910e-01
  9.940974e-02    4.122186e-02
  1.152853e-01    6.257467e-03
  1.311609e-01    7.124533e-02
  1.470365e-01    7.510861e-02
  1.629120e-01    9.534434e-03
  1.787876e-01    0.000000e+00
  1.946632e-01    0.000000e+00
  2.105388e-01    1.404215e-02
  2.264143e-01    1.967845e-02
  2.422899e-01    4.766790e-02
  2.581655e-01    5.531863e-02
  2.740411e-01    6.062753e-02
  2.899166e-01    5.246840e-02
  3.057922e-01    6.386997e-02
  3.216678e-01    3.898472e-02
  3.375433e-01    3.452486e-03
  3.534189e-01    2.467852e-02
  3.692945e-01    3.173425e-02
  3.851701e-01    3.097309e-02
  4.010456e-01    2.270112e-02
  4.169212e-01    5.051984e-02
  4.327968e-01    2.692125e-02
  4.486724e-01    2.419975e-02
  4.645479e-01    1.456420e-02
  4.804235e-01    3.157400e-02
  4.962991e-01    5.028453e-02
  5.121747e-01    4.192942e-02
  5.280502e-01    4.819031e-02
  5.439258e-01    2.450455e-02
  5.598014e-01    2.965319e-02
  5.756770e-01    2.892353e-02
  5.915525e-01    3.044062e-02
  6.074281e-01    3.466424e-02
  6.233037e-01    4.297160e-02
  6.391793e-01    2.617160e-02
  6.550548e-01    2.978083e-02
  6.709304e-01    5.877060e-02
  6.868060e-01    4.453767e-02
  7.026815e-01    1.495165e-02
  7.185571e-01    1.472894e-02
  7.344327e-01    3.484824e-02
  7.503083e-01    2.662300e-02
  7.661838e-01    6.052427e-02
  7.820594e-01    1.171650e-01
  7.979350e-01    1.527649e-01
  8.138106e-01    2.244003e-01
  8.296861e-01    2.634714e-01
  8.455617e-01    3.164132e-01
  8.614373e-01    3.632498e-01
  8.773129e-01    3.938182e-01
  8.931884e-01    5.091024e-01
  9.090640e-01    6.130302e-01
  9.249396e-01    6.094259e-01
  9.408152e-01    6.482163e-01
  9.566907e-01    7.234952e-01
  9.725663e-01    8.245444e-01
  9.884419e-01    9.046220e-01
  1.004317e+00    9.484943e-01
  1.020193e+00    9.405098e-01
  1.036069e+00    1.057841e+00
  1.051944e+00    1.224968e+00
  1.067820e+00    1.333173e+00
  1.083695e+00    1.336212e+00
  1.099571e+00    1.355259e+00
  1.115446e+00    1.410889e+00
  1.131322e+00    1.439835e+00
  1.147198e+00    1.476910e+00
  1.163073e+00    1.563568e+00
  1.178949e+00    1.564545e+00
  1.194824e+00    1.534545e+00
  1.210700e+00    1.820127e+00
  1.226575e+00    2.083053e+00
  1.242451e+00    2.136100e+00
  1.258327e+00    2.303025e+00
  1.274202e+00    2.263547e+00
  1.290078e+00    2.382487e+00
  1.305953e+00    2.441093e+00
  1.321829e+00    2.482563e+00
  1.337705e+00    2.464430e+00
  1.353580e+00    2.461078e+00
  1.369456e+00    2.542725e+00
  1.385331e+00    2.544597e+00
  1.401207e+00    2.476692e+00
  1.417082e+00    2.558361e+00
  1.432958e+00    2.572026e+00
  1.448834e+00    2.582116e+00
  1.464709e+00    2.655021e+00
  1.480585e+00    2.757150e+00
  1.496460e+00    2.971391e+00
  1.512336e+00    2.932033e+00
  1.528211e+00    3.063152e+00
  1.544087e+00    2.895278e+00
  1.559963e+00    2.918318e+00
  1.575838e+00    2.881020e+00
  1.591714e+00    2.897452e+00
  1.607589e+00    2.906668e+00
  1.623465e+00    2.777939e+00
  1.639340e+00    2.697077e+00
  1.655216e+00    2.804069e+00
  1.671092e+00    2.881664e+00
  1.686967e+00    2.861177e+00
  1.702843e+00    2.850671e+00
  1.718718e+00    2.774008e+00
  1.734594e+00    2.705253e+00
  1.750469e+00    2.780283e+00
  1.766345e+00    2.744090e+00
  1.782221e+00    2.677579e+00
  1.798096e+00    2.656160e+00
  1.813972e+00    2.702667e+00
  1.829847e+00    2.743693e+00
  1.845723e+00    2.684373e+00
  1.861598e+00    2.582714e+00
  1.877474e+00    2.679774e+00
  1.893350e+00    2.701911e+00
  1.909225e+00    2.650883e+00
  1.925101e+00    2.667944e+00
  1.940976e+00    2.764810e+00
  1.956852e+00    2.774896e+00
  1.972727e+00    2.710985e+00
  1.988603e+00    2.692530e+00
  2.004479e+00    2.690326e+00
  2.020354e+00    2.647566e+00
  2.036230e+00    2.657973e+00
  2.052105e+00    2.700058e+00
  2.067981e+00    2.673212e+00
  2.083856e+00    2.653479e+00
  2.099732e+00    2.682736e+00
  2.115608e+00    2.688904e+00
  2.131483e+00    2.695832e+00
  2.147359e+00    2.767690e+00
  2.163234e+00    2.719497e+00
  2.179110e+00    2.747066e+00
  2.194985e+00    2.590862e+00
  2.210861e+00    2.511164e+00
  2.226737e+00    2.600962e+00
  2.242612e+00    2.738089e+00
  2.258488e+00    2.784365e+00
  2.274363e+00    2.738067e+00
  2.290239e+00    2.776454e+00
  2.306115e+00    2.721433e+00
  2.321990e+00    2.707623e+00
  2.337866e+00    2.670759e+00
  2.353741e+00    2.707862e+00
  2.369617e+00    2.623580e+00
  2.385492e+00    2.598111e+00
  2.401368e+00    2.669250e+00
  2.417244e+00    2.756024e+00
  2.433119e+00    2.840697e+00
  2.448995e+00    2.806127e+00
  2.464870e+00    2.690744e+00
  2.480746e+00    2.803090e+00
  2.496621e+00    2.813979e+00
  2.512497e+00    2.870026e+00
  2.528373e+00    2.735753e+00
  2.544248e+00    2.748126e+00
  2.560124e+00    2.856024e+00
  2.575999e+00    2.807369e+00
  2.591875e+00    2.806503e+00
  2.607750e+00    2.788980e+00
  2.623626e+00    2.774969e+00
  2.639502e+00    2.797148e+00
  2.655377e+00    2.823104e+00
  2.671253e+00    2.716525e+00
  2.687128e+00    2.705093e+00
  2.703004e+00    2.829137e+00
  2.718879e+00    2.722371e+00
  2.734755e+00    2.760153e+00
  2.750631e+00    2.807492e+00
  2.766506e+00    2.747701e+00
  2.782382e+00    2.718106e+00
  2.798257e+00    2.793913e+00
  2.814133e+00    2.786280e+00
  2.830008e+00    2.667416e+00
  2.845884e+00    2.685331e+00
  2.861760e+00    2.767571e+00
  2.877635e+00    2.707864e+00
  2.893511e+00    2.753213e+00
  2.909386e+00    2.825088e+00
  2.925262e+00    2.907492e+00
  2.941137e+00    2.773229e+00
  2.957013e+00    2.811667e+00
  2.972889e+00    2.911797e+00
  2.988764e+00    2.833363e+00
  3.004640e+00    2.798894e+00
  3.020515e+00    2.769113e+00
  3.036391e+00    2.782334e+00
  3.052266e+00    2.820088e+00
  3.068142e+00    2.791345e+00
  3.084018e+00    2.908040e+00
  3.099893e+00    2.868544e+00
  3.115769e+00    2.866159e+00
  3.131644e+00    2.859507e+00
  3.147520e+00    2.821667e+00
  3.163395e+00    2.655933e+00
  3.179271e+00    2.816452e+00
  3.195147e+00    2.835154e+00
  3.211022e+00    2.879825e+00
  3.226898e+00    2.924345e+00
  3.242773e+00    2.901540e+00
  3.258649e+00    2.828426e+00
  3.274525e+00    2.826788e+00
  3.290400e+00    2.780787e+00
  3.306276e+00    2.904725e+00
  3.322151e+00    2.928683e+00
  3.338027e+00    2.911276e+00
  3.353902e+00    2.918374e+00
  3.369778e+00    2.883262e+00
  3.385654e+00    2.855614e+00
  3.401529e+00    2.768796e+00
  3.417405e+00    2.825197e+00
  3.433280e+00    2.872957e+00
  3.449156e+00    2.918242e+00
  3.465031e+00    2.884277e+00
  3.480907e+00    2.899685e+00
  3.496783e+00    2.857790e+00
  3.512658e+00    2.840662e+00
  3.528534e+00    2.870642e+00
  3.544409e+00    2.822461e+00
  3.560285e+00    2.875333e+00
  3.576160e+00    2.946792e+00
  3.592036e+00    2.912471e+00
  3.607912e+00    2.882698e+00
  3.623787e+00    2.925217e+00
  3.639663e+00    2.925467e+00
  3.655538e+00    2.871787e+00
  3.671414e+00    2.908115e+00
  3.687289e+00    2.879578e+00
  3.703165e+00    2.872620e+00
  3.719041e+00    2.900412e+00
  3.734916e+00    2.918200e+00
  3.750792e+00    2.937890e+00
  3.766667e+00    2.916915e+00
  3.782543e+00    2.958814e+00
  3.798418e+00    2.982884e+00
  3.814294e+00    2.916956e+00
  3.830170e+00    2.917277e+00
  3.846045e+00    2.854806e+00
  3.861921e+00    2.928494e+00
  3.877796e+00    2.943157e+00
  3.893672e+00    2.992264e+00
  3.909547e+00    2.968751e+00
  3.925423e+00    2.921435e+00
  3.941299e+00    2.912878e+00
  3.957174e+00    2.928630e+00
  3.973050e+00    2.903704e+00
  3.988925e+00    2.932671e+00
  4.004801e+00    2.993065e+00
  4.020676e+00    2.977418e+00
  4.036552e+00    2.949216e+00
  4.052428e+00    2.983156e+00
  4.068303e+00    3.025302e+00
  4.084179e+00    2.939487e+00
  4.100054e+00    2.958555e+00
  4.115930e+00    2.959238e+00
  4.131806e+00    3.005903e+00
  4.147681e+00    3.032595e+00
  4.163557e+00    2.914345e+00
  4.179432e+00    2.961298e+00
  4.195308e+00    3.046770e+00
  4.211183e+00    3.086881e+00
  4.227059e+00    3.031392e+00
  4.242935e+00    2.904637e+00
  4.258810e+00    2.928153e+00
  4.274686e+00    2.973748e+00
  4.290561e+00    2.918547e+00
  4.306437e+00    2.952377e+00
  4.322312e+00    2.997838e+00
  4.338188e+00    3.038840e+00
  4.354064e+00    3.016748e+00
  4.369939e+00    2.981921e+00
  4.385815e+00    3.007628e+00
  4.401690e+00    3.020222e+00
  4.417566e+00    2.944735e+00
  4.433441e+00    2.995366e+00
  4.449317e+00    3.054666e+00
  4.465193e+00    3.061700e+00
  4.481068e+00    3.034003e+00
  4.496944e+00    3.085529e+00
  4.512819e+00    3.058635e+00
  4.528695e+00    3.073191e+00
  4.544570e+00    3.007272e+00
  4.560446e+00    3.015597e+00
  4.576322e+00    3.025598e+00
  4.592197e+00    3.061625e+00
  4.608073e+00    3.131538e+00
  4.623948e+00    3.063543e+00
  4.639824e+00    3.045856e+00
  4.655699e+00    3.060642e+00
  4.671575e+00    3.098430e+00
  4.687451e+00    3.052979e+00
  4.703326e+00    3.103684e+00
  4.719202e+00    3.067092e+00
  4.735077e+00    3.039514e+00
  4.750953e+00    3.058639e+00
  4.766828e+00    3.052981e+00
  4.782704e+00    3.060200e+00
  4.798580e+00    3.044188e+00
  4.814455e+00    3.074027e+00
  4.830331e+00    3.043199e+00
  4.846206e+00    2.997101e+00
  4.862082e+00    3.043571e+00
  4.877957e+00    2.970812e+00
  4.893833e+00    3.018319e+00
  4.909709e+00    3.067989e+00
  4.925584e+00    3.046085e+00
  4.941460e+00    3.151875e+00
  4.957335e+00    3.141021e+00
  4.973211e+00    3.072273e+00
  4.989086e+00    3.105758e+00
  5.004962e+00    3.078915e+00
  5.020838e+00    3.059405e+00
  5.036713e+00    3.103697e+00
  5.052589e+00    3.130389e+00
  5.068464e+00    3.068307e+00
  5.084340e+00    3.059010e+00
  5.100216e+00    3.108159e+00
  5.116091e+00    3.116091e+00
  5.131967e+00    3.090465e+00
  5.147842e+00    3.015089e+00
  5.163718e+00    3.058323e+00
  5.179593e+00    3.061707e+00
  5.195469e+00    3.079394e+00
  5.211345e+00    3.071719e+00
  5.227220e+00    3.000855e+00
  5.243096e+00    3.091039e+00
  5.258971e+00    3.103295e+00
  5.274847e+00    3.075894e+00
  5.290722e+00    3.078250e+00
  5.306598e+00    3.061998e+00
  5.322474e+00    3.082440e+00
  5.338349e+00    3.121293e+00
  5.354225e+00    3.073667e+00
  5.370100e+00    3.037337e+00
  5.385976e+00    3.113799e+00
  5.401851e+00    3.063309e+00
  5.417727e+00    2.991397e+00
  5.433603e+00    3.027846e+00
  5.449478e+00    3.079891e+00
  5.465354e+00    3.045027e+00
  5.481229e+00    3.055077e+00
  5.497105e+00    3.073360e+00
  5.512980e+00    3.075430e+00
  5.528856e+00    3.125488e+00
  5.544732e+00    3.092174e+00
  5.560607e+00    2.966490e+00
  5.576483e+00    2.958273e+00
  5.592358e+00    3.009964e+00
  5.608234e+00    2.991453e+00
  5.624109e+00    2.999526e+00
  5.639985e+00    3.062872e+00
  5.655861e+00    3.084550e+00
  5.671736e+00    3.060002e+00
  5.687612e+00    2.993097e+00
  5.703487e+00    3.040859e+00
  5.719363e+00    3.020856e+00
  5.735238e+00    2.917503e+00
  5.751114e+00    2.925339e+00
  5.766990e+00    2.933567e+00
  5.782865e+00    2.963151e+00
  5.798741e+00    2.985728e+00
  5.814616e+00    3.025842e+00
  5.830492e+00    3.020756e+00
  5.846367e+00    2.998936e+00
  5.862243e+00    3.037578e+00
  5.878119e+00    2.958036e+00
  5.893994e+00    2.911646e+00
  5.909870e+00    2.954767e+00
  5.925745e+00    2.971043e+00
  5.941621e+00    2.913312e+00
  5.957497e+00    2.990296e+00
  5.973372e+00    2.989448e+00
  5.989248e+00    3.013149e+00
  6.005123e+00    3.014456e+00
  6.020999e+00    2.961433e+00
  6.036874e+00    3.007221e+00
  6.052750e+00    2.996106e+00
  6.068626e+00    2.971481e+00
  6.084501e+00    2.948572e+00
  6.100377e+00    3.030490e+00
  6.116252e+00    3.001097e+00
  6.132128e+00    2.978802e+00
  6.148003e+00    2.964695e+00
  6.163879e+00    3.027686e+00
  6.179755e+00    2.994389e+00
  6.195630e+00    2.981200e+00
  6.211506e+00    2.963607e+00
  6.227381e+00    3.041773e+00
  6.243257e+00    3.024193e+00
  6.259132e+00    3.061405e+00
  6.275008e+00    3.031242e+00
  6.290884e+00    2.985666e+00
  6.306759e+00    2.943876e+00
  6.322635e+00    2.935300e+00
  6.338510e+00    2.983940e+00
  6.354386e+00    3.005192e+00
  6.370261e+00    2.964347e+00
  6.386137e+00    2.962800e+00
  6.402013e+00    2.933319e+00
  6.417888e+00    2.947424e+00
  6.433764e+00    2.947176e+00
  6.449639e+00    2.939236e+00
  6.465515e+00    2.965944e+00
  6.481390e+00    2.956816e+00
  6.497266e+00    2.949293e+00
  6.513142e+00    2.958063e+00
  6.529017e+00    2.999212e+00
  6.544893e+00    2.987112e+00
  6.560768e+00    2.948883e+00
  6.576644e+00    2.898159e+00
  6.592519e+00    2.941797e+00
  6.608395e+00    3.026095e+00
  6.624271e+00    3.008601e+00
  6.640146e+00    3.018760e+00
  6.656022e+00    3.000798e+00
  6.671897e+00    2.980924e+00
  6.687773e+00    2.976985e+00
  6.703648e+00    2.977912e+00
  6.719524e+00    3.001034e+00
  6.735400e+00    2.970343e+00
  6.751275e+00    2.926709e+00
  6.767151e+00    2.912916e+00
  6.783026e+00    2.996529e+00
  6.798902e+00    2.935946e+00
  6.814777e+00    3.013658e+00
  6.830653e+00    2.988431e+00
  6.846529e+00    2.915941e+00
  6.862404e+00    2.969398e+00
  6.878280e+00    2.963753e+00
  6.894155e+00    2.894923e+00
  6.910031e+00    2.947370e+00
  6.925907e+00    2.978819e+00
  6.941782e+00    2.966417e+00
  6.957658e+00    2.900354e+00
  6.973533e+00    2.966363e+00
  6.989409e+00    2.949446e+00
  7.005284e+00    2.979458e+00
  7.021160e+00    2.953143e+00
  7.037036e+00    3.029400e+00
  7.052911e+00    2.983135e+00
  7.068787e+00    3.003659e+00
  7.084662e+00    3.031974e+00
  7.100538e+00    2.937406e+00
  7.116413e+00    2.972347e+00
  7.132289e+00    2.953796e+00
  7.148165e+00    2.985267e+00
  7.164040e+00    2.941929e+00
  7.179916e+00    2.991040e+00
  7.195791e+00    2.951062e+00
  7.211667e+00    2.959456e+00
  7.227542e+00    2.942997e+00
  7.243418e+00    2.949143e+00
  7.259294e+00    3.032274e+00
  7.275169e+00    2.918081e+00
  7.291045e+00    2.894152e+00
  7.306920e+00    2.929926e+00
  7.322796e+00    2.946518e+00
  7.338671e+00    2.954577e+00
  7.354547e+00    2.948393e+00
  7.370423e+00    2.941200e+00
  7.386298e+00    2.965405e+00
  7.402174e+00    2.960906e+00
  7.418049e+00    2.986117e+00
  7.433925e+00    2.929880e+00
  7.449800e+00    2.903816e+00
  7.465676e+00    2.930557e+00
  7.481552e+00    2.956978e+00
  7.497427e+00    2.977113e+00
  7.513303e+00    2.963454e+00
  7.529178e+00    2.936561e+00
  7.545054e+00    2.904552e+00
  7.560929e+00    2.875694e+00
  7.576805e+00    2.892356e+00
  7.592681e+00    2.950470e+00
  7.608556e+00    2.971842e+00
  7.624432e+00    2.907874e+00
  7.640307e+00    2.896192e+00
  7.656183e+00    2.905403e+00
  7.672058e+00    2.869907e+00
  7.687934e+00    2.896875e+00
  7.703810e+00    2.891681e+00
  7.719685e+00    2.950151e+00
  7.735561e+00    2.872191e+00
  7.751436e+00    2.878990e+00
  7.767312e+00    2.846401e+00
  7.783187e+00    2.868701e+00
  7.799063e+00    2.867600e+00
  7.814939e+00    2.842472e+00
  7.830814e+00    2.869209e+00
  7.846690e+00    2.939542e+00
  7.862565e+00    2.876130e+00
  7.878441e+00    2.849242e+00
  7.894317e+00    2.895527e+00
  7.910192e+00    2.909013e+00
  7.926068e+00    2.887541e+00
  7.941943e+00    2.930770e+00
  7.957819e+00    2.898971e+00
  7.973694e+00    2.856806e+00
  7.989570e+00    2.821995e+00
  8.005446e+00    2.859394e+00
  8.021321e+00    2.831261e+00
  8.037197e+00    2.810672e+00
  8.053072e+00    2.860404e+00
  8.068948e+00    2.839255e+00
  8.084823e+00    2.876433e+00
  8.100699e+00    2.925831e+00
  8.116575e+00    2.926684e+00
  8.132450e+00    2.901938e+00
  8.148326e+00    2.830358e+00
  8.164201e+00    2.933974e+00
  8.180077e+00    3.014823e+00
  8.195952e+00    2.945427e+00
  8.211828e+00    2.955343e+00
  8.227704e+00    2.923103e+00
  8.243579e+00    2.953278e+00
  8.259455e+00    2.955119e+00
  8.275330e+00    2.922267e+00
  8.291206e+00    2.866576e+00
  8.307081e+00    2.885086e+00
  8.322957e+00    2.928711e+00
  8.338833e+00    2.879217e+00
  8.354708e+00    2.908517e+00
  8.370584e+00    2.820361e+00
  8.386459e+00    2.802897e+00
  8.402335e+00    2.855750e+00
  8.418210e+00    2.886229e+00
  8.434086e+00    2.914915e+00
  8.449962e+00    2.811651e+00
  8.465837e+00    2.886744e+00
  8.481713e+00    2.895916e+00
  8.497588e+00    2.835951e+00
  8.513464e+00    2.827055e+00
  8.529339e+00    2.822869e+00
  8.545215e+00    2.781939e+00
  8.561091e+00    2.796254e+00
  8.576966e+00    2.782620e+00
  8.592842e+00    2.853027e+00
  8.608717e+00    2.817437e+00
  8.624593e+00    2.814254e+00
  8.640468e+00    2.766090e+00
  8.656344e+00    2.795545e+00
  8.672220e+00    2.796818e+00
  8.688095e+00    2.768986e+00
  8.703971e+00    2.794578e+00
  8.719846e+00    2.803515e+00
  8.735722e+00    2.761410e+00
  8.751598e+00    2.765413e+00
  8.767473e+00    2.750727e+00
  8.783349e+00    2.774748e+00
  8.799224e+00    2.801031e+00
  8.815100e+00    2.799366e+00
  8.830975e+00    2.771816e+00
  8.846851e+00    2.761426e+00
  8.862727e+00    2.800189e+00
  8.878602e+00    2.793998e+00
  8.894478e+00    2.839975e+00
  8.910353e+00    2.790067e+00
  8.926229e+00    2.790599e+00
  8.942104e+00    2.758600e+00
  8.957980e+00    2.746374e+00
  8.973856e+00    2.746193e+00
  8.989731e+00    2.839645e+00
  9.005607e+00    2.801608e+00
  9.021482e+00    2.761774e+00
  9.037358e+00    2.744789e+00
  9.053233e+00    2.708325e+00
  9.069109e+00    2.695272e+00
  9.084985e+00    2.714202e+00
  9.100860e+00    2.765915e+00
  9.116736e+00    2.741667e+00
  9.132611e+00    2.767309e+00
  9.148487e+00    2.776609e+00
  9.164362e+00    2.788039e+00
  9.180238e+00    2.755556e+00
  9.196114e+00    2.720152e+00
  9.211989e+00    2.668889e+00
  9.227865e+00    2.706535e+00
  9.243740e+00    2.704741e+00
  9.259616e+00    2.729391e+00
  9.275491e+00    2.713735e+00
  9.291367e+00    2.746367e+00
  9.307243e+00    2.740723e+00
  9.323118e+00    2.724645e+00
  9.338994e+00    2.772163e+00
  9.354869e+00    2.746022e+00
  9.370745e+00    2.717631e+00
  9.386620e+00    2.726336e+00
  9.402496e+00    2.707654e+00
  9.418372e+00    2.717141e+00
  9.434247e+00    2.754365e+00
  9.450123e+00    2.695272e+00
  9.465998e+00    2.695975e+00
  9.481874e+00    2.735054e+00
  9.497749e+00    2.764155e+00
  9.513625e+00    2.715376e+00
  9.529501e+00    2.746573e+00
  9.545376e+00    2.757178e+00
  9.561252e+00    2.736183e+00
  9.577127e+00    2.701767e+00
  9.593003e+00    2.688629e+00
  9.608878e+00    2.703879e+00
  9.624754e+00    2.713097e+00
  9.640630e+00    2.689901e+00
  9.656505e+00    2.624601e+00
  9.672381e+00    2.623030e+00
  9.688256e+00    2.671582e+00
  9.704132e+00    2.651023e+00
  9.720008e+00    2.649090e+00
  9.735883e+00    2.631949e+00
  9.751759e+00    2.651768e+00
  9.767634e+00    2.693228e+00
  9.783510e+00    2.665356e+00
  9.799385e+00    2.657517e+00
  9.815261e+00    2.657929e+00
  9.831137e+00    2.619107e+00
  9.847012e+00    2.658775e+00
  9.862888e+00    2.652497e+00
  9.878763e+00    2.661915e+00
  9.894639e+00    2.609066e+00
  9.910514e+00    2.656045e+00
  9.926390e+00    2.640904e+00
  9.942266e+00    2.593464e+00
  9.958141e+00    2.594782e+00
  9.974017e+00    2.659537e+00
  9.989892e+00    2.662368e+00
  1.000577e+01    2.668850e+00
  1.002164e+01    2.680805e+00
  1.003752e+01    2.631076e+00
  1.005339e+01    2.628421e+00
  1.006927e+01    2.644721e+00
  1.008515e+01    2.636402e+00
  1.010102e+01    2.609977e+00
  1.011690e+01    2.634329e+00
  1.013277e+01    2.618750e+00
  1.014865e+01    2.621810e+00
  1.016452e+01    2.583654e+00
  1.018040e+01    2.523617e+00
  1.019627e+01    2.529031e+00
  1.021215e+01    2.563049e+00
  1.022803e+01    2.595223e+00
  1.024390e+01    2.582780e+00
  1.025978e+01    2.571714e+00
  1.027565e+01    2.507180e+00
  1.029153e+01    2.568946e+00
  1.030740e+01    2.587572e+00
  1.032328e+01    2.588098e+00
  1.033915e+01    2.610718e+00
  1.035503e+01    2.552593e+00
  1.037091e+01    2.587674e+00
  1.038678e+01    2.514709e+00
  1.040266e+01    2.565724e+00
  1.041853e+01    2.605876e+00
  1.043441e+01    2.621140e+00
  1.045028e+01    2.615740e+00
  1.046616e+01    2.584361e+00
  1.048204e+01    2.561924e+00
  1.049791e+01    2.544263e+00
  1.051379e+01    2.517765e+00
  1.052966e+01    2.553018e+00
  1.054554e+01    2.582703e+00
  1.056141e+01    2.569216e+00
  1.057729e+01    2.534597e+00
  1.059316e+01    2.523509e+00
  1.060904e+01    2.537248e+00
  1.062492e+01    2.509736e+00
  1.064079e+01    2.533045e+00
  1.065667e+01    2.598067e+00
  1.067254e+01    2.554634e+00
  1.068842e+01    2.562130e+00
  1.070429e+01    2.538308e+00
  1.072017e+01    2.509745e+00
  1.073604e+01    2.484180e+00
  1.075192e+01    2.508745e+00
  1.076780e+01    2.472296e+00
  1.078367e+01    2.494359e+00
  1.079955e+01    2.503047e+00
  1.081542e+01    2.472832e+00
  1.083130e+01    2.460787e+00
  1.084717e+01    2.486037e+00
  1.086305e+01    2.515382e+00
  1.087892e+01    2.504626e+00
  1.089480e+01    2.500092e+00
  1.091068e+01    2.471195e+00
  1.092655e+01    2.474580e+00
  1.094243e+01    2.499453e+00
  1.095830e+01    2.455470e+00
  1.097418e+01    2.464028e+00
  1.099005e+01    2.422194e+00
  1.100593e+01    2.408831e+00
  1.102180e+01    2.377444e+00
  1.103768e+01    2.438215e+00
  1.105356e+01    2.443274e+00
  1.106943e+01    2.450416e+00
  1.108531e+01    2.441726e+00
  1.110118e+01    2.341290e+00
  1.111706e+01    2.364520e+00
  1.113293e+01    2.413768e+00
  1.114881e+01    2.446209e+00
  1.116468e+01    2.493119e+00
  1.118056e+01    2.437052e+00
  1.119644e+01    2.438328e+00
  1.121231e+01    2.427420e+00
  1.122819e+01    2.407192e+00
  1.124406e+01    2.384710e+00
  1.125994e+01    2.395216e+00
  1.127581e+01    2.405941e+00
  1.129169e+01    2.367521e+00
  1.130756e+01    2.345217e+00
  1.132344e+01    2.375068e+00
  1.133932e+01    2.389813e+00
  1.135519e+01    2.419049e+00
  1.137107e+01    2.408188e+00
  1.138694e+01    2.401078e+00
  1.140282e+01    2.402872e+00
  1.141869e+01    2.399273e+00
  1.143457e+01    2.431611e+00
  1.145045e+01    2.382202e+00
  1.146632e+01    2.370969e+00
  1.148220e+01    2.374000e+00
  1.149807e+01    2.352029e+00
  1.151395e+01    2.310547e+00
  1.152982e+01    2.339993e+00
  1.154570e+01    2.359335e+00
  1.156157e+01    2.328577e+00
  1.157745e+01    2.349006e+00
  1.159333e+01    2.347820e+00
  1.160920e+01    2.332313e+00
  1.162508e+01    2.374132e+00
  1.164095e+01    2.343245e+00
  1.165683e+01    2.311043e+00
  1.167270e+01    2.309846e+00
  1.168858e+01    2.363587e+00
  1.170445e+01    2.377419e+00
  1.172033e+01    2.330343e+00
  1.173621e+01    2.257544e+00
  1.175208e+01    2.304146e+00
  1.176796e+01    2.323309e+00
  1.178383e+01    2.337841e+00
  1.179971e+01    2.295685e+00
  1.181558e+01    2.289748e+00
  1.183146e+01    2.294295e+00
  1.184733e+01    2.308326e+00
  1.186321e+01    2.337088e+00
  1.187909e+01    2.327334e+00
  1.189496e+01    2.305563e+00
  1.191084e+01    2.298792e+00
  1.192671e+01    2.301267e+00
  1.194259e+01    2.331048e+00
  1.195846e+01    2.354165e+00
  1.197434e+01    2.325092e+00
  1.199021e+01    2.305735e+00
  1.200609e+01    2.316595e+00
  1.202197e+01    2.332919e+00
  1.203784e+01    2.301494e+00
  1.205372e+01    2.261134e+00
  1.206959e+01    2.275234e+00
  1.208547e+01    2.233433e+00
  1.210134e+01    2.258989e+00
  1.211722e+01    2.253007e+00
  1.213309e+01    2.253669e+00
  1.214897e+01    2.274484e+00
  1.216485e+01    2.270797e+00
  1.218072e+01    2.260247e+00
  1.219660e+01    2.223887e+00
  1.221247e+01    2.273082e+00
  1.222835e+01    2.299498e+00
  1.224422e+01    2.340430e+00
  1.226010e+01    2.269709e+00
  1.227597e+01    2.262000e+00
  1.229185e+01    2.248525e+00
  1.230773e+01    2.277308e+00
  1.232360e+01    2.280797e+00
  1.233948e+01    2.287471e+00
  1.235535e+01    2.233391e+00
  1.237123e+01    2.283334e+00
  1.238710e+01    2.310715e+00
  1.240298e+01    2.306259e+00
  1.241886e+01    2.313864e+00
  1.243473e+01    2.276243e+00
  1.245061e+01    2.268503e+00
  1.246648e+01    2.277591e+00
  1.248236e+01    2.326607e+00
  1.249823e+01    2.311348e+00
  1.251411e+01    2.332374e+00
  1.252998e+01    2.305638e+00
  1.254586e+01    2.303660e+00
  1.256174e+01    2.315155e+00
  1.257761e+01    2.338697e+00
  1.259349e+01    2.318197e+00
  1.260936e+01    2.337720e+00
  1.262524e+01    2.320403e+00
  1.264111e+01    2.338281e+00
  1.265699e+01    2.381973e+00
  1.267286e+01    2.413513e+00
  1.268874e+01    2.443417e+00
  1.270462e+01    2.418215e+00
  1.272049e+01    2.481837e+00
  1.273637e+01    2.488405e+00
  1.275224e+01    2.530809e+00
  1.276812e+01    2.557148e+00
  1.278399e+01    2.580662e+00
  1.279987e+01    2.627625e+00
  1.281574e+01    2.627218e+00
  1.283162e+01    2.698312e+00
  1.284750e+01    2.776449e+00
  1.286337e+01    2.888270e+00
  1.287925e+01    2.988154e+00
  1.289512e+01    3.051569e+00
  1.291100e+01    3.264636e+00
  1.292687e+01    3.479586e+00
  1.294275e+01    3.694172e+00
  1.295862e+01    3.969035e+00
  1.297450e+01    4.305552e+00
  1.299038e+01    4.787159e+00
  1.300625e+01    5.358721e+00
  1.302213e+01    6.088513e+00
  1.303800e+01    6.995131e+00
  1.305388e+01    8.117438e+00
  1.306975e+01    9.295422e+00
  1.308563e+01    1.063975e+01
  1.310150e+01    1.203695e+01
  1.311738e+01    1.332181e+01
  1.313326e+01    1.454937e+01
  1.314913e+01    1.563496e+01
  1.316501e+01    1.663847e+01
  1.318088e+01    1.728025e+01
  1.319676e+01    1.713010e+01
  1.321263e+01    1.605259e+01
  1.322851e+01    1.426593e+01
  1.324438e+01    1.216146e+01
  1.326026e+01    1.027848e+01
  1.327614e+01    8.560070e+00
  1.329201e+01    7.267550e+00
  1.330789e+01    6.312007e+00
  1.332376e+01    5.561953e+00
  1.333964e+01    4.897372e+00
  1.335551e+01    4.373317e+00
  1.337139e+01    4.010518e+00
  1.338727e+01    3.803313e+00
  1.340314e+01    3.528054e+00
  1.341902e+01    3.295182e+00
  1.343489e+01    3.148371e+00
  1.345077e+01    3.010364e+00
  1.346664e+01    2.893212e+00
  1.348252e+01    2.797103e+00
  1.349839e+01    2.679390e+00
  1.351427e+01    2.592426e+00
  1.353015e+01    2.584079e+00
  1.354602e+01    2.483603e+00
  1.356190e+01    2.427440e+00
  1.357777e+01    2.399328e+00
  1.359365e+01    2.381647e+00
  1.360952e+01    2.316329e+00
  1.362540e+01    2.272487e+00
  1.364127e+01    2.269985e+00
  1.365715e+01    2.260250e+00
  1.367303e+01    2.256526e+00
  1.368890e+01    2.240345e+00
  1.370478e+01    2.241204e+00
  1.372065e+01    2.170648e+00
  1.373653e+01    2.138775e+00
  1.375240e+01    2.186446e+00
  1.376828e+01    2.200835e+00
  1.378415e+01    2.107708e+00
  1.380003e+01    2.120604e+00
  1.381591e+01    2.131307e+00
  1.383178e+01    2.105079e+00
  1.384766e+01    2.097066e+00
  1.386353e+01    2.099685e+00
  1.387941e+01    2.086651e+00
  1.389528e+01    2.039052e+00
  1.391116e+01    1.999900e+00
  1.392703e+01    2.043240e+00
  1.394291e+01    2.032943e+00
  1.395879e+01    2.047715e+00
  1.397466e+01    2.034326e+00
  1.399054e+01    2.012568e+00
  1.400641e+01    2.016031e+00
  1.402229e+01    2.041765e+00
  1.403816e+01    1.978762e+00
  1.405404e+01    1.995712e+00
  1.406991e+01    2.013319e+00
  1.408579e+01    2.001174e+00
  1.410167e+01    1.997986e+00
  1.411754e+01    1.997923e+00
  1.413342e+01    2.010149e+00
  1.414929e+01    1.993733e+00
  1.416517e+01    1.958175e+00
  1.418104e+01    1.945273e+00
  1.419692e+01    1.961669e+00
  1.421279e+01    1.977841e+00
  1.422867e+01    1.919253e+00
  1.424455e+01    1.934691e+00
  1.426042e+01    1.961079e+00
  1.427630e+01    1.917723e+00
  1.429217e+01    1.920701e+00
  1.430805e+01    1.932942e+00
  1.432392e+01    1.923802e+00
  1.433980e+01    1.887896e+00
  1.435568e+01    1.895307e+00
  1.437155e+01    1.937367e+00
  1.438743e+01    1.928379e+00
  1.440330e+01    1.936089e+00
  1.441918e+01    1.925659e+00
  1.443505e+01    1.903447e+00
  1.445093e+01    1.911182e+00
  1.446680e+01    1.907166e+00
  1.448268e+01    1.904635e+00
  1.449856e+01    1.901447e+00
  1.451443e+01    1.919002e+00
  1.453031e+01    1.896600e+00
  1.454618e+01    1.911236e+00
  1.456206e+01    1.905649e+00
  1.457793e+01    1.899382e+00
  1.459381e+01    1.882639e+00
  1.460968e+01    1.893589e+00
  1.462556e+01    1.926336e+00
  1.464144e+01    1.900367e+00
  1.465731e+01    1.860207e+00
  1.467319e+01    1.885869e+00
  1.468906e+01    1.879840e+00
  1.470494e+01    1.848163e+00
  1.472081e+01    1.849566e+00
  1.473669e+01    1.918385e+00
  1.475256e+01    1.862160e+00
  1.476844e+01    1.861153e+00
  1.478432e+01    1.898551e+00
  1.480019e+01    1.894582e+00
  1.481607e+01    1.897591e+00
  1.483194e+01    1.874423e+00
  1.484782e+01    1.836636e+00
  1.486369e+01    1.870163e+00
  1.487957e+01    1.895479e+00
  1.489544e+01    1.930329e+00
  1.491132e+01    1.930295e+00
  1.492720e+01    1.959912e+00
  1.494307e+01    1.960207e+00
  1.495895e+01    1.986693e+00
  1.497482e+01    2.017776e+00
  1.499070e+01    2.062710e+00
  1.500657e+01    2.117768e+00
  1.502245e+01    2.184577e+00
  1.503832e+01    2.273201e+00
  1.505420e+01    2.401612e+00
  1.507008e+01    2.508281e+00
  1.508595e+01    2.639133e+00
  1.510183e+01    2.857491e+00
  1.511770e+01    3.122655e+00
  1.513358e+01    3.427848e+00
  1.514945e+01    3.716552e+00
  1.516533e+01    4.092660e+00
  1.518120e+01    4.513958e+00
  1.519708e+01    4.864803e+00
  1.521296e+01    5.163537e+00
  1.522883e+01    5.482883e+00
  1.524471e+01    5.679078e+00
  1.526058e+01    5.791027e+00
  1.527646e+01    5.845969e+00
  1.529233e+01    5.727018e+00
  1.530821e+01    5.398023e+00
  1.532409e+01    4.949764e+00
  1.533996e+01    4.409923e+00
  1.535584e+01    3.892587e+00
  1.537171e+01    3.477825e+00
  1.538759e+01    3.175048e+00
  1.540346e+01    2.902719e+00
  1.541934e+01    2.627753e+00
  1.543521e+01    2.472359e+00
  1.545109e+01    2.288587e+00
  1.546697e+01    2.199298e+00
  1.548284e+01    2.140441e+00
  1.549872e+01    2.067354e+00
  1.551459e+01    2.007323e+00
  1.553047e+01    1.951825e+00
  1.554634e+01    1.887522e+00
  1.556222e+01    1.867566e+00
  1.557809e+01    1.829847e+00
  1.559397e+01    1.790713e+00
  1.560985e+01    1.807335e+00
  1.562572e+01    1.785612e+00
  1.564160e+01    1.777090e+00
  1.565747e+01    1.743676e+00
  1.567335e+01    1.730639e+00
  1.568922e+01    1.739345e+00
  1.570510e+01    1.715490e+00
  1.572097e+01    1.669946e+00
  1.573685e+01    1.672149e+00
  1.575273e+01    1.658876e+00
  1.576860e+01    1.666044e+00
  1.578448e+01    1.678397e+00
  1.580035e+01    1.652214e+00
  1.581623e+01    1.617700e+00
  1.583210e+01    1.608263e+00
  1.584798e+01    1.620432e+00
  1.586385e+01    1.640204e+00
  1.587973e+01    1.644596e+00
  1.589561e+01    1.635789e+00
  1.591148e+01    1.600950e+00
  1.592736e+01    1.559609e+00
  1.594323e+01    1.597423e+00
  1.595911e+01    1.563271e+00
  1.597498e+01    1.569456e+00
  1.599086e+01    1.580217e+00
  1.600673e+01    1.585037e+00
  1.602261e+01    1.608188e+00
  1.603849e+01    1.593524e+00
  1.605436e+01    1.585900e+00
  1.607024e+01    1.583235e+00
  1.608611e+01    1.582075e+00
  1.610199e+01    1.564352e+00
  1.611786e+01    1.566259e+00
  1.613374e+01    1.564339e+00
  1.614961e+01    1.531519e+00
  1.616549e+01    1.550112e+00
  1.618137e+01    1.540022e+00
  1.619724e+01    1.553069e+00
  1.621312e+01    1.539125e+00
  1.622899e+01    1.522634e+00
  1.624487e+01    1.509384e+00
  1.626074e+01    1.531240e+00
  1.627662e+01    1.546371e+00
  1.629250e+01    1.525025e+00
  1.630837e+01    1.516495e+00
  1.632425e+01    1.520654e+00
  1.634012e+01    1.529962e+00
  1.635600e+01    1.524289e+00
  1.637187e+01    1.474362e+00
  1.638775e+01    1.475931e+00
  1.640362e+01    1.490484e+00
  1.641950e+01    1.473053e+00
  1.643538e+01    1.506247e+00
  1.645125e+01    1.505994e+00
  1.646713e+01    1.499939e+00
  1.648300e+01    1.516473e+00
  1.649888e+01    1.484162e+00
  1.651475e+01    1.488395e+00
  1.653063e+01    1.464302e+00
  1.654650e+01    1.478474e+00
  1.656238e+01    1.488180e+00
  1.657826e+01    1.489905e+00
  1.659413e+01    1.485693e+00
  1.661001e+01    1.450333e+00
  1.662588e+01    1.443951e+00
  1.664176e+01    1.455405e+00
  1.665763e+01    1.453534e+00
  1.667351e+01    1.479840e+00
  1.668938e+01    1.476161e+00
  1.670526e+01    1.492455e+00
  1.672114e+01    1.467843e+00
  1.673701e+01    1.433243e+00
  1.675289e+01    1.424823e+00
  1.676876e+01    1.429761e+00
  1.678464e+01    1.421120e+00
  1.680051e+01    1.427296e+00
  1.681639e+01    1.444019e+00
  1.683226e+01    1.466437e+00
  1.684814e+01    1.447991e+00
  1.686402e+01    1.422257e+00
  1.687989e+01    1.423682e+00
  1.689577e+01    1.415004e+00
  1.691164e+01    1.412490e+00
  1.692752e+01    1.408303e+00
  1.694339e+01    1.401957e+00
  1.695927e+01    1.388486e+00
  1.697514e+01    1.430115e+00
  1.699102e+01    1.451352e+00
  1.700690e+01    1.434650e+00
  1.702277e+01    1.412833e+00
  1.703865e+01    1.410214e+00
  1.705452e+01    1.421698e+00
  1.707040e+01    1.406015e+00
  1.708627e+01    1.354543e+00
  1.710215e+01    1.358011e+00
  1.711802e+01    1.367887e+00
  1.713390e+01    1.403468e+00
  1.714978e+01    1.410772e+00
  1.716565e+01    1.401310e+00
  1.718153e+01    1.370811e+00
  1.719740e+01    1.373119e+00
  1.721328e+01    1.385472e+00
  1.722915e+01    1.370529e+00
  1.724503e+01    1.366730e+00
  1.726091e+01    1.386423e+00
  1.727678e+01    1.392232e+00
  1.729266e+01    1.390866e+00
  1.730853e+01    1.379835e+00
  1.732441e+01    1.371914e+00
  1.734028e+01    1.342591e+00
  1.735616e+01    1.358413e+00
  1.737203e+01    1.342979e+00
  1.738791e+01    1.366986e+00
  1.740379e+01    1.354196e+00
  1.741966e+01    1.330272e+00
  1.743554e+01    1.356027e+00
  1.745141e+01    1.349967e+00
  1.746729e+01    1.355813e+00
  1.748316e+01    1.323882e+00
  1.749904e+01    1.369597e+00
  1.751491e+01    1.361759e+00
  1.753079e+01    1.361036e+00
  1.754667e+01    1.361762e+00
  1.756254e+01    1.341108e+00
  1.757842e+01    1.355189e+00
  1.759429e+01    1.356287e+00
  1.761017e+01    1.359316e+00
  1.762604e+01    1.340468e+00
  1.764192e+01    1.368568e+00
  1.765779e+01    1.321523e+00
  1.767367e+01    1.323420e+00
  1.768955e+01    1.318294e+00
  1.770542e+01    1.335635e+00
  1.772130e+01    1.342908e+00
  1.773717e+01    1.322813e+00
  1.775305e+01    1.292756e+00
  1.776892e+01    1.296498e+00
  1.778480e+01    1.296531e+00
  1.780067e+01    1.283107e+00
  1.781655e+01    1.283438e+00
  1.783243e+01    1.287823e+00
  1.784830e+01    1.305450e+00
  1.786418e+01    1.312453e+00
  1.788005e+01    1.289588e+00
  1.789593e+01    1.298832e+00
  1.791180e+01    1.311661e+00
  1.792768e+01    1.315204e+00
  1.794355e+01    1.300777e+00
  1.795943e+01    1.267514e+00
  1.797531e+01    1.294568e+00
  1.799118e+01    1.311232e+00
  1.800706e+01    1.295911e+00
  1.802293e+01    1.245717e+00
  1.803881e+01    1.278977e+00
  1.805468e+01    1.280082e+00
  1.807056e+01    1.268774e+00
  1.808643e+01    1.275495e+00
  1.810231e+01    1.242775e+00
  1.811819e+01    1.259334e+00
  1.813406e+01    1.249740e+00
  1.814994e+01    1.260228e+00
  1.816581e+01    1.259353e+00
  1.818169e+01    1.273644e+00
  1.819756e+01    1.278948e+00
  1.821344e+01    1.274214e+00
  1.822932e+01    1.259650e+00
  1.824519e+01    1.235347e+00
  1.826107e+01    1.215331e+00
  1.827694e+01    1.232814e+00
  1.829282e+01    1.253096e+00
  1.830869e+01    1.252794e+00
  1.832457e+01    1.252557e+00
  1.834044e+01    1.265004e+00
  1.835632e+01    1.273430e+00
  1.837220e+01    1.271202e+00
  1.838807e+01    1.260994e+00
  1.840395e+01    1.265149e+00
  1.841982e+01    1.240195e+00
  1.843570e+01    1.241531e+00
  1.845157e+01    1.205227e+00
  1.846745e+01    1.206422e+00
  1.848332e+01    1.242392e+00
  1.849920e+01    1.232595e+00
  1.851508e+01    1.270016e+00
  1.853095e+01    1.244276e+00
  1.854683e+01    1.214137e+00
  1.856270e+01    1.209084e+00
  1.857858e+01    1.219398e+00
  1.859445e+01    1.214764e+00
  1.861033e+01    1.217003e+00
  1.862620e+01    1.214406e+00
  1.864208e+01    1.201275e+00
  1.865796e+01    1.237074e+00
  1.867383e+01    1.205721e+00
  1.868971e+01    1.203226e+00
  1.870558e+01    1.208802e+00
  1.872146e+01    1.220247e+00
  1.873733e+01    1.219128e+00
  1.875321e+01    1.221267e+00
  1.876908e+01    1.212096e+00
  1.878496e+01    1.196658e+00
  1.880084e+01    1.194413e+00
  1.881671e+01    1.197485e+00
  1.883259e+01    1.200989e+00
  1.884846e+01    1.208823e+00
  1.886434e+01    1.176358e+00
  1.888021e+01    1.188009e+00
  1.889609e+01    1.206246e+00
  1.891196e+01    1.180354e+00
  1.892784e+01    1.166786e+00
  1.894372e+01    1.170324e+00
  1.895959e+01    1.181260e+00
  1.897547e+01    1.198209e+00
  1.899134e+01    1.207146e+00
  1.900722e+01    1.183680e+00
  1.902309e+01    1.174333e+00
  1.903897e+01    1.189439e+00
  1.905484e+01    1.168912e+00
  1.907072e+01    1.183943e+00
  1.908660e+01    1.187317e+00
  1.910247e+01    1.190503e+00
  1.911835e+01    1.171007e+00
  1.913422e+01    1.182629e+00
  1.915010e+01    1.194410e+00
  1.916597e+01    1.186431e+00
  1.918185e+01    1.141062e+00
  1.919773e+01    1.153083e+00
  1.921360e+01    1.198418e+00
  1.922948e+01    1.194916e+00
  1.924535e+01    1.191130e+00
  1.926123e+01    1.190323e+00
  1.927710e+01    1.154529e+00
  1.929298e+01    1.164524e+00
  1.930885e+01    1.155847e+00
  1.932473e+01    1.175620e+00
  1.934061e+01    1.185034e+00
  1.935648e+01    1.115308e+00
  1.937236e+01    1.143812e+00
  1.938823e+01    1.161059e+00
  1.940411e+01    1.170513e+00
  1.941998e+01    1.157888e+00
  1.943586e+01    1.154208e+00
  1.945173e+01    1.157626e+00
  1.946761e+01    1.124318e+00
  1.948349e+01    1.124361e+00
  1.949936e+01    1.154389e+00
  1.951524e+01    1.157869e+00
  1.953111e+01    1.151702e+00
  1.954699e+01    1.141432e+00
  1.956286e+01    1.132049e+00
  1.957874e+01    1.137146e+00
  1.959461e+01    1.146267e+00
  1.961049e+01    1.146338e+00
  1.962637e+01    1.152103e+00
  1.964224e+01    1.126534e+00
  1.965812e+01    1.107699e+00
  1.967399e+01    1.129187e+00
  1.968987e+01    1.123240e+00
  1.970574e+01    1.139244e+00
  1.972162e+01    1.137903e+00
  1.973749e+01    1.118906e+00
  1.975337e+01    1.127490e+00
  1.976925e+01    1.114795e+00
  1.978512e+01    1.093760e+00
  1.980100e+01    1.114998e+00
  1.981687e+01    1.118171e+00
  1.983275e+01    1.121428e+00
  1.984862e+01    1.106044e+00
  1.986450e+01    1.115419e+00
  1.988037e+01    1.102495e+00
  1.989625e+01    1.079814e+00
  1.991213e+01    1.106937e+00
  1.992800e+01    1.117177e+00
  1.994388e+01    1.124406e+00
  1.995975e+01    1.112924e+00
  1.997563e+01    1.098598e+00
  1.999150e+01    1.108456e+00
  2.000738e+01    1.105079e+00
  2.002325e+01    1.116611e+00
  2.003913e+01    1.094187e+00
  2.005501e+01    1.102859e+00
  2.007088e+01    1.111615e+00
  2.008676e+01    1.095853e+00
  2.010263e+01    1.103047e+00
  2.011851e+01    1.114611e+00
  2.013438e+01    1.096137e+00
  2.015026e+01    1.099447e+00
  2.016614e+01    1.102577e+00
  2.018201e+01    1.107380e+00
  2.019789e+01    1.087696e+00
  2.021376e+01    1.083603e+00
  2.022964e+01    1.075616e+00
  2.024551e+01    1.063398e+00
  2.026139e+01    1.088131e+00
  2.027726e+01    1.082078e+00
  2.029314e+01    1.067417e+00
  2.030902e+01    1.086561e+00
  2.032489e+01    1.099310e+00
  2.034077e+01    1.088298e+00
  2.035664e+01    1.099337e+00
  2.037252e+01    1.087572e+00
  2.038839e+01    1.074461e+00
  2.040427e+01    1.072588e+00
  2.042014e+01    1.058728e+00
  2.043602e+01    1.058235e+00
  2.045190e+01    1.068278e+00
  2.046777e+01    1.071358e+00
  2.048365e+01    1.067683e+00
  2.049952e+01    1.060560e+00
  2.051540e+01    1.057418e+00
  2.053127e+01    1.073881e+00
  2.054715e+01    1.074129e+00
  2.056302e+01    1.071843e+00
  2.057890e+01    1.085083e+00
  2.059478e+01    1.061146e+00
  2.061065e+01    1.058450e+00
  2.062653e+01    1.035578e+00
  2.064240e+01    1.064960e+00
  2.065828e+01    1.064696e+00
  2.067415e+01    1.068793e+00
  2.069003e+01    1.079562e+00
  2.070590e+01    1.068542e+00
  2.072178e+01    1.040463e+00
  2.073766e+01    1.048629e+00
  2.075353e+01    1.071976e+00
  2.076941e+01    1.066646e+00
  2.078528e+01    1.041670e+00
  2.080116e+01    1.037815e+00
  2.081703e+01    1.038466e+00
  2.083291e+01    1.045326e+00
  2.084878e+01    1.049819e+00
  2.086466e+01    1.071793e+00
  2.088054e+01    1.074860e+00
  2.089641e+01    1.067759e+00
  2.091229e+01    1.060278e+00
  2.092816e+01    1.061071e+00
  2.094404e+01    1.061418e+00
  2.095991e+01    1.061368e+00
  2.097579e+01    1.074236e+00
  2.099166e+01    1.061933e+00
  2.100754e+01    1.077940e+00
  2.102342e+01    1.051758e+00
  2.103929e+01    1.055900e+00
  2.105517e+01    1.062230e+00
  2.107104e+01    1.073972e+00
  2.108692e+01    1.067627e+00
  2.110279e+01    1.075505e+00
  2.111867e+01    1.070084e+00
  2.113455e+01    1.061023e+00
  2.115042e+01    1.071614e+00
  2.116630e+01    1.061975e+00
  2.118217e+01    1.069774e+00
  2.119805e+01    1.079333e+00
  2.121392e+01    1.085119e+00
  2.122980e+01    1.073732e+00
  2.124567e+01    1.083469e+00
  2.126155e+01    1.087942e+00
  2.127743e+01    1.082026e+00
  2.129330e+01    1.091767e+00
  2.130918e+01    1.094945e+00
  2.132505e+01    1.096751e+00
  2.134093e+01    1.125079e+00
  2.135680e+01    1.113280e+00
  2.137268e+01    1.109667e+00
  2.138855e+01    1.151085e+00
  2.140443e+01    1.166556e+00
  2.142031e+01    1.188602e+00
  2.143618e+01    1.177408e+00
  2.145206e+01    1.204710e+00
  2.146793e+01    1.238563e+00
  2.148381e+01    1.238168e+00
  2.149968e+01    1.266704e+00
  2.151556e+01    1.307076e+00
  2.153143e+01    1.299519e+00
  2.154731e+01    1.341884e+00
  2.156319e+01    1.399923e+00
  2.157906e+01    1.453504e+00
  2.159494e+01    1.486561e+00
  2.161081e+01    1.566770e+00
  2.162669e+01    1.669823e+00
  2.164256e+01    1.768036e+00
  2.165844e+01    1.889043e+00
  2.167431e+01    2.079827e+00
  2.169019e+01    2.254083e+00
  2.170607e+01    2.447028e+00
  2.172194e+01    2.769643e+00
  2.173782e+01    3.133219e+00
  2.175369e+01    3.602498e+00
  2.176957e+01    4.061634e+00
  2.178544e+01    4.663505e+00
  2.180132e+01    5.314920e+00
  2.181719e+01    6.070806e+00
  2.183307e+01    6.773140e+00
  2.184895e+01    7.470899e+00
  2.186482e+01    8.258920e+00
  2.188070e+01    8.915174e+00
  2.189657e+01    9.330933e+00
  2.191245e+01    9.462625e+00
  2.192832e+01    9.271685e+00
  2.194420e+01    8.624292e+00
  2.196007e+01    7.751512e+00
  2.197595e+01    6.666667e+00
  2.199183e+01    5.676244e+00
  2.200770e+01    4.761035e+00
  2.202358e+01    4.080031e+00
  2.203945e+01    3.529434e+00
  2.205533e+01    3.103112e+00
  2.207120e+01    2.722122e+00
  2.208708e+01    2.437660e+00
  2.210296e+01    2.215256e+00
  2.211883e+01    2.004698e+00
  2.213471e+01    1.882511e+00
  2.215058e+01    1.773361e+00
  2.216646e+01    1.652880e+00
  2.218233e+01    1.537791e+00
  2.219821e+01    1.440383e+00
  2.221408e+01    1.391034e+00
  2.222996e+01    1.371101e+00
  2.224584e+01    1.322559e+00
  2.226171e+01    1.279839e+00
  2.227759e+01    1.242534e+00
  2.229346e+01    1.203741e+00
  2.230934e+01    1.184203e+00
  2.232521e+01    1.172139e+00
  2.234109e+01    1.143140e+00
  2.235696e+01    1.108268e+00
  2.237284e+01    1.102138e+00
  2.238872e+01    1.090387e+00
  2.240459e+01    1.077758e+00
  2.242047e+01    1.066105e+00
  2.243634e+01    1.040192e+00
  2.245222e+01    1.027946e+00
  2.246809e+01    1.019013e+00
  2.248397e+01    1.006624e+00
  2.249984e+01    1.025761e+00
  2.251572e+01    1.027284e+00
  2.253160e+01    1.019307e+00
  2.254747e+01    1.016632e+00
  2.256335e+01    1.013139e+00
  2.257922e+01    9.857382e-01
  2.259510e+01    9.838796e-01
  2.261097e+01    9.627666e-01
  2.262685e+01    9.733358e-01
  2.264272e+01    9.756138e-01
  2.265860e+01    9.661379e-01
  2.267448e+01    9.513881e-01
  2.269035e+01    9.540105e-01
  2.270623e+01    9.486688e-01
  2.272210e+01    9.406003e-01
  2.273798e+01    9.169201e-01
  2.275385e+01    9.191103e-01
  2.276973e+01    9.351395e-01
  2.278560e+01    9.459864e-01
  2.280148e+01    9.345676e-01
  2.281736e+01    9.181582e-01
  2.283323e+01    9.156822e-01
  2.284911e+01    9.244155e-01
  2.286498e+01    9.154379e-01
  2.288086e+01    9.170316e-01
  2.289673e+01    9.025438e-01
  2.291261e+01    9.011574e-01
  2.292848e+01    9.031397e-01
  2.294436e+01    8.852650e-01
  2.296024e+01    8.794594e-01
  2.297611e+01    8.947588e-01
  2.299199e+01    8.758106e-01
  2.300786e+01    8.823070e-01
  2.302374e+01    9.145906e-01
  2.303961e+01    8.887924e-01
  2.305549e+01    8.763409e-01
  2.307137e+01    8.709683e-01
  2.308724e+01    8.714461e-01
  2.310312e+01    8.782037e-01
  2.311899e+01    8.832841e-01
  2.313487e+01    8.432379e-01
  2.315074e+01    8.570975e-01
  2.316662e+01    8.864867e-01
  2.318249e+01    8.739102e-01
  2.319837e+01    8.637406e-01
  2.321425e+01    8.676724e-01
  2.323012e+01    8.769256e-01
  2.324600e+01    8.689381e-01
  2.326187e+01    8.661953e-01
  2.327775e+01    8.477805e-01
  2.329362e+01    8.379058e-01
  2.330950e+01    8.488758e-01
  2.332537e+01    8.549504e-01
  2.334125e+01    8.457050e-01
  2.335713e+01    8.501276e-01
  2.337300e+01    8.533525e-01
  2.338888e+01    8.470899e-01
  2.340475e+01    8.558429e-01
  2.342063e+01    8.489374e-01
  2.343650e+01    8.500735e-01
  2.345238e+01    8.639760e-01
  2.346825e+01    8.543563e-01
  2.348413e+01    8.470992e-01
  2.350001e+01    8.251139e-01
  2.351588e+01    8.257361e-01
  2.353176e+01    8.434591e-01
  2.354763e+01    8.412279e-01
  2.356351e+01    8.166345e-01
  2.357938e+01    8.320959e-01
  2.359526e+01    8.331227e-01
  2.361113e+01    8.077133e-01
  2.362701e+01    8.294287e-01
  2.364289e+01    8.253357e-01
  2.365876e+01    8.244746e-01
  2.367464e+01    8.170518e-01
  2.369051e+01    8.233087e-01
  2.370639e+01    8.095208e-01
  2.372226e+01    8.018253e-01
  2.373814e+01    7.891194e-01
  2.375401e+01    8.087310e-01
  2.376989e+01    7.929189e-01
  2.378577e+01    7.982945e-01
  2.380164e+01    8.153316e-01
  2.381752e+01    8.020949e-01
  2.383339e+01    7.955298e-01
  2.384927e+01    7.823304e-01
  2.386514e+01    8.036715e-01
  2.388102e+01    7.928765e-01
  2.389689e+01    7.981078e-01
  2.391277e+01    7.847639e-01
  2.392865e+01    7.993693e-01
  2.394452e+01    8.034129e-01
  2.396040e+01    8.024771e-01
  2.397627e+01    7.927588e-01
  2.399215e+01    7.962669e-01
  2.400802e+01    7.875958e-01
  2.402390e+01    7.808670e-01
  2.403978e+01    7.742466e-01
  2.405565e+01    7.849719e-01
  2.407153e+01    7.650042e-01
  2.408740e+01    7.787753e-01
  2.410328e+01    7.838758e-01
  2.411915e+01    7.713075e-01
  2.413503e+01    7.686241e-01
  2.415090e+01    7.691777e-01
  2.416678e+01    7.722023e-01
  2.418266e+01    7.681541e-01
  2.419853e+01    7.496638e-01
  2.421441e+01    7.526603e-01
  2.423028e+01    7.677398e-01
  2.424616e+01    7.822184e-01
  2.426203e+01    7.848347e-01
  2.427791e+01    7.853203e-01
  2.429378e+01    7.939146e-01
  2.430966e+01    7.823315e-01
  2.432554e+01    7.811649e-01
  2.434141e+01    7.622712e-01
  2.435729e+01    7.700585e-01
  2.437316e+01    7.753252e-01
  2.438904e+01    7.844406e-01
  2.440491e+01    7.690393e-01
  2.442079e+01    7.675152e-01
  2.443666e+01    7.784135e-01
  2.445254e+01    7.709507e-01
  2.446842e+01    7.754933e-01
  2.448429e+01    7.832736e-01
  2.450017e+01    7.849909e-01
  2.451604e+01    7.951798e-01
  2.453192e+01    7.882754e-01
  2.454779e+01    7.872907e-01
  2.456367e+01    7.769362e-01
  2.457954e+01    7.896811e-01
  2.459542e+01    7.917295e-01
  2.461130e+01    7.907497e-01
  2.462717e+01    7.868422e-01
  2.464305e+01    7.780179e-01
  2.465892e+01    7.695289e-01
  2.467480e+01    7.724550e-01
  2.469067e+01    7.772672e-01
  2.470655e+01    7.840204e-01
  2.472242e+01    7.603012e-01
  2.473830e+01    7.615321e-01
  2.475418e+01    7.781390e-01
  2.477005e+01    7.836984e-01
  2.478593e+01    7.747822e-01
  2.480180e+01    7.886838e-01
  2.481768e+01    7.883930e-01
  2.483355e+01    7.821374e-01
  2.484943e+01    7.934749e-01
  2.486530e+01    8.150692e-01
  2.488118e+01    7.732496e-01
  2.489706e+01    7.722785e-01
  2.491293e+01    7.717727e-01
  2.492881e+01    7.674260e-01
  2.494468e+01    7.648768e-01
  2.496056e+01    7.865829e-01
  2.497643e+01    8.015998e-01
  2.499231e+01    7.925662e-01
  2.500819e+01    7.682532e-01
  2.502406e+01    7.738541e-01
  2.503994e+01    7.839938e-01
  2.505581e+01    7.831530e-01
  2.507169e+01    8.091813e-01
  2.508756e+01    8.162738e-01
  2.510344e+01    8.064311e-01
  2.511931e+01    8.160952e-01
  2.513519e+01    8.069641e-01
  2.515107e+01    8.172267e-01
  2.516694e+01    8.057823e-01
  2.518282e+01    8.061145e-01
  2.519869e+01    8.396641e-01
  2.521457e+01    8.575988e-01
  2.523044e+01    8.307725e-01
  2.524632e+01    8.141623e-01
  2.526219e+01    8.346250e-01
  2.527807e+01    8.502559e-01
  2.529395e+01    8.647125e-01
  2.530982e+01    8.682250e-01
  2.532570e+01    8.547641e-01
  2.534157e+01    8.684372e-01
  2.535745e+01    8.838163e-01
  2.537332e+01    8.806161e-01
  2.538920e+01    8.818493e-01
  2.540507e+01    9.090973e-01
  2.542095e+01    9.100814e-01
  2.543683e+01    8.861739e-01
  2.545270e+01    9.033831e-01
  2.546858e+01    9.466731e-01
  2.548445e+01    9.505830e-01
  2.550033e+01    9.621614e-01
  2.551620e+01    9.768068e-01
  2.553208e+01    9.876118e-01
  2.554795e+01    9.891375e-01
  2.556383e+01    1.011932e+00
  2.557971e+01    1.067985e+00
  2.559558e+01    1.072607e+00
  2.561146e+01    1.085061e+00
  2.562733e+01    1.140602e+00
  2.564321e+01    1.202845e+00
  2.565908e+01    1.241673e+00
  2.567496e+01    1.279759e+00
  2.569083e+01    1.374340e+00
  2.570671e+01    1.431232e+00
  2.572259e+01    1.548299e+00
  2.573846e+01    1.686273e+00
  2.575434e+01    1.804367e+00
  2.577021e+01    2.030602e+00
  2.578609e+01    2.237249e+00
  2.580196e+01    2.516312e+00
  2.581784e+01    2.825819e+00
  2.583371e+01    3.191835e+00
  2.584959e+01    3.698835e+00
  2.586547e+01    4.271529e+00
  2.588134e+01    4.843511e+00
  2.589722e+01    5.460788e+00
  2.591309e+01    6.104322e+00
  2.592897e+01    6.743307e+00
  2.594484e+01    7.286751e+00
  2.596072e+01    7.735226e+00
  2.597660e+01    7.871107e+00
  2.599247e+01    7.634410e+00
  2.600835e+01    7.164535e+00
  2.602422e+01    6.511064e+00
  2.604010e+01    5.729707e+00
  2.605597e+01    4.976832e+00
  2.607185e+01    4.213431e+00
  2.608772e+01    3.567645e+00
  2.610360e+01    3.080787e+00
  2.611948e+01    2.730395e+00
  2.613535e+01    2.386276e+00
  2.615123e+01    2.155263e+00
  2.616710e+01    1.959183e+00
  2.618298e+01    1.793098e+00
  2.619885e+01    1.621803e+00
  2.621473e+01    1.497672e+00
  2.623060e+01    1.448435e+00
  2.624648e+01    1.358415e+00
  2.626236e+01    1.291622e+00
  2.627823e+01    1.235072e+00
  2.629411e+01    1.173800e+00
  2.630998e+01    1.134380e+00
  2.632586e+01    1.084569e+00
  2.634173e+01    1.072707e+00
  2.635761e+01    1.045425e+00
  2.637348e+01    1.028239e+00
  2.638936e+01    1.010720e+00
  2.640524e+01    9.930106e-01
  2.642111e+01    9.771124e-01
  2.643699e+01    9.790384e-01
  2.645286e+01    9.508395e-01
  2.646874e+01    9.476638e-01
  2.648461e+01    9.404279e-01
  2.650049e+01    9.187729e-01
  2.651636e+01    9.127636e-01
  2.653224e+01    9.205515e-01
  2.654812e+01    9.025828e-01
  2.656399e+01    8.973630e-01
  2.657987e+01    8.883685e-01
  2.659574e+01    8.968683e-01
  2.661162e+01    8.919943e-01
  2.662749e+01    8.906590e-01
  2.664337e+01    8.876380e-01
  2.665924e+01    9.063580e-01
  2.667512e+01    9.129080e-01
  2.669100e+01    8.819596e-01
  2.670687e+01    8.719549e-01
  2.672275e+01    8.896934e-01
  2.673862e+01    8.931532e-01
  2.675450e+01    8.866500e-01
  2.677037e+01    8.865555e-01
  2.678625e+01    8.810890e-01
  2.680212e+01    8.787164e-01
  2.681800e+01    8.674523e-01
  2.683388e+01    8.647168e-01
  2.684975e+01    9.055510e-01
  2.686563e+01    9.021498e-01
  2.688150e+01    9.020965e-01
  2.689738e+01    9.271985e-01
  2.691325e+01    9.286167e-01
  2.692913e+01    9.285874e-01
  2.694501e+01    9.256065e-01
  2.696088e+01    9.418868e-01
  2.697676e+01    9.884867e-01
  2.699263e+01    9.979377e-01
  2.700851e+01    1.034649e+00
  2.702438e+01    1.059078e+00
  2.704026e+01    1.076763e+00
  2.705613e+01    1.136231e+00
  2.707201e+01    1.181016e+00
  2.708789e+01    1.236652e+00
  2.710376e+01    1.331516e+00
  2.711964e+01    1.438504e+00
  2.713551e+01    1.578516e+00
  2.715139e+01    1.709019e+00
  2.716726e+01    1.845885e+00
  2.718314e+01    1.985834e+00
  2.719901e+01    2.137208e+00
  2.721489e+01    2.258495e+00
  2.723077e+01    2.294145e+00
  2.724664e+01    2.288227e+00
  2.726252e+01    2.181172e+00
  2.727839e+01    2.076049e+00
  2.729427e+01    1.913875e+00
  2.731014e+01    1.752779e+00
  2.732602e+01    1.574104e+00
  2.734189e+01    1.449743e+00
  2.735777e+01    1.344987e+00
  2.737365e+01    1.259048e+00
  2.738952e+01    1.160651e+00
  2.740540e+01    1.108656e+00
  2.742127e+01    1.070992e+00
  2.743715e+01    1.023253e+00
  2.745302e+01    9.944566e-01
  2.746890e+01    9.681692e-01
  2.748477e+01    9.257108e-01
  2.750065e+01    9.018396e-01
  2.751653e+01    9.301816e-01
  2.753240e+01    9.094543e-01
  2.754828e+01    8.646997e-01
  2.756415e+01    8.630828e-01
  2.758003e+01    8.629602e-01
  2.759590e+01    8.417513e-01
  2.761178e+01    8.376024e-01
  2.762765e+01    8.401074e-01
  2.764353e+01    8.425751e-01
  2.765941e+01    8.513839e-01
  2.767528e+01    8.196830e-01
  2.769116e+01    8.281726e-01
  2.770703e+01    8.234383e-01
  2.772291e+01    8.037457e-01
  2.773878e+01    8.032583e-01
  2.775466e+01    8.120458e-01
  2.777054e+01    8.214239e-01
  2.778641e+01    8.146355e-01
  2.780229e+01    7.973027e-01
  2.781816e+01    8.115452e-01
  2.783404e+01    7.897868e-01
  2.784991e+01    7.776695e-01
  2.786579e+01    7.825474e-01
  2.788166e+01    7.759973e-01
  2.789754e+01    7.803841e-01
  2.791342e+01    7.676655e-01
  2.792929e+01    7.721910e-01
  2.794517e+01    7.789580e-01
  2.796104e+01    7.780841e-01
  2.797692e+01    7.766423e-01
  2.799279e+01    7.712574e-01
  2.800867e+01    7.624535e-01
  2.802454e+01    7.705949e-01
  2.804042e+01    7.597847e-01
  2.805630e+01    7.822427e-01
  2.807217e+01    7.844698e-01
  2.808805e+01    7.798565e-01
  2.810392e+01    7.897584e-01
  2.811980e+01    7.769272e-01
  2.813567e+01    7.708377e-01
  2.815155e+01    7.578986e-01
  2.816742e+01    7.545628e-01
  2.818330e+01    7.592053e-01
  2.819918e+01    7.619297e-01
  2.821505e+01    7.634573e-01
  2.823093e+01    7.497377e-01
  2.824680e+01    7.551771e-01
  2.826268e+01    7.473190e-01
  2.827855e+01    7.568246e-01
  2.829443e+01    7.528529e-01
  2.831030e+01    7.613204e-01
  2.832618e+01    7.666574e-01
  2.834206e+01    7.558244e-01
  2.835793e+01    7.369511e-01
  2.837381e+01    7.534150e-01
  2.838968e+01    7.471712e-01
  2.840556e+01    7.544835e-01
  2.842143e+01    7.718520e-01
  2.843731e+01    7.490929e-01
  2.845318e+01    7.618657e-01
  2.846906e+01    7.393436e-01
  2.848494e+01    7.413511e-01
  2.850081e+01    7.554145e-01
  2.851669e+01    7.364617e-01
  2.853256e+01    7.429998e-01
  2.854844e+01    7.542310e-01
  2.856431e+01    7.403586e-01
  2.858019e+01    7.445352e-01
  2.859606e+01    7.347256e-01
  2.861194e+01    7.265128e-01
  2.862782e+01    7.373955e-01
  2.864369e+01    7.288690e-01
  2.865957e+01    7.453933e-01
  2.867544e+01    7.411906e-01
  2.869132e+01    7.503368e-01
  2.870719e+01    7.491316e-01
  2.872307e+01    7.204493e-01
  2.873895e+01    7.323360e-01
  2.875482e+01    7.387047e-01
  2.877070e+01    7.354259e-01
  2.878657e+01    7.334487e-01
  2.880245e+01    7.204038e-01
  2.881832e+01    7.202086e-01
  2.883420e+01    7.220833e-01
  2.885007e+01    7.442336e-01
  2.886595e+01    7.495326e-01
  2.888183e+01    7.550554e-01
  2.889770e+01    7.357516e-01
  2.891358e+01    7.208650e-01
  2.892945e+01    7.096444e-01
  2.894533e+01    7.243352e-01
  2.896120e+01    7.404909e-01
  2.897708e+01    7.393217e-01
  2.899295e+01    7.428073e-01
  2.900883e+01    7.101219e-01
  2.902471e+01    7.399170e-01
  2.904058e+01    7.524113e-01
  2.905646e+01    7.480462e-01
  2.907233e+01    7.464291e-01
  2.908821e+01    7.520166e-01
  2.910408e+01    7.376257e-01
  2.911996e+01    7.171918e-01
  2.913583e+01    7.258581e-01
  2.915171e+01    7.242180e-01
  2.916759e+01    7.088354e-01
  2.918346e+01    7.253618e-01
  2.919934e+01    7.214484e-01
  2.921521e+01    7.205697e-01
  2.923109e+01    7.207910e-01
  2.924696e+01    7.221581e-01
  2.926284e+01    7.150376e-01
  2.927871e+01    7.198195e-01
  2.929459e+01    7.182401e-01
  2.931047e+01    7.305715e-01
  2.932634e+01    7.172736e-01
  2.934222e+01    7.092225e-01
  2.935809e+01    7.185158e-01
  2.937397e+01    7.307177e-01
  2.938984e+01    7.427980e-01
  2.940572e+01    7.357445e-01
  2.942159e+01    7.221901e-01
  2.943747e+01    7.023075e-01
  2.945335e+01    7.105159e-01
  2.946922e+01    7.155303e-01
  2.948510e+01    7.070357e-01
  2.950097e+01    7.269177e-01
  2.951685e+01    7.316852e-01
  2.953272e+01    7.297629e-01
  2.954860e+01    7.073261e-01
  2.956447e+01    7.190636e-01
  2.958035e+01    7.210114e-01
  2.959623e+01    7.006946e-01
  2.961210e+01    7.162397e-01
  2.962798e+01    7.283807e-01
  2.964385e+01    7.285529e-01
  2.965973e+01    7.314565e-01
  2.967560e+01    7.020333e-01
  2.969148e+01    7.202582e-01
  2.970736e+01    7.098798e-01
  2.972323e+01    7.048661e-01
  2.973911e+01    6.992739e-01
  2.975498e+01    7.177473e-01
  2.977086e+01    7.150998e-01
  2.978673e+01    7.086489e-01
  2.980261e+01    7.163499e-01
  2.981848e+01    7.275233e-01
  2.983436e+01    7.095415e-01
  2.985024e+01    6.972968e-01
  2.986611e+01    7.014582e-01
  2.988199e+01    7.139898e-01
  2.989786e+01    7.205196e-01
  2.991374e+01    7.024813e-01
  2.992961e+01    6.945955e-01
  2.994549e+01    7.135963e-01
  2.996136e+01    7.136390e-01
  2.997724e+01    7.064470e-01
  2.999312e+01    7.191400e-01
  3.000899e+01    7.296978e-01
  3.002487e+01    7.173966e-01
  3.004074e+01    7.273369e-01
  3.005662e+01    7.237821e-01
  3.007249e+01    7.228448e-01
  3.008837e+01    7.180250e-01
  3.010424e+01    7.063336e-01
  3.012012e+01    7.184964e-01
  3.013600e+01    7.407866e-01
  3.015187e+01    7.183526e-01
  3.016775e+01    7.104163e-01
  3.018362e+01    7.078350e-01
  3.019950e+01    7.059712e-01
  3.021537e+01    6.985607e-01
  3.023125e+01    7.130222e-01
  3.024712e+01    7.202690e-01
  3.026300e+01    7.013046e-01
  3.027888e+01    7.038781e-01
  3.029475e+01    7.015443e-01
  3.031063e+01    7.088973e-01
  3.032650e+01    7.006677e-01
  3.034238e+01    7.111959e-01
  3.035825e+01    7.145947e-01
  3.037413e+01    6.915880e-01
  3.039000e+01    6.866820e-01
  3.040588e+01    6.831648e-01
  3.042176e+01    6.994317e-01
  3.043763e+01    7.049927e-01
  3.045351e+01    7.179803e-01
  3.046938e+01    7.116258e-01
  3.048526e+01    6.949576e-01
  3.050113e+01    7.147230e-01
  3.051701e+01    7.094789e-01
  3.053288e+01    6.959433e-01
  3.054876e+01    6.944643e-01
  3.056464e+01    7.184804e-01
  3.058051e+01    7.163004e-01
  3.059639e+01    7.029346e-01
  3.061226e+01    6.971196e-01
  3.062814e+01    6.958219e-01
  3.064401e+01    6.998132e-01
  3.065989e+01    6.999520e-01
  3.067577e+01    7.038283e-01
  3.069164e+01    7.008880e-01
  3.070752e+01    7.070256e-01
  3.072339e+01    7.129318e-01
  3.073927e+01    7.131832e-01
  3.075514e+01    7.086385e-01
  3.077102e+01    7.034387e-01
  3.078689e+01    7.020475e-01
  3.080277e+01    7.040015e-01
  3.081865e+01    6.884813e-01
  3.083452e+01    7.030793e-01
  3.085040e+01    7.081900e-01
  3.086627e+01    7.206719e-01
  3.088215e+01    7.156481e-01
  3.089802e+01    7.103081e-01
  3.091390e+01    7.187710e-01
  3.092977e+01    7.148251e-01
  3.094565e+01    6.993755e-01
  3.096153e+01    6.862192e-01
  3.097740e+01    6.959136e-01
  3.099328e+01    7.060687e-01
  3.100915e+01    7.031628e-01
  3.102503e+01    7.025637e-01
  3.104090e+01    6.933625e-01
  3.105678e+01    7.022245e-01
  3.107265e+01    7.223668e-01
  3.108853e+01    7.327121e-01
  3.110441e+01    6.993418e-01
  3.112028e+01    7.049623e-01
  3.113616e+01    7.385727e-01
  3.115203e+01    7.144336e-01
  3.116791e+01    7.143775e-01
  3.118378e+01    7.295378e-01
  3.119966e+01    6.952934e-01
  3.121553e+01    6.977122e-01
  3.123141e+01    7.166597e-01
  3.124729e+01    7.226788e-01
  3.126316e+01    7.121275e-01
  3.127904e+01    7.262484e-01
  3.129491e+01    7.202026e-01
  3.131079e+01    7.108181e-01
  3.132666e+01    7.335056e-01
  3.134254e+01    7.477689e-01
  3.135841e+01    7.208451e-01
  3.137429e+01    7.267035e-01
  3.139017e+01    7.392731e-01
  3.140604e+01    7.392217e-01
  3.142192e+01    7.507970e-01
  3.143779e+01    7.185631e-01
  3.145367e+01    7.258470e-01
  3.146954e+01    7.413763e-01
  3.148542e+01    7.367961e-01
  3.150129e+01    7.662337e-01
  3.151717e+01    7.652406e-01
  3.153305e+01    7.588828e-01
  3.154892e+01    7.817516e-01
  3.156480e+01    8.177329e-01
  3.158067e+01    8.028812e-01
  3.159655e+01    8.257160e-01
  3.161242e+01    8.093010e-01
  3.162830e+01    8.062304e-01
  3.164418e+01    8.168132e-01
  3.166005e+01    8.380001e-01
  3.167593e+01    8.766003e-01
  3.169180e+01    8.891239e-01
  3.170768e+01    9.363008e-01
  3.172355e+01    9.566478e-01
  3.173943e+01    1.028757e+00
  3.175530e+01    1.079490e+00
  3.177118e+01    1.159007e+00
  3.178706e+01    1.244722e+00
  3.180293e+01    1.337246e+00
  3.181881e+01    1.452714e+00
  3.183468e+01    1.581266e+00
  3.185056e+01    1.738756e+00
  3.186643e+01    1.898306e+00
  3.188231e+01    2.055615e+00
  3.189818e+01    2.124079e+00
  3.191406e+01    2.213937e+00
  3.192994e+01    2.308519e+00
  3.194581e+01    2.253551e+00
  3.196169e+01    2.167468e+00
  3.197756e+01    1.983790e+00
  3.199344e+01    1.798073e+00
  3.200931e+01    1.661860e+00
  3.202519e+01    1.498340e+00
  3.204106e+01    1.381363e+00
  3.205694e+01    1.265156e+00
  3.207282e+01    1.149797e+00
  3.208869e+01    1.050725e+00
  3.210457e+01    1.028531e+00
  3.212044e+01    9.711432e-01
  3.213632e+01    9.396097e-01
  3.215219e+01    8.954700e-01
  3.216807e+01    8.650625e-01
  3.218394e+01    8.703929e-01
  3.219982e+01    8.404090e-01
  3.221570e+01    8.295657e-01
  3.223157e+01    8.147238e-01
  3.224745e+01    7.925905e-01
  3.226332e+01    7.802842e-01
  3.227920e+01    7.690912e-01
  3.229507e+01    7.664142e-01
  3.231095e+01    7.590948e-01
  3.232682e+01    7.358163e-01
  3.234270e+01    7.466935e-01
  3.235858e+01    7.456074e-01
  3.237445e+01    7.563570e-01
  3.239033e+01    7.382114e-01
  3.240620e+01    7.471724e-01
  3.242208e+01    7.498385e-01
  3.243795e+01    7.446415e-01
  3.245383e+01    7.345403e-01
  3.246970e+01    7.393020e-01
  3.248558e+01    7.656856e-01
  3.250146e+01    7.332714e-01
  3.251733e+01    6.808197e-01
  3.253321e+01    7.136243e-01
  3.254908e+01    7.171271e-01
