# == pyFAI calibration ==
# Distance Sample to Detector: 0.3999999939076516 m
# PONI: 9.750e-02, 1.135e-01 m
# Rotations: -0.000175 0.000000 -0.000000 rad
# 
# == Fit2d calibration ==
# Distance Sample-beamCenter: 400.000 mm
# Center: x=1514.000, y=1300.000 pix
# Tilt: 0.010 deg  TiltPlanRot: 0.010 deg
# 
# Detector Detector	 Spline= None	 PixelSize= 7.500e-05, 7.500e-05 m
#    Detector has a mask: False 
#    Detector has a dark current: False 
#    detector has a flat field: False 
# 
# Wavelength: 6.888e-11 m
# Mask applied: user provided
# Dark current applied: False
# Flat field applied: False
# Polarization factor: 0.99
# Normalization factor: 1.0
# --> /home/myspot/data/2024_07_Rosario/Ru-CGO-ex/2024-07-27_002_Ru-CGO-ex_Activtation_ramp_000002_data_000003.dat
#       q_nm^-1             I 
  2.003187e-02    0.000000e+00
  3.590745e-02    0.000000e+00
  5.178302e-02    0.000000e+00
  6.765859e-02    1.985621e-02
  8.353417e-02    1.046421e-01
  9.940974e-02    6.311636e-02
  1.152853e-01    3.521910e-02
  1.311609e-01    1.358899e-02
  1.470365e-01    3.450372e-03
  1.629120e-01    2.440093e-02
  1.787876e-01    3.480060e-02
  1.946632e-01    2.449032e-02
  2.105388e-01    7.626974e-03
  2.264143e-01    9.418302e-03
  2.422899e-01    3.221264e-02
  2.581655e-01    2.102435e-02
  2.740411e-01    4.853579e-02
  2.899166e-01    5.270772e-02
  3.057922e-01    4.390887e-02
  3.216678e-01    8.061577e-02
  3.375433e-01    2.617836e-02
  3.534189e-01    1.100101e-02
  3.692945e-01    3.748658e-02
  3.851701e-01    1.588482e-02
  4.010456e-01    4.127111e-02
  4.169212e-01    2.638449e-02
  4.327968e-01    1.998203e-02
  4.486724e-01    4.239337e-02
  4.645479e-01    4.309087e-02
  4.804235e-01    4.225497e-02
  4.962991e-01    2.326927e-02
  5.121747e-01    2.546714e-02
  5.280502e-01    4.340808e-02
  5.439258e-01    2.355159e-02
  5.598014e-01    3.243255e-02
  5.756770e-01    4.313975e-02
  5.915525e-01    4.043791e-02
  6.074281e-01    5.160243e-02
  6.233037e-01    3.714411e-02
  6.391793e-01    1.484933e-02
  6.550548e-01    1.195225e-02
  6.709304e-01    6.684424e-03
  6.868060e-01    4.027653e-02
  7.026815e-01    5.478342e-02
  7.185571e-01    3.740012e-02
  7.344327e-01    1.343066e-02
  7.503083e-01    4.239055e-02
  7.661838e-01    9.279500e-02
  7.820594e-01    1.381208e-01
  7.979350e-01    1.668979e-01
  8.138106e-01    2.189751e-01
  8.296861e-01    3.162829e-01
  8.455617e-01    3.497442e-01
  8.614373e-01    3.852159e-01
  8.773129e-01    4.425866e-01
  8.931884e-01    4.513102e-01
  9.090640e-01    4.588186e-01
  9.249396e-01    5.868538e-01
  9.408152e-01    6.662840e-01
  9.566907e-01    7.089209e-01
  9.725663e-01    8.390473e-01
  9.884419e-01    9.501784e-01
  1.004317e+00    1.035823e+00
  1.020193e+00    1.159379e+00
  1.036069e+00    1.142554e+00
  1.051944e+00    1.155088e+00
  1.067820e+00    1.244302e+00
  1.083695e+00    1.316948e+00
  1.099571e+00    1.400515e+00
  1.115446e+00    1.514407e+00
  1.131322e+00    1.571514e+00
  1.147198e+00    1.513658e+00
  1.163073e+00    1.535775e+00
  1.178949e+00    1.533108e+00
  1.194824e+00    1.621901e+00
  1.210700e+00    1.828090e+00
  1.226575e+00    2.026887e+00
  1.242451e+00    2.245364e+00
  1.258327e+00    2.484338e+00
  1.274202e+00    2.436555e+00
  1.290078e+00    2.464297e+00
  1.305953e+00    2.464943e+00
  1.321829e+00    2.518296e+00
  1.337705e+00    2.560623e+00
  1.353580e+00    2.633399e+00
  1.369456e+00    2.761808e+00
  1.385331e+00    2.760797e+00
  1.401207e+00    2.696538e+00
  1.417082e+00    2.708642e+00
  1.432958e+00    2.761467e+00
  1.448834e+00    2.817805e+00
  1.464709e+00    3.001102e+00
  1.480585e+00    2.862865e+00
  1.496460e+00    2.953711e+00
  1.512336e+00    2.967653e+00
  1.528211e+00    3.091935e+00
  1.544087e+00    3.075214e+00
  1.559963e+00    3.158521e+00
  1.575838e+00    3.203136e+00
  1.591714e+00    3.135118e+00
  1.607589e+00    3.092894e+00
  1.623465e+00    3.009522e+00
  1.639340e+00    2.922746e+00
  1.655216e+00    2.790428e+00
  1.671092e+00    2.874438e+00
  1.686967e+00    2.896292e+00
  1.702843e+00    2.974272e+00
  1.718718e+00    2.865729e+00
  1.734594e+00    2.894009e+00
  1.750469e+00    2.922711e+00
  1.766345e+00    2.886635e+00
  1.782221e+00    2.965482e+00
  1.798096e+00    2.973845e+00
  1.813972e+00    2.868407e+00
  1.829847e+00    2.758201e+00
  1.845723e+00    2.718757e+00
  1.861598e+00    2.820150e+00
  1.877474e+00    2.739848e+00
  1.893350e+00    2.779992e+00
  1.909225e+00    2.887398e+00
  1.925101e+00    2.970131e+00
  1.940976e+00    2.870473e+00
  1.956852e+00    2.880458e+00
  1.972727e+00    2.886458e+00
  1.988603e+00    2.780702e+00
  2.004479e+00    2.758978e+00
  2.020354e+00    2.883025e+00
  2.036230e+00    2.933172e+00
  2.052105e+00    2.967545e+00
  2.067981e+00    2.904538e+00
  2.083856e+00    2.894704e+00
  2.099732e+00    2.784814e+00
  2.115608e+00    2.748950e+00
  2.131483e+00    2.848378e+00
  2.147359e+00    2.910186e+00
  2.163234e+00    2.814962e+00
  2.179110e+00    2.854298e+00
  2.194985e+00    2.933895e+00
  2.210861e+00    2.888943e+00
  2.226737e+00    2.771634e+00
  2.242612e+00    2.820476e+00
  2.258488e+00    2.782845e+00
  2.274363e+00    2.828726e+00
  2.290239e+00    2.822143e+00
  2.306115e+00    2.744730e+00
  2.321990e+00    2.817118e+00
  2.337866e+00    2.826042e+00
  2.353741e+00    2.870666e+00
  2.369617e+00    2.924434e+00
  2.385492e+00    2.843122e+00
  2.401368e+00    2.816998e+00
  2.417244e+00    2.845755e+00
  2.433119e+00    2.903758e+00
  2.448995e+00    2.867172e+00
  2.464870e+00    2.792352e+00
  2.480746e+00    2.827847e+00
  2.496621e+00    2.797382e+00
  2.512497e+00    2.920536e+00
  2.528373e+00    2.886906e+00
  2.544248e+00    2.836481e+00
  2.560124e+00    2.854138e+00
  2.575999e+00    2.870500e+00
  2.591875e+00    2.673033e+00
  2.607750e+00    2.754914e+00
  2.623626e+00    2.806607e+00
  2.639502e+00    2.801032e+00
  2.655377e+00    2.767840e+00
  2.671253e+00    2.841311e+00
  2.687128e+00    2.841916e+00
  2.703004e+00    2.953110e+00
  2.718879e+00    2.935259e+00
  2.734755e+00    2.885647e+00
  2.750631e+00    2.811378e+00
  2.766506e+00    2.881004e+00
  2.782382e+00    3.043157e+00
  2.798257e+00    2.960810e+00
  2.814133e+00    2.926781e+00
  2.830008e+00    2.933422e+00
  2.845884e+00    2.891995e+00
  2.861760e+00    2.906293e+00
  2.877635e+00    2.932630e+00
  2.893511e+00    2.928195e+00
  2.909386e+00    2.928506e+00
  2.925262e+00    2.842666e+00
  2.941137e+00    2.884462e+00
  2.957013e+00    2.852257e+00
  2.972889e+00    2.943500e+00
  2.988764e+00    2.952195e+00
  3.004640e+00    2.908664e+00
  3.020515e+00    2.967153e+00
  3.036391e+00    2.952046e+00
  3.052266e+00    2.895938e+00
  3.068142e+00    2.965017e+00
  3.084018e+00    2.951863e+00
  3.099893e+00    2.950666e+00
  3.115769e+00    2.974941e+00
  3.131644e+00    2.894078e+00
  3.147520e+00    2.870608e+00
  3.163395e+00    2.857945e+00
  3.179271e+00    2.960829e+00
  3.195147e+00    2.958530e+00
  3.211022e+00    3.005549e+00
  3.226898e+00    3.034256e+00
  3.242773e+00    3.005655e+00
  3.258649e+00    2.960382e+00
  3.274525e+00    2.943371e+00
  3.290400e+00    2.909899e+00
  3.306276e+00    2.974884e+00
  3.322151e+00    2.941753e+00
  3.338027e+00    2.982203e+00
  3.353902e+00    2.993729e+00
  3.369778e+00    2.956725e+00
  3.385654e+00    2.868356e+00
  3.401529e+00    2.951112e+00
  3.417405e+00    2.905288e+00
  3.433280e+00    2.924678e+00
  3.449156e+00    2.917547e+00
  3.465031e+00    2.869296e+00
  3.480907e+00    2.990517e+00
  3.496783e+00    3.101221e+00
  3.512658e+00    3.108632e+00
  3.528534e+00    2.970332e+00
  3.544409e+00    2.980065e+00
  3.560285e+00    3.019548e+00
  3.576160e+00    3.021433e+00
  3.592036e+00    2.993510e+00
  3.607912e+00    3.013104e+00
  3.623787e+00    3.016070e+00
  3.639663e+00    2.973855e+00
  3.655538e+00    3.014552e+00
  3.671414e+00    3.040569e+00
  3.687289e+00    3.046493e+00
  3.703165e+00    3.107010e+00
  3.719041e+00    3.079181e+00
  3.734916e+00    2.998190e+00
  3.750792e+00    2.953794e+00
  3.766667e+00    3.107595e+00
  3.782543e+00    3.069292e+00
  3.798418e+00    3.021047e+00
  3.814294e+00    3.071610e+00
  3.830170e+00    3.067775e+00
  3.846045e+00    3.040821e+00
  3.861921e+00    2.977700e+00
  3.877796e+00    3.079567e+00
  3.893672e+00    3.099171e+00
  3.909547e+00    3.081699e+00
  3.925423e+00    2.992746e+00
  3.941299e+00    3.067904e+00
  3.957174e+00    3.105727e+00
  3.973050e+00    3.008487e+00
  3.988925e+00    3.040182e+00
  4.004801e+00    3.142105e+00
  4.020676e+00    3.147338e+00
  4.036552e+00    3.150128e+00
  4.052428e+00    3.095646e+00
  4.068303e+00    3.115299e+00
  4.084179e+00    2.998642e+00
  4.100054e+00    2.999655e+00
  4.115930e+00    3.124521e+00
  4.131806e+00    3.072944e+00
  4.147681e+00    3.004882e+00
  4.163557e+00    3.018943e+00
  4.179432e+00    3.060536e+00
  4.195308e+00    3.030990e+00
  4.211183e+00    3.071092e+00
  4.227059e+00    3.115056e+00
  4.242935e+00    3.145826e+00
  4.258810e+00    3.062179e+00
  4.274686e+00    3.064516e+00
  4.290561e+00    3.146639e+00
  4.306437e+00    3.100004e+00
  4.322312e+00    3.062037e+00
  4.338188e+00    3.078781e+00
  4.354064e+00    3.027143e+00
  4.369939e+00    2.997064e+00
  4.385815e+00    3.004250e+00
  4.401690e+00    3.093907e+00
  4.417566e+00    3.114093e+00
  4.433441e+00    3.093176e+00
  4.449317e+00    3.153614e+00
  4.465193e+00    3.160319e+00
  4.481068e+00    3.205974e+00
  4.496944e+00    3.244649e+00
  4.512819e+00    3.121907e+00
  4.528695e+00    3.136001e+00
  4.544570e+00    3.136382e+00
  4.560446e+00    3.067590e+00
  4.576322e+00    3.105930e+00
  4.592197e+00    3.140485e+00
  4.608073e+00    3.177904e+00
  4.623948e+00    3.139463e+00
  4.639824e+00    3.153192e+00
  4.655699e+00    3.164305e+00
  4.671575e+00    3.089462e+00
  4.687451e+00    3.093071e+00
  4.703326e+00    3.082364e+00
  4.719202e+00    3.096132e+00
  4.735077e+00    3.093520e+00
  4.750953e+00    3.148264e+00
  4.766828e+00    3.174902e+00
  4.782704e+00    3.151099e+00
  4.798580e+00    3.212735e+00
  4.814455e+00    3.161283e+00
  4.830331e+00    3.096857e+00
  4.846206e+00    3.171953e+00
  4.862082e+00    3.198881e+00
  4.877957e+00    3.177289e+00
  4.893833e+00    3.162035e+00
  4.909709e+00    3.135218e+00
  4.925584e+00    3.130433e+00
  4.941460e+00    3.145179e+00
  4.957335e+00    3.169981e+00
  4.973211e+00    3.181496e+00
  4.989086e+00    3.166351e+00
  5.004962e+00    3.176743e+00
  5.020838e+00    3.213507e+00
  5.036713e+00    3.153493e+00
  5.052589e+00    3.201562e+00
  5.068464e+00    3.253000e+00
  5.084340e+00    3.187362e+00
  5.100216e+00    3.164354e+00
  5.116091e+00    3.110910e+00
  5.131967e+00    3.158044e+00
  5.147842e+00    3.185272e+00
  5.163718e+00    3.277727e+00
  5.179593e+00    3.238799e+00
  5.195469e+00    3.148410e+00
  5.211345e+00    3.108296e+00
  5.227220e+00    3.165823e+00
  5.243096e+00    3.175200e+00
  5.258971e+00    3.154817e+00
  5.274847e+00    3.191613e+00
  5.290722e+00    3.193578e+00
  5.306598e+00    3.192202e+00
  5.322474e+00    3.091322e+00
  5.338349e+00    3.090812e+00
  5.354225e+00    3.114311e+00
  5.370100e+00    3.154885e+00
  5.385976e+00    3.150627e+00
  5.401851e+00    3.151010e+00
  5.417727e+00    3.137968e+00
  5.433603e+00    3.117338e+00
  5.449478e+00    3.127496e+00
  5.465354e+00    3.074915e+00
  5.481229e+00    3.101493e+00
  5.497105e+00    3.118503e+00
  5.512980e+00    3.116847e+00
  5.528856e+00    3.121763e+00
  5.544732e+00    3.168386e+00
  5.560607e+00    3.131359e+00
  5.576483e+00    3.133231e+00
  5.592358e+00    3.223727e+00
  5.608234e+00    3.130987e+00
  5.624109e+00    3.130922e+00
  5.639985e+00    3.141584e+00
  5.655861e+00    3.089356e+00
  5.671736e+00    3.089817e+00
  5.687612e+00    3.060217e+00
  5.703487e+00    3.097310e+00
  5.719363e+00    3.147656e+00
  5.735238e+00    3.106166e+00
  5.751114e+00    3.078467e+00
  5.766990e+00    3.120972e+00
  5.782865e+00    3.166905e+00
  5.798741e+00    3.129682e+00
  5.814616e+00    3.099687e+00
  5.830492e+00    3.095378e+00
  5.846367e+00    3.079181e+00
  5.862243e+00    3.079055e+00
  5.878119e+00    3.001854e+00
  5.893994e+00    3.018620e+00
  5.909870e+00    3.058089e+00
  5.925745e+00    3.096689e+00
  5.941621e+00    3.127515e+00
  5.957497e+00    3.119354e+00
  5.973372e+00    3.092488e+00
  5.989248e+00    3.041345e+00
  6.005123e+00    3.074178e+00
  6.020999e+00    3.054904e+00
  6.036874e+00    3.049436e+00
  6.052750e+00    3.037703e+00
  6.068626e+00    3.127981e+00
  6.084501e+00    3.073386e+00
  6.100377e+00    3.087297e+00
  6.116252e+00    3.033929e+00
  6.132128e+00    3.080349e+00
  6.148003e+00    3.070337e+00
  6.163879e+00    3.104541e+00
  6.179755e+00    3.154614e+00
  6.195630e+00    3.104689e+00
  6.211506e+00    3.036038e+00
  6.227381e+00    3.048582e+00
  6.243257e+00    3.062090e+00
  6.259132e+00    3.083233e+00
  6.275008e+00    3.022211e+00
  6.290884e+00    3.053233e+00
  6.306759e+00    3.050450e+00
  6.322635e+00    3.016233e+00
  6.338510e+00    3.023907e+00
  6.354386e+00    3.028363e+00
  6.370261e+00    3.094242e+00
  6.386137e+00    3.121745e+00
  6.402013e+00    3.091439e+00
  6.417888e+00    3.106729e+00
  6.433764e+00    3.076220e+00
  6.449639e+00    2.985868e+00
  6.465515e+00    3.083062e+00
  6.481390e+00    3.088485e+00
  6.497266e+00    3.017670e+00
  6.513142e+00    3.116385e+00
  6.529017e+00    3.061963e+00
  6.544893e+00    3.069067e+00
  6.560768e+00    3.076768e+00
  6.576644e+00    3.086959e+00
  6.592519e+00    3.022311e+00
  6.608395e+00    3.079860e+00
  6.624271e+00    3.115932e+00
  6.640146e+00    3.074786e+00
  6.656022e+00    2.987224e+00
  6.671897e+00    3.083854e+00
  6.687773e+00    3.078172e+00
  6.703648e+00    3.076171e+00
  6.719524e+00    3.092191e+00
  6.735400e+00    3.108300e+00
  6.751275e+00    3.088521e+00
  6.767151e+00    3.093031e+00
  6.783026e+00    3.026011e+00
  6.798902e+00    3.064429e+00
  6.814777e+00    3.074287e+00
  6.830653e+00    3.154851e+00
  6.846529e+00    3.117790e+00
  6.862404e+00    3.079417e+00
  6.878280e+00    3.008830e+00
  6.894155e+00    3.079773e+00
  6.910031e+00    3.102815e+00
  6.925907e+00    3.055529e+00
  6.941782e+00    3.062020e+00
  6.957658e+00    3.038357e+00
  6.973533e+00    2.996715e+00
  6.989409e+00    3.033829e+00
  7.005284e+00    3.051901e+00
  7.021160e+00    3.059824e+00
  7.037036e+00    3.020945e+00
  7.052911e+00    3.038882e+00
  7.068787e+00    3.023808e+00
  7.084662e+00    3.024820e+00
  7.100538e+00    3.027771e+00
  7.116413e+00    3.028009e+00
  7.132289e+00    3.035823e+00
  7.148165e+00    3.001006e+00
  7.164040e+00    3.012867e+00
  7.179916e+00    3.054528e+00
  7.195791e+00    3.005533e+00
  7.211667e+00    3.033029e+00
  7.227542e+00    3.050072e+00
  7.243418e+00    3.027735e+00
  7.259294e+00    3.077994e+00
  7.275169e+00    3.090944e+00
  7.291045e+00    2.980284e+00
  7.306920e+00    2.938980e+00
  7.322796e+00    2.935611e+00
  7.338671e+00    2.944487e+00
  7.354547e+00    3.016098e+00
  7.370423e+00    3.065162e+00
  7.386298e+00    3.051915e+00
  7.402174e+00    3.017374e+00
  7.418049e+00    2.992273e+00
  7.433925e+00    3.038211e+00
  7.449800e+00    3.047902e+00
  7.465676e+00    3.047319e+00
  7.481552e+00    3.027359e+00
  7.497427e+00    3.070225e+00
  7.513303e+00    2.969384e+00
  7.529178e+00    2.986454e+00
  7.545054e+00    2.995726e+00
  7.560929e+00    2.955124e+00
  7.576805e+00    3.007194e+00
  7.592681e+00    2.980660e+00
  7.608556e+00    2.993305e+00
  7.624432e+00    3.005383e+00
  7.640307e+00    2.988088e+00
  7.656183e+00    2.943371e+00
  7.672058e+00    2.990435e+00
  7.687934e+00    2.982948e+00
  7.703810e+00    2.929318e+00
  7.719685e+00    2.982357e+00
  7.735561e+00    2.984693e+00
  7.751436e+00    3.020526e+00
  7.767312e+00    3.028472e+00
  7.783187e+00    2.975841e+00
  7.799063e+00    3.035999e+00
  7.814939e+00    3.024250e+00
  7.830814e+00    3.001370e+00
  7.846690e+00    2.976618e+00
  7.862565e+00    2.978656e+00
  7.878441e+00    2.937969e+00
  7.894317e+00    2.935637e+00
  7.910192e+00    2.914817e+00
  7.926068e+00    2.903906e+00
  7.941943e+00    2.950997e+00
  7.957819e+00    2.978320e+00
  7.973694e+00    2.971218e+00
  7.989570e+00    2.973896e+00
  8.005446e+00    2.979872e+00
  8.021321e+00    2.941931e+00
  8.037197e+00    2.958117e+00
  8.053072e+00    2.920815e+00
  8.068948e+00    2.956448e+00
  8.084823e+00    2.944631e+00
  8.100699e+00    2.897114e+00
  8.116575e+00    2.929887e+00
  8.132450e+00    3.001490e+00
  8.148326e+00    3.006027e+00
  8.164201e+00    3.001122e+00
  8.180077e+00    2.983136e+00
  8.195952e+00    2.983103e+00
  8.211828e+00    2.985713e+00
  8.227704e+00    2.971530e+00
  8.243579e+00    3.016088e+00
  8.259455e+00    2.958533e+00
  8.275330e+00    2.890751e+00
  8.291206e+00    2.971247e+00
  8.307081e+00    3.004754e+00
  8.322957e+00    3.014093e+00
  8.338833e+00    2.946887e+00
  8.354708e+00    2.973443e+00
  8.370584e+00    2.963966e+00
  8.386459e+00    2.937035e+00
  8.402335e+00    2.971154e+00
  8.418210e+00    2.969902e+00
  8.434086e+00    2.949805e+00
  8.449962e+00    2.926883e+00
  8.465837e+00    2.846861e+00
  8.481713e+00    2.877442e+00
  8.497588e+00    2.889210e+00
  8.513464e+00    2.901890e+00
  8.529339e+00    2.935029e+00
  8.545215e+00    2.951733e+00
  8.561091e+00    2.972049e+00
  8.576966e+00    2.943164e+00
  8.592842e+00    2.870295e+00
  8.608717e+00    2.872203e+00
  8.624593e+00    2.915302e+00
  8.640468e+00    2.934522e+00
  8.656344e+00    2.907207e+00
  8.672220e+00    2.878184e+00
  8.688095e+00    2.882264e+00
  8.703971e+00    2.843632e+00
  8.719846e+00    2.878306e+00
  8.735722e+00    2.876324e+00
  8.751598e+00    2.890623e+00
  8.767473e+00    2.931844e+00
  8.783349e+00    2.879994e+00
  8.799224e+00    2.876745e+00
  8.815100e+00    2.857148e+00
  8.830975e+00    2.871480e+00
  8.846851e+00    2.850963e+00
  8.862727e+00    2.870217e+00
  8.878602e+00    2.867636e+00
  8.894478e+00    2.902080e+00
  8.910353e+00    2.877455e+00
  8.926229e+00    2.849898e+00
  8.942104e+00    2.868369e+00
  8.957980e+00    2.865578e+00
  8.973856e+00    2.894351e+00
  8.989731e+00    2.831242e+00
  9.005607e+00    2.863124e+00
  9.021482e+00    2.790101e+00
  9.037358e+00    2.849293e+00
  9.053233e+00    2.845566e+00
  9.069109e+00    2.836063e+00
  9.084985e+00    2.849827e+00
  9.100860e+00    2.803026e+00
  9.116736e+00    2.825775e+00
  9.132611e+00    2.842577e+00
  9.148487e+00    2.845027e+00
  9.164362e+00    2.845662e+00
  9.180238e+00    2.869094e+00
  9.196114e+00    2.859074e+00
  9.211989e+00    2.858404e+00
  9.227865e+00    2.764936e+00
  9.243740e+00    2.795130e+00
  9.259616e+00    2.813531e+00
  9.275491e+00    2.863994e+00
  9.291367e+00    2.829126e+00
  9.307243e+00    2.786736e+00
  9.323118e+00    2.791198e+00
  9.338994e+00    2.817840e+00
  9.354869e+00    2.782139e+00
  9.370745e+00    2.829323e+00
  9.386620e+00    2.794814e+00
  9.402496e+00    2.796206e+00
  9.418372e+00    2.870327e+00
  9.434247e+00    2.836246e+00
  9.450123e+00    2.791222e+00
  9.465998e+00    2.797157e+00
  9.481874e+00    2.744095e+00
  9.497749e+00    2.783571e+00
  9.513625e+00    2.780494e+00
  9.529501e+00    2.816607e+00
  9.545376e+00    2.797888e+00
  9.561252e+00    2.757561e+00
  9.577127e+00    2.770997e+00
  9.593003e+00    2.801002e+00
  9.608878e+00    2.774350e+00
  9.624754e+00    2.818469e+00
  9.640630e+00    2.811175e+00
  9.656505e+00    2.751094e+00
  9.672381e+00    2.681989e+00
  9.688256e+00    2.716458e+00
  9.704132e+00    2.766062e+00
  9.720008e+00    2.800111e+00
  9.735883e+00    2.803618e+00
  9.751759e+00    2.798017e+00
  9.767634e+00    2.784390e+00
  9.783510e+00    2.765543e+00
  9.799385e+00    2.750133e+00
  9.815261e+00    2.787791e+00
  9.831137e+00    2.786176e+00
  9.847012e+00    2.712994e+00
  9.862888e+00    2.738333e+00
  9.878763e+00    2.701422e+00
  9.894639e+00    2.715626e+00
  9.910514e+00    2.719634e+00
  9.926390e+00    2.736374e+00
  9.942266e+00    2.756289e+00
  9.958141e+00    2.705667e+00
  9.974017e+00    2.732874e+00
  9.989892e+00    2.740396e+00
  1.000577e+01    2.716930e+00
  1.002164e+01    2.678636e+00
  1.003752e+01    2.709489e+00
  1.005339e+01    2.668011e+00
  1.006927e+01    2.674876e+00
  1.008515e+01    2.698514e+00
  1.010102e+01    2.692341e+00
  1.011690e+01    2.719137e+00
  1.013277e+01    2.698294e+00
  1.014865e+01    2.704270e+00
  1.016452e+01    2.751916e+00
  1.018040e+01    2.731617e+00
  1.019627e+01    2.666628e+00
  1.021215e+01    2.687373e+00
  1.022803e+01    2.648644e+00
  1.024390e+01    2.673050e+00
  1.025978e+01    2.684264e+00
  1.027565e+01    2.714892e+00
  1.029153e+01    2.676687e+00
  1.030740e+01    2.584879e+00
  1.032328e+01    2.617086e+00
  1.033915e+01    2.651767e+00
  1.035503e+01    2.660506e+00
  1.037091e+01    2.641918e+00
  1.038678e+01    2.638649e+00
  1.040266e+01    2.645025e+00
  1.041853e+01    2.678400e+00
  1.043441e+01    2.643992e+00
  1.045028e+01    2.694481e+00
  1.046616e+01    2.604070e+00
  1.048204e+01    2.566264e+00
  1.049791e+01    2.614289e+00
  1.051379e+01    2.671617e+00
  1.052966e+01    2.661688e+00
  1.054554e+01    2.631885e+00
  1.056141e+01    2.627584e+00
  1.057729e+01    2.606826e+00
  1.059316e+01    2.574636e+00
  1.060904e+01    2.583914e+00
  1.062492e+01    2.572283e+00
  1.064079e+01    2.606519e+00
  1.065667e+01    2.632050e+00
  1.067254e+01    2.618982e+00
  1.068842e+01    2.565562e+00
  1.070429e+01    2.591197e+00
  1.072017e+01    2.586266e+00
  1.073604e+01    2.583198e+00
  1.075192e+01    2.563673e+00
  1.076780e+01    2.538311e+00
  1.078367e+01    2.561753e+00
  1.079955e+01    2.530198e+00
  1.081542e+01    2.579657e+00
  1.083130e+01    2.581692e+00
  1.084717e+01    2.578057e+00
  1.086305e+01    2.580411e+00
  1.087892e+01    2.570992e+00
  1.089480e+01    2.574071e+00
  1.091068e+01    2.583654e+00
  1.092655e+01    2.541878e+00
  1.094243e+01    2.553656e+00
  1.095830e+01    2.545492e+00
  1.097418e+01    2.516340e+00
  1.099005e+01    2.506291e+00
  1.100593e+01    2.495387e+00
  1.102180e+01    2.477881e+00
  1.103768e+01    2.511343e+00
  1.105356e+01    2.513348e+00
  1.106943e+01    2.569775e+00
  1.108531e+01    2.518578e+00
  1.110118e+01    2.494739e+00
  1.111706e+01    2.484847e+00
  1.113293e+01    2.513695e+00
  1.114881e+01    2.564885e+00
  1.116468e+01    2.510969e+00
  1.118056e+01    2.472628e+00
  1.119644e+01    2.519723e+00
  1.121231e+01    2.544120e+00
  1.122819e+01    2.469234e+00
  1.124406e+01    2.514322e+00
  1.125994e+01    2.490013e+00
  1.127581e+01    2.476487e+00
  1.129169e+01    2.451060e+00
  1.130756e+01    2.445204e+00
  1.132344e+01    2.483299e+00
  1.133932e+01    2.492974e+00
  1.135519e+01    2.491217e+00
  1.137107e+01    2.500054e+00
  1.138694e+01    2.441221e+00
  1.140282e+01    2.488871e+00
  1.141869e+01    2.444162e+00
  1.143457e+01    2.416586e+00
  1.145045e+01    2.443448e+00
  1.146632e+01    2.454474e+00
  1.148220e+01    2.430859e+00
  1.149807e+01    2.444333e+00
  1.151395e+01    2.419104e+00
  1.152982e+01    2.431613e+00
  1.154570e+01    2.463261e+00
  1.156157e+01    2.396997e+00
  1.157745e+01    2.396327e+00
  1.159333e+01    2.397676e+00
  1.160920e+01    2.432519e+00
  1.162508e+01    2.402452e+00
  1.164095e+01    2.381716e+00
  1.165683e+01    2.373244e+00
  1.167270e+01    2.379813e+00
  1.168858e+01    2.377809e+00
  1.170445e+01    2.399340e+00
  1.172033e+01    2.365929e+00
  1.173621e+01    2.419558e+00
  1.175208e+01    2.401429e+00
  1.176796e+01    2.422012e+00
  1.178383e+01    2.469980e+00
  1.179971e+01    2.454504e+00
  1.181558e+01    2.424937e+00
  1.183146e+01    2.416143e+00
  1.184733e+01    2.394501e+00
  1.186321e+01    2.375446e+00
  1.187909e+01    2.371465e+00
  1.189496e+01    2.374239e+00
  1.191084e+01    2.382305e+00
  1.192671e+01    2.374012e+00
  1.194259e+01    2.363295e+00
  1.195846e+01    2.324693e+00
  1.197434e+01    2.349664e+00
  1.199021e+01    2.373089e+00
  1.200609e+01    2.366617e+00
  1.202197e+01    2.391372e+00
  1.203784e+01    2.345902e+00
  1.205372e+01    2.337964e+00
  1.206959e+01    2.356858e+00
  1.208547e+01    2.322593e+00
  1.210134e+01    2.341745e+00
  1.211722e+01    2.377119e+00
  1.213309e+01    2.347948e+00
  1.214897e+01    2.301886e+00
  1.216485e+01    2.329396e+00
  1.218072e+01    2.295416e+00
  1.219660e+01    2.281571e+00
  1.221247e+01    2.313442e+00
  1.222835e+01    2.387746e+00
  1.224422e+01    2.384212e+00
  1.226010e+01    2.386321e+00
  1.227597e+01    2.375208e+00
  1.229185e+01    2.404261e+00
  1.230773e+01    2.364951e+00
  1.232360e+01    2.323363e+00
  1.233948e+01    2.341061e+00
  1.235535e+01    2.366511e+00
  1.237123e+01    2.337707e+00
  1.238710e+01    2.346007e+00
  1.240298e+01    2.344796e+00
  1.241886e+01    2.315679e+00
  1.243473e+01    2.398090e+00
  1.245061e+01    2.418884e+00
  1.246648e+01    2.384926e+00
  1.248236e+01    2.372739e+00
  1.249823e+01    2.363050e+00
  1.251411e+01    2.362751e+00
  1.252998e+01    2.382404e+00
  1.254586e+01    2.437942e+00
  1.256174e+01    2.438303e+00
  1.257761e+01    2.418765e+00
  1.259349e+01    2.444120e+00
  1.260936e+01    2.457353e+00
  1.262524e+01    2.458967e+00
  1.264111e+01    2.465582e+00
  1.265699e+01    2.480989e+00
  1.267286e+01    2.505709e+00
  1.268874e+01    2.498520e+00
  1.270462e+01    2.583857e+00
  1.272049e+01    2.591699e+00
  1.273637e+01    2.555137e+00
  1.275224e+01    2.573495e+00
  1.276812e+01    2.618862e+00
  1.278399e+01    2.686666e+00
  1.279987e+01    2.680034e+00
  1.281574e+01    2.766610e+00
  1.283162e+01    2.859900e+00
  1.284750e+01    2.903896e+00
  1.286337e+01    3.000781e+00
  1.287925e+01    3.076429e+00
  1.289512e+01    3.185184e+00
  1.291100e+01    3.358457e+00
  1.292687e+01    3.486477e+00
  1.294275e+01    3.709875e+00
  1.295862e+01    3.989770e+00
  1.297450e+01    4.283346e+00
  1.299038e+01    4.704822e+00
  1.300625e+01    5.188747e+00
  1.302213e+01    5.795453e+00
  1.303800e+01    6.539219e+00
  1.305388e+01    7.640335e+00
  1.306975e+01    8.910933e+00
  1.308563e+01    1.043546e+01
  1.310150e+01    1.198853e+01
  1.311738e+01    1.349485e+01
  1.313326e+01    1.502993e+01
  1.314913e+01    1.656376e+01
  1.316501e+01    1.802651e+01
  1.318088e+01    1.926645e+01
  1.319676e+01    2.013113e+01
  1.321263e+01    2.012000e+01
  1.322851e+01    1.899800e+01
  1.324438e+01    1.689003e+01
  1.326026e+01    1.461711e+01
  1.327614e+01    1.227083e+01
  1.329201e+01    1.029995e+01
  1.330789e+01    8.703866e+00
  1.332376e+01    7.371631e+00
  1.333964e+01    6.423833e+00
  1.335551e+01    5.633985e+00
  1.337139e+01    5.063284e+00
  1.338727e+01    4.620471e+00
  1.340314e+01    4.229417e+00
  1.341902e+01    3.861286e+00
  1.343489e+01    3.550582e+00
  1.345077e+01    3.376995e+00
  1.346664e+01    3.226915e+00
  1.348252e+01    3.104800e+00
  1.349839e+01    3.008826e+00
  1.351427e+01    2.885062e+00
  1.353015e+01    2.806486e+00
  1.354602e+01    2.755054e+00
  1.356190e+01    2.679223e+00
  1.357777e+01    2.629629e+00
  1.359365e+01    2.588650e+00
  1.360952e+01    2.571679e+00
  1.362540e+01    2.499090e+00
  1.364127e+01    2.433322e+00
  1.365715e+01    2.382699e+00
  1.367303e+01    2.347276e+00
  1.368890e+01    2.339834e+00
  1.370478e+01    2.359808e+00
  1.372065e+01    2.309768e+00
  1.373653e+01    2.310944e+00
  1.375240e+01    2.269971e+00
  1.376828e+01    2.256468e+00
  1.378415e+01    2.250676e+00
  1.380003e+01    2.247759e+00
  1.381591e+01    2.239680e+00
  1.383178e+01    2.184421e+00
  1.384766e+01    2.209121e+00
  1.386353e+01    2.192625e+00
  1.387941e+01    2.158744e+00
  1.389528e+01    2.166754e+00
  1.391116e+01    2.176599e+00
  1.392703e+01    2.150002e+00
  1.394291e+01    2.161832e+00
  1.395879e+01    2.175287e+00
  1.397466e+01    2.150730e+00
  1.399054e+01    2.097847e+00
  1.400641e+01    2.072055e+00
  1.402229e+01    2.078993e+00
  1.403816e+01    2.089435e+00
  1.405404e+01    2.089545e+00
  1.406991e+01    2.075531e+00
  1.408579e+01    2.069648e+00
  1.410167e+01    2.079055e+00
  1.411754e+01    2.100725e+00
  1.413342e+01    2.085013e+00
  1.414929e+01    2.047119e+00
  1.416517e+01    2.008223e+00
  1.418104e+01    2.025358e+00
  1.419692e+01    1.998654e+00
  1.421279e+01    2.021152e+00
  1.422867e+01    2.034624e+00
  1.424455e+01    2.005088e+00
  1.426042e+01    1.995164e+00
  1.427630e+01    1.986189e+00
  1.429217e+01    1.981806e+00
  1.430805e+01    1.975247e+00
  1.432392e+01    2.012797e+00
  1.433980e+01    1.961110e+00
  1.435568e+01    1.985759e+00
  1.437155e+01    1.971029e+00
  1.438743e+01    1.993316e+00
  1.440330e+01    1.955847e+00
  1.441918e+01    1.966478e+00
  1.443505e+01    1.987691e+00
  1.445093e+01    1.961927e+00
  1.446680e+01    1.987233e+00
  1.448268e+01    2.016283e+00
  1.449856e+01    1.997278e+00
  1.451443e+01    1.969260e+00
  1.453031e+01    1.970055e+00
  1.454618e+01    1.957044e+00
  1.456206e+01    1.944845e+00
  1.457793e+01    1.927722e+00
  1.459381e+01    1.957695e+00
  1.460968e+01    1.938706e+00
  1.462556e+01    1.924749e+00
  1.464144e+01    1.985352e+00
  1.465731e+01    1.963968e+00
  1.467319e+01    1.953969e+00
  1.468906e+01    1.979648e+00
  1.470494e+01    1.944289e+00
  1.472081e+01    1.958369e+00
  1.473669e+01    1.964180e+00
  1.475256e+01    1.927201e+00
  1.476844e+01    1.968106e+00
  1.478432e+01    1.974674e+00
  1.480019e+01    1.929721e+00
  1.481607e+01    1.909823e+00
  1.483194e+01    1.905669e+00
  1.484782e+01    1.920489e+00
  1.486369e+01    1.947756e+00
  1.487957e+01    2.003946e+00
  1.489544e+01    2.020432e+00
  1.491132e+01    1.989201e+00
  1.492720e+01    2.022939e+00
  1.494307e+01    2.039924e+00
  1.495895e+01    2.045044e+00
  1.497482e+01    2.087380e+00
  1.499070e+01    2.090126e+00
  1.500657e+01    2.112899e+00
  1.502245e+01    2.215037e+00
  1.503832e+01    2.297507e+00
  1.505420e+01    2.413800e+00
  1.507008e+01    2.485745e+00
  1.508595e+01    2.583704e+00
  1.510183e+01    2.737729e+00
  1.511770e+01    2.934755e+00
  1.513358e+01    3.221270e+00
  1.514945e+01    3.571423e+00
  1.516533e+01    3.893393e+00
  1.518120e+01    4.342953e+00
  1.519708e+01    4.796112e+00
  1.521296e+01    5.194773e+00
  1.522883e+01    5.627928e+00
  1.524471e+01    6.073947e+00
  1.526058e+01    6.393886e+00
  1.527646e+01    6.626749e+00
  1.529233e+01    6.740114e+00
  1.530821e+01    6.708675e+00
  1.532409e+01    6.444662e+00
  1.533996e+01    5.843129e+00
  1.535584e+01    5.264781e+00
  1.537171e+01    4.693535e+00
  1.538759e+01    4.094662e+00
  1.540346e+01    3.614156e+00
  1.541934e+01    3.313822e+00
  1.543521e+01    2.987849e+00
  1.545109e+01    2.740616e+00
  1.546697e+01    2.570983e+00
  1.548284e+01    2.400663e+00
  1.549872e+01    2.307423e+00
  1.551459e+01    2.255023e+00
  1.553047e+01    2.177081e+00
  1.554634e+01    2.073034e+00
  1.556222e+01    2.038246e+00
  1.557809e+01    1.994720e+00
  1.559397e+01    1.940022e+00
  1.560985e+01    1.920587e+00
  1.562572e+01    1.898542e+00
  1.564160e+01    1.870860e+00
  1.565747e+01    1.878677e+00
  1.567335e+01    1.874776e+00
  1.568922e+01    1.807077e+00
  1.570510e+01    1.778947e+00
  1.572097e+01    1.764723e+00
  1.573685e+01    1.795862e+00
  1.575273e+01    1.784139e+00
  1.576860e+01    1.785805e+00
  1.578448e+01    1.782401e+00
  1.580035e+01    1.724028e+00
  1.581623e+01    1.697995e+00
  1.583210e+01    1.686894e+00
  1.584798e+01    1.685660e+00
  1.586385e+01    1.684709e+00
  1.587973e+01    1.697502e+00
  1.589561e+01    1.657612e+00
  1.591148e+01    1.682977e+00
  1.592736e+01    1.671316e+00
  1.594323e+01    1.687135e+00
  1.595911e+01    1.675535e+00
  1.597498e+01    1.675427e+00
  1.599086e+01    1.655574e+00
  1.600673e+01    1.631283e+00
  1.602261e+01    1.606448e+00
  1.603849e+01    1.632642e+00
  1.605436e+01    1.632845e+00
  1.607024e+01    1.649519e+00
  1.608611e+01    1.627507e+00
  1.610199e+01    1.612504e+00
  1.611786e+01    1.612574e+00
  1.613374e+01    1.634485e+00
  1.614961e+01    1.616749e+00
  1.616549e+01    1.572495e+00
  1.618137e+01    1.559426e+00
  1.619724e+01    1.604335e+00
  1.621312e+01    1.631075e+00
  1.622899e+01    1.595714e+00
  1.624487e+01    1.586931e+00
  1.626074e+01    1.596344e+00
  1.627662e+01    1.561932e+00
  1.629250e+01    1.577345e+00
  1.630837e+01    1.592536e+00
  1.632425e+01    1.585692e+00
  1.634012e+01    1.617064e+00
  1.635600e+01    1.593584e+00
  1.637187e+01    1.607181e+00
  1.638775e+01    1.568656e+00
  1.640362e+01    1.571419e+00
  1.641950e+01    1.568722e+00
  1.643538e+01    1.535963e+00
  1.645125e+01    1.529080e+00
  1.646713e+01    1.532836e+00
  1.648300e+01    1.541846e+00
  1.649888e+01    1.562366e+00
  1.651475e+01    1.562266e+00
  1.653063e+01    1.555482e+00
  1.654650e+01    1.569666e+00
  1.656238e+01    1.532608e+00
  1.657826e+01    1.540027e+00
  1.659413e+01    1.554171e+00
  1.661001e+01    1.517993e+00
  1.662588e+01    1.484477e+00
  1.664176e+01    1.475533e+00
  1.665763e+01    1.520749e+00
  1.667351e+01    1.515779e+00
  1.668938e+01    1.517990e+00
  1.670526e+01    1.473177e+00
  1.672114e+01    1.491082e+00
  1.673701e+01    1.502051e+00
  1.675289e+01    1.515739e+00
  1.676876e+01    1.510722e+00
  1.678464e+01    1.485574e+00
  1.680051e+01    1.477361e+00
  1.681639e+01    1.488562e+00
  1.683226e+01    1.505613e+00
  1.684814e+01    1.460279e+00
  1.686402e+01    1.440103e+00
  1.687989e+01    1.447568e+00
  1.689577e+01    1.471764e+00
  1.691164e+01    1.486614e+00
  1.692752e+01    1.483115e+00
  1.694339e+01    1.468532e+00
  1.695927e+01    1.483931e+00
  1.697514e+01    1.482722e+00
  1.699102e+01    1.459738e+00
  1.700690e+01    1.457430e+00
  1.702277e+01    1.480527e+00
  1.703865e+01    1.458548e+00
  1.705452e+01    1.431688e+00
  1.707040e+01    1.466830e+00
  1.708627e+01    1.482789e+00
  1.710215e+01    1.474478e+00
  1.711802e+01    1.486808e+00
  1.713390e+01    1.452613e+00
  1.714978e+01    1.419812e+00
  1.716565e+01    1.434630e+00
  1.718153e+01    1.443779e+00
  1.719740e+01    1.454935e+00
  1.721328e+01    1.441013e+00
  1.722915e+01    1.455842e+00
  1.724503e+01    1.430613e+00
  1.726091e+01    1.425585e+00
  1.727678e+01    1.430543e+00
  1.729266e+01    1.427054e+00
  1.730853e+01    1.398345e+00
  1.732441e+01    1.419137e+00
  1.734028e+01    1.423862e+00
  1.735616e+01    1.398304e+00
  1.737203e+01    1.391387e+00
  1.738791e+01    1.386259e+00
  1.740379e+01    1.401673e+00
  1.741966e+01    1.392094e+00
  1.743554e+01    1.395137e+00
  1.745141e+01    1.415026e+00
  1.746729e+01    1.408933e+00
  1.748316e+01    1.415441e+00
  1.749904e+01    1.381603e+00
  1.751491e+01    1.394411e+00
  1.753079e+01    1.387026e+00
  1.754667e+01    1.366127e+00
  1.756254e+01    1.361767e+00
  1.757842e+01    1.363648e+00
  1.759429e+01    1.389703e+00
  1.761017e+01    1.382734e+00
  1.762604e+01    1.365130e+00
  1.764192e+01    1.368779e+00
  1.765779e+01    1.371612e+00
  1.767367e+01    1.376580e+00
  1.768955e+01    1.368565e+00
  1.770542e+01    1.345987e+00
  1.772130e+01    1.353722e+00
  1.773717e+01    1.353531e+00
  1.775305e+01    1.349447e+00
  1.776892e+01    1.330625e+00
  1.778480e+01    1.362244e+00
  1.780067e+01    1.353333e+00
  1.781655e+01    1.346009e+00
  1.783243e+01    1.350330e+00
  1.784830e+01    1.368877e+00
  1.786418e+01    1.364904e+00
  1.788005e+01    1.351695e+00
  1.789593e+01    1.377666e+00
  1.791180e+01    1.375471e+00
  1.792768e+01    1.337795e+00
  1.794355e+01    1.339919e+00
  1.795943e+01    1.360939e+00
  1.797531e+01    1.313462e+00
  1.799118e+01    1.342388e+00
  1.800706e+01    1.354288e+00
  1.802293e+01    1.351327e+00
  1.803881e+01    1.351376e+00
  1.805468e+01    1.331524e+00
  1.807056e+01    1.337438e+00
  1.808643e+01    1.344329e+00
  1.810231e+01    1.343884e+00
  1.811819e+01    1.303720e+00
  1.813406e+01    1.309819e+00
  1.814994e+01    1.344496e+00
  1.816581e+01    1.338950e+00
  1.818169e+01    1.317968e+00
  1.819756e+01    1.290434e+00
  1.821344e+01    1.296091e+00
  1.822932e+01    1.311710e+00
  1.824519e+01    1.323622e+00
  1.826107e+01    1.319014e+00
  1.827694e+01    1.288345e+00
  1.829282e+01    1.273336e+00
  1.830869e+01    1.273287e+00
  1.832457e+01    1.277873e+00
  1.834044e+01    1.280904e+00
  1.835632e+01    1.288900e+00
  1.837220e+01    1.255890e+00
  1.838807e+01    1.278645e+00
  1.840395e+01    1.311517e+00
  1.841982e+01    1.297733e+00
  1.843570e+01    1.269690e+00
  1.845157e+01    1.269497e+00
  1.846745e+01    1.268675e+00
  1.848332e+01    1.283102e+00
  1.849920e+01    1.276695e+00
  1.851508e+01    1.264675e+00
  1.853095e+01    1.294946e+00
  1.854683e+01    1.304401e+00
  1.856270e+01    1.259434e+00
  1.857858e+01    1.258710e+00
  1.859445e+01    1.254608e+00
  1.861033e+01    1.223059e+00
  1.862620e+01    1.241990e+00
  1.864208e+01    1.249671e+00
  1.865796e+01    1.253628e+00
  1.867383e+01    1.287759e+00
  1.868971e+01    1.272433e+00
  1.870558e+01    1.264201e+00
  1.872146e+01    1.248193e+00
  1.873733e+01    1.253886e+00
  1.875321e+01    1.253943e+00
  1.876908e+01    1.239106e+00
  1.878496e+01    1.266950e+00
  1.880084e+01    1.274846e+00
  1.881671e+01    1.276589e+00
  1.883259e+01    1.256424e+00
  1.884846e+01    1.223719e+00
  1.886434e+01    1.240223e+00
  1.888021e+01    1.234566e+00
  1.889609e+01    1.245072e+00
  1.891196e+01    1.241117e+00
  1.892784e+01    1.234286e+00
  1.894372e+01    1.224323e+00
  1.895959e+01    1.252797e+00
  1.897547e+01    1.223389e+00
  1.899134e+01    1.215641e+00
  1.900722e+01    1.219512e+00
  1.902309e+01    1.205461e+00
  1.903897e+01    1.228225e+00
  1.905484e+01    1.227343e+00
  1.907072e+01    1.222955e+00
  1.908660e+01    1.223750e+00
  1.910247e+01    1.226459e+00
  1.911835e+01    1.233374e+00
  1.913422e+01    1.230569e+00
  1.915010e+01    1.195598e+00
  1.916597e+01    1.195012e+00
  1.918185e+01    1.206746e+00
  1.919773e+01    1.222061e+00
  1.921360e+01    1.203831e+00
  1.922948e+01    1.233877e+00
  1.924535e+01    1.209976e+00
  1.926123e+01    1.165800e+00
  1.927710e+01    1.185295e+00
  1.929298e+01    1.199524e+00
  1.930885e+01    1.213380e+00
  1.932473e+01    1.203699e+00
  1.934061e+01    1.208592e+00
  1.935648e+01    1.202396e+00
  1.937236e+01    1.189844e+00
  1.938823e+01    1.206147e+00
  1.940411e+01    1.220386e+00
  1.941998e+01    1.205619e+00
  1.943586e+01    1.194606e+00
  1.945173e+01    1.202379e+00
  1.946761e+01    1.206569e+00
  1.948349e+01    1.199523e+00
  1.949936e+01    1.203458e+00
  1.951524e+01    1.187454e+00
  1.953111e+01    1.187892e+00
  1.954699e+01    1.170989e+00
  1.956286e+01    1.196125e+00
  1.957874e+01    1.191941e+00
  1.959461e+01    1.144985e+00
  1.961049e+01    1.151064e+00
  1.962637e+01    1.183311e+00
  1.964224e+01    1.187124e+00
  1.965812e+01    1.178520e+00
  1.967399e+01    1.166126e+00
  1.968987e+01    1.177717e+00
  1.970574e+01    1.195152e+00
  1.972162e+01    1.212518e+00
  1.973749e+01    1.189544e+00
  1.975337e+01    1.146239e+00
  1.976925e+01    1.140782e+00
  1.978512e+01    1.168728e+00
  1.980100e+01    1.158749e+00
  1.981687e+01    1.165088e+00
  1.983275e+01    1.154547e+00
  1.984862e+01    1.161494e+00
  1.986450e+01    1.159731e+00
  1.988037e+01    1.152237e+00
  1.989625e+01    1.172512e+00
  1.991213e+01    1.137583e+00
  1.992800e+01    1.163718e+00
  1.994388e+01    1.147326e+00
  1.995975e+01    1.142382e+00
  1.997563e+01    1.129198e+00
  1.999150e+01    1.146587e+00
  2.000738e+01    1.145780e+00
  2.002325e+01    1.153696e+00
  2.003913e+01    1.142327e+00
  2.005501e+01    1.124364e+00
  2.007088e+01    1.153383e+00
  2.008676e+01    1.139143e+00
  2.010263e+01    1.139091e+00
  2.011851e+01    1.129875e+00
  2.013438e+01    1.123563e+00
  2.015026e+01    1.137693e+00
  2.016614e+01    1.110986e+00
  2.018201e+01    1.131096e+00
  2.019789e+01    1.126887e+00
  2.021376e+01    1.131945e+00
  2.022964e+01    1.123668e+00
  2.024551e+01    1.134615e+00
  2.026139e+01    1.139519e+00
  2.027726e+01    1.120108e+00
  2.029314e+01    1.114239e+00
  2.030902e+01    1.110953e+00
  2.032489e+01    1.144771e+00
  2.034077e+01    1.144982e+00
  2.035664e+01    1.110127e+00
  2.037252e+01    1.106389e+00
  2.038839e+01    1.110754e+00
  2.040427e+01    1.111815e+00
  2.042014e+01    1.110022e+00
  2.043602e+01    1.116446e+00
  2.045190e+01    1.107081e+00
  2.046777e+01    1.098726e+00
  2.048365e+01    1.100003e+00
  2.049952e+01    1.078542e+00
  2.051540e+01    1.135061e+00
  2.053127e+01    1.117538e+00
  2.054715e+01    1.100810e+00
  2.056302e+01    1.102365e+00
  2.057890e+01    1.112335e+00
  2.059478e+01    1.141624e+00
  2.061065e+01    1.120006e+00
  2.062653e+01    1.096212e+00
  2.064240e+01    1.115248e+00
  2.065828e+01    1.133378e+00
  2.067415e+01    1.115768e+00
  2.069003e+01    1.115104e+00
  2.070590e+01    1.115693e+00
  2.072178e+01    1.095406e+00
  2.073766e+01    1.074980e+00
  2.075353e+01    1.119049e+00
  2.076941e+01    1.115023e+00
  2.078528e+01    1.102603e+00
  2.080116e+01    1.093190e+00
  2.081703e+01    1.121360e+00
  2.083291e+01    1.112967e+00
  2.084878e+01    1.107744e+00
  2.086466e+01    1.104752e+00
  2.088054e+01    1.090658e+00
  2.089641e+01    1.097987e+00
  2.091229e+01    1.100194e+00
  2.092816e+01    1.105433e+00
  2.094404e+01    1.110808e+00
  2.095991e+01    1.110505e+00
  2.097579e+01    1.111241e+00
  2.099166e+01    1.105883e+00
  2.100754e+01    1.104771e+00
  2.102342e+01    1.118047e+00
  2.103929e+01    1.102461e+00
  2.105517e+01    1.103774e+00
  2.107104e+01    1.123671e+00
  2.108692e+01    1.118562e+00
  2.110279e+01    1.119743e+00
  2.111867e+01    1.111431e+00
  2.113455e+01    1.114510e+00
  2.115042e+01    1.118528e+00
  2.116630e+01    1.107890e+00
  2.118217e+01    1.115882e+00
  2.119805e+01    1.110010e+00
  2.121392e+01    1.119551e+00
  2.122980e+01    1.114372e+00
  2.124567e+01    1.120251e+00
  2.126155e+01    1.140065e+00
  2.127743e+01    1.134491e+00
  2.129330e+01    1.127137e+00
  2.130918e+01    1.132676e+00
  2.132505e+01    1.165410e+00
  2.134093e+01    1.164030e+00
  2.135680e+01    1.159570e+00
  2.137268e+01    1.165980e+00
  2.138855e+01    1.203206e+00
  2.140443e+01    1.175913e+00
  2.142031e+01    1.194566e+00
  2.143618e+01    1.217285e+00
  2.145206e+01    1.226567e+00
  2.146793e+01    1.263716e+00
  2.148381e+01    1.283743e+00
  2.149968e+01    1.288710e+00
  2.151556e+01    1.317015e+00
  2.153143e+01    1.346721e+00
  2.154731e+01    1.392255e+00
  2.156319e+01    1.420518e+00
  2.157906e+01    1.447964e+00
  2.159494e+01    1.478221e+00
  2.161081e+01    1.544604e+00
  2.162669e+01    1.624104e+00
  2.164256e+01    1.713155e+00
  2.165844e+01    1.837124e+00
  2.167431e+01    1.968210e+00
  2.169019e+01    2.074888e+00
  2.170607e+01    2.276011e+00
  2.172194e+01    2.449234e+00
  2.173782e+01    2.733370e+00
  2.175369e+01    3.118798e+00
  2.176957e+01    3.513868e+00
  2.178544e+01    4.011651e+00
  2.180132e+01    4.673319e+00
  2.181719e+01    5.399493e+00
  2.183307e+01    6.201467e+00
  2.184895e+01    7.034239e+00
  2.186482e+01    7.940870e+00
  2.188070e+01    8.857523e+00
  2.189657e+01    9.767793e+00
  2.191245e+01    1.055490e+01
  2.192832e+01    1.109192e+01
  2.194420e+01    1.123514e+01
  2.196007e+01    1.091699e+01
  2.197595e+01    1.009106e+01
  2.199183e+01    8.933866e+00
  2.200770e+01    7.748250e+00
  2.202358e+01    6.530452e+00
  2.203945e+01    5.515759e+00
  2.205533e+01    4.648938e+00
  2.207120e+01    3.964388e+00
  2.208708e+01    3.463145e+00
  2.210296e+01    3.082029e+00
  2.211883e+01    2.770671e+00
  2.213471e+01    2.495718e+00
  2.215058e+01    2.271098e+00
  2.216646e+01    2.080981e+00
  2.218233e+01    1.916239e+00
  2.219821e+01    1.787223e+00
  2.221408e+01    1.695241e+00
  2.222996e+01    1.622099e+00
  2.224584e+01    1.516121e+00
  2.226171e+01    1.461067e+00
  2.227759e+01    1.448815e+00
  2.229346e+01    1.417858e+00
  2.230934e+01    1.343357e+00
  2.232521e+01    1.303194e+00
  2.234109e+01    1.275463e+00
  2.235696e+01    1.222540e+00
  2.237284e+01    1.205438e+00
  2.238872e+01    1.181043e+00
  2.240459e+01    1.159428e+00
  2.242047e+01    1.137700e+00
  2.243634e+01    1.133689e+00
  2.245222e+01    1.135918e+00
  2.246809e+01    1.112586e+00
  2.248397e+01    1.112134e+00
  2.249984e+01    1.099010e+00
  2.251572e+01    1.087777e+00
  2.253160e+01    1.054889e+00
  2.254747e+01    1.051791e+00
  2.256335e+01    1.062839e+00
  2.257922e+01    1.040013e+00
  2.259510e+01    1.028936e+00
  2.261097e+01    1.027198e+00
  2.262685e+01    1.010425e+00
  2.264272e+01    1.013379e+00
  2.265860e+01    1.053298e+00
  2.267448e+01    9.962990e-01
  2.269035e+01    9.913042e-01
  2.270623e+01    9.924716e-01
  2.272210e+01    1.031729e+00
  2.273798e+01    1.001058e+00
  2.275385e+01    9.691603e-01
  2.276973e+01    9.433739e-01
  2.278560e+01    9.749820e-01
  2.280148e+01    9.714313e-01
  2.281736e+01    9.870517e-01
  2.283323e+01    9.774680e-01
  2.284911e+01    9.450638e-01
  2.286498e+01    9.513931e-01
  2.288086e+01    9.608113e-01
  2.289673e+01    9.364584e-01
  2.291261e+01    9.199542e-01
  2.292848e+01    9.400206e-01
  2.294436e+01    9.587616e-01
  2.296024e+01    9.470717e-01
  2.297611e+01    9.302284e-01
  2.299199e+01    9.205021e-01
  2.300786e+01    9.134974e-01
  2.302374e+01    9.156514e-01
  2.303961e+01    9.105195e-01
  2.305549e+01    9.047655e-01
  2.307137e+01    9.010358e-01
  2.308724e+01    8.928431e-01
  2.310312e+01    9.083861e-01
  2.311899e+01    9.121205e-01
  2.313487e+01    9.093655e-01
  2.315074e+01    8.976849e-01
  2.316662e+01    9.073735e-01
  2.318249e+01    9.116063e-01
  2.319837e+01    9.308471e-01
  2.321425e+01    9.142685e-01
  2.323012e+01    8.895143e-01
  2.324600e+01    8.790452e-01
  2.326187e+01    8.893105e-01
  2.327775e+01    9.031948e-01
  2.329362e+01    9.126821e-01
  2.330950e+01    9.074847e-01
  2.332537e+01    8.907389e-01
  2.334125e+01    8.926114e-01
  2.335713e+01    8.904830e-01
  2.337300e+01    8.721580e-01
  2.338888e+01    8.795760e-01
  2.340475e+01    8.833054e-01
  2.342063e+01    8.934649e-01
  2.343650e+01    8.707114e-01
  2.345238e+01    8.716165e-01
  2.346825e+01    8.821225e-01
  2.348413e+01    8.702593e-01
  2.350001e+01    8.620080e-01
  2.351588e+01    8.618119e-01
  2.353176e+01    8.562440e-01
  2.354763e+01    8.652341e-01
  2.356351e+01    8.784782e-01
  2.357938e+01    8.738709e-01
  2.359526e+01    8.693847e-01
  2.361113e+01    8.717845e-01
  2.362701e+01    8.775844e-01
  2.364289e+01    8.880138e-01
  2.365876e+01    8.553038e-01
  2.367464e+01    8.527419e-01
  2.369051e+01    8.589497e-01
  2.370639e+01    8.441712e-01
  2.372226e+01    8.407618e-01
  2.373814e+01    8.338223e-01
  2.375401e+01    8.351516e-01
  2.376989e+01    8.443292e-01
  2.378577e+01    8.177624e-01
  2.380164e+01    8.187028e-01
  2.381752e+01    8.269222e-01
  2.383339e+01    8.138922e-01
  2.384927e+01    8.076694e-01
  2.386514e+01    8.192680e-01
  2.388102e+01    8.360639e-01
  2.389689e+01    8.208118e-01
  2.391277e+01    8.089933e-01
  2.392865e+01    8.142882e-01
  2.394452e+01    8.312399e-01
  2.396040e+01    8.353375e-01
  2.397627e+01    8.250498e-01
  2.399215e+01    7.984238e-01
  2.400802e+01    8.059717e-01
  2.402390e+01    8.156071e-01
  2.403978e+01    8.126819e-01
  2.405565e+01    8.277351e-01
  2.407153e+01    8.208771e-01
  2.408740e+01    8.009703e-01
  2.410328e+01    7.970999e-01
  2.411915e+01    7.865191e-01
  2.413503e+01    8.168765e-01
  2.415090e+01    7.934840e-01
  2.416678e+01    7.951988e-01
  2.418266e+01    8.171561e-01
  2.419853e+01    7.901925e-01
  2.421441e+01    7.912885e-01
  2.423028e+01    8.049781e-01
  2.424616e+01    8.056172e-01
  2.426203e+01    8.287352e-01
  2.427791e+01    8.060207e-01
  2.429378e+01    8.096104e-01
  2.430966e+01    8.241730e-01
  2.432554e+01    7.974038e-01
  2.434141e+01    8.055111e-01
  2.435729e+01    7.945189e-01
  2.437316e+01    7.989501e-01
  2.438904e+01    8.051249e-01
  2.440491e+01    8.112896e-01
  2.442079e+01    8.169339e-01
  2.443666e+01    8.075486e-01
  2.445254e+01    8.197845e-01
  2.446842e+01    8.258747e-01
  2.448429e+01    7.964808e-01
  2.450017e+01    8.018077e-01
  2.451604e+01    8.103352e-01
  2.453192e+01    8.014708e-01
  2.454779e+01    8.064877e-01
  2.456367e+01    7.989684e-01
  2.457954e+01    8.127656e-01
  2.459542e+01    8.072619e-01
  2.461130e+01    7.952455e-01
  2.462717e+01    8.036404e-01
  2.464305e+01    8.276495e-01
  2.465892e+01    8.170050e-01
  2.467480e+01    8.135028e-01
  2.469067e+01    8.054845e-01
  2.470655e+01    8.141716e-01
  2.472242e+01    8.146374e-01
  2.473830e+01    8.118807e-01
  2.475418e+01    8.076352e-01
  2.477005e+01    8.160888e-01
  2.478593e+01    8.107631e-01
  2.480180e+01    7.965136e-01
  2.481768e+01    8.126056e-01
  2.483355e+01    8.209668e-01
  2.484943e+01    8.194919e-01
  2.486530e+01    8.284709e-01
  2.488118e+01    8.177658e-01
  2.489706e+01    8.256638e-01
  2.491293e+01    8.076850e-01
  2.492881e+01    7.972270e-01
  2.494468e+01    7.989525e-01
  2.496056e+01    8.199908e-01
  2.497643e+01    8.175547e-01
  2.499231e+01    8.287331e-01
  2.500819e+01    8.326210e-01
  2.502406e+01    8.243172e-01
  2.503994e+01    8.237524e-01
  2.505581e+01    8.197401e-01
  2.507169e+01    8.199417e-01
  2.508756e+01    8.309686e-01
  2.510344e+01    8.375488e-01
  2.511931e+01    8.424987e-01
  2.513519e+01    8.205487e-01
  2.515107e+01    8.132977e-01
  2.516694e+01    8.267645e-01
  2.518282e+01    8.545616e-01
  2.519869e+01    8.744453e-01
  2.521457e+01    8.546754e-01
  2.523044e+01    8.616474e-01
  2.524632e+01    8.747087e-01
  2.526219e+01    8.866659e-01
  2.527807e+01    8.806415e-01
  2.529395e+01    8.687396e-01
  2.530982e+01    8.828066e-01
  2.532570e+01    8.757604e-01
  2.534157e+01    8.859473e-01
  2.535745e+01    9.002413e-01
  2.537332e+01    9.202225e-01
  2.538920e+01    9.426528e-01
  2.540507e+01    9.236311e-01
  2.542095e+01    9.436487e-01
  2.543683e+01    9.342139e-01
  2.545270e+01    9.397669e-01
  2.546858e+01    9.527776e-01
  2.548445e+01    9.870046e-01
  2.550033e+01    9.998852e-01
  2.551620e+01    1.004197e+00
  2.553208e+01    1.016803e+00
  2.554795e+01    1.022431e+00
  2.556383e+01    1.041294e+00
  2.557971e+01    1.092191e+00
  2.559558e+01    1.095318e+00
  2.561146e+01    1.121525e+00
  2.562733e+01    1.150257e+00
  2.564321e+01    1.168093e+00
  2.565908e+01    1.222544e+00
  2.567496e+01    1.297075e+00
  2.569083e+01    1.351352e+00
  2.570671e+01    1.380005e+00
  2.572259e+01    1.428459e+00
  2.573846e+01    1.540751e+00
  2.575434e+01    1.678429e+00
  2.577021e+01    1.783613e+00
  2.578609e+01    1.953810e+00
  2.580196e+01    2.161799e+00
  2.581784e+01    2.383026e+00
  2.583371e+01    2.692182e+00
  2.584959e+01    3.058084e+00
  2.586547e+01    3.500098e+00
  2.588134e+01    4.047491e+00
  2.589722e+01    4.655124e+00
  2.591309e+01    5.382451e+00
  2.592897e+01    6.190606e+00
  2.594484e+01    6.977996e+00
  2.596072e+01    7.817327e+00
  2.597660e+01    8.513617e+00
  2.599247e+01    9.088256e+00
  2.600835e+01    9.361491e+00
  2.602422e+01    9.244895e+00
  2.604010e+01    8.841352e+00
  2.605597e+01    8.066455e+00
  2.607185e+01    7.134787e+00
  2.608772e+01    6.188624e+00
  2.610360e+01    5.297353e+00
  2.611948e+01    4.552462e+00
  2.613535e+01    3.859373e+00
  2.615123e+01    3.356395e+00
  2.616710e+01    2.930094e+00
  2.618298e+01    2.601156e+00
  2.619885e+01    2.346932e+00
  2.621473e+01    2.115159e+00
  2.623060e+01    1.910336e+00
  2.624648e+01    1.789527e+00
  2.626236e+01    1.651950e+00
  2.627823e+01    1.542268e+00
  2.629411e+01    1.477822e+00
  2.630998e+01    1.388352e+00
  2.632586e+01    1.345005e+00
  2.634173e+01    1.297776e+00
  2.635761e+01    1.227855e+00
  2.637348e+01    1.172586e+00
  2.638936e+01    1.147318e+00
  2.640524e+01    1.120519e+00
  2.642111e+01    1.095005e+00
  2.643699e+01    1.062788e+00
  2.645286e+01    1.031950e+00
  2.646874e+01    1.040828e+00
  2.648461e+01    1.027354e+00
  2.650049e+01    1.023844e+00
  2.651636e+01    1.002964e+00
  2.653224e+01    1.007134e+00
  2.654812e+01    1.010456e+00
  2.656399e+01    9.853853e-01
  2.657987e+01    9.815156e-01
  2.659574e+01    9.809385e-01
  2.661162e+01    9.680259e-01
  2.662749e+01    9.579892e-01
  2.664337e+01    9.663735e-01
  2.665924e+01    9.612203e-01
  2.667512e+01    9.464390e-01
  2.669100e+01    9.426779e-01
  2.670687e+01    9.399083e-01
  2.672275e+01    9.394990e-01
  2.673862e+01    9.444866e-01
  2.675450e+01    9.309108e-01
  2.677037e+01    9.260437e-01
  2.678625e+01    9.258451e-01
  2.680212e+01    9.392850e-01
  2.681800e+01    9.319042e-01
  2.683388e+01    9.218073e-01
  2.684975e+01    9.461398e-01
  2.686563e+01    9.707305e-01
  2.688150e+01    9.629366e-01
  2.689738e+01    9.677605e-01
  2.691325e+01    9.804863e-01
  2.692913e+01    9.881786e-01
  2.694501e+01    9.574446e-01
  2.696088e+01    9.852470e-01
  2.697676e+01    9.745300e-01
  2.699263e+01    9.877808e-01
  2.700851e+01    1.012613e+00
  2.702438e+01    1.057892e+00
  2.704026e+01    1.062481e+00
  2.705613e+01    1.069567e+00
  2.707201e+01    1.123594e+00
  2.708789e+01    1.186991e+00
  2.710376e+01    1.238473e+00
  2.711964e+01    1.300815e+00
  2.713551e+01    1.409892e+00
  2.715139e+01    1.546415e+00
  2.716726e+01    1.678831e+00
  2.718314e+01    1.849708e+00
  2.719901e+01    2.046625e+00
  2.721489e+01    2.246058e+00
  2.723077e+01    2.388279e+00
  2.724664e+01    2.545378e+00
  2.726252e+01    2.635831e+00
  2.727839e+01    2.604051e+00
  2.729427e+01    2.591349e+00
  2.731014e+01    2.489489e+00
  2.732602e+01    2.279332e+00
  2.734189e+01    2.097510e+00
  2.735777e+01    1.893535e+00
  2.737365e+01    1.717778e+00
  2.738952e+01    1.549728e+00
  2.740540e+01    1.413516e+00
  2.742127e+01    1.336689e+00
  2.743715e+01    1.253737e+00
  2.745302e+01    1.189211e+00
  2.746890e+01    1.141372e+00
  2.748477e+01    1.103254e+00
  2.750065e+01    1.059540e+00
  2.751653e+01    9.951236e-01
  2.753240e+01    9.750079e-01
  2.754828e+01    9.791753e-01
  2.756415e+01    9.663705e-01
  2.758003e+01    9.344714e-01
  2.759590e+01    9.079576e-01
  2.761178e+01    9.112745e-01
  2.762765e+01    9.143699e-01
  2.764353e+01    8.909503e-01
  2.765941e+01    8.856030e-01
  2.767528e+01    8.892974e-01
  2.769116e+01    8.686836e-01
  2.770703e+01    8.637078e-01
  2.772291e+01    8.772373e-01
  2.773878e+01    8.532624e-01
  2.775466e+01    8.630564e-01
  2.777054e+01    8.460961e-01
  2.778641e+01    8.378566e-01
  2.780229e+01    8.580059e-01
  2.781816e+01    8.462363e-01
  2.783404e+01    8.398077e-01
  2.784991e+01    8.474491e-01
  2.786579e+01    8.321569e-01
  2.788166e+01    8.231527e-01
  2.789754e+01    8.179066e-01
  2.791342e+01    8.303798e-01
  2.792929e+01    8.463459e-01
  2.794517e+01    8.597942e-01
  2.796104e+01    8.344413e-01
  2.797692e+01    8.159170e-01
  2.799279e+01    8.352898e-01
  2.800867e+01    8.325948e-01
  2.802454e+01    8.045328e-01
  2.804042e+01    7.952423e-01
  2.805630e+01    8.113194e-01
  2.807217e+01    8.354692e-01
  2.808805e+01    8.238918e-01
  2.810392e+01    8.131964e-01
  2.811980e+01    8.071266e-01
  2.813567e+01    8.044056e-01
  2.815155e+01    7.870068e-01
  2.816742e+01    7.914262e-01
  2.818330e+01    8.037868e-01
  2.819918e+01    8.027821e-01
  2.821505e+01    7.940090e-01
  2.823093e+01    8.234767e-01
  2.824680e+01    8.086617e-01
  2.826268e+01    7.704871e-01
  2.827855e+01    7.899037e-01
  2.829443e+01    8.018314e-01
  2.831030e+01    8.201088e-01
  2.832618e+01    7.844517e-01
  2.834206e+01    7.956261e-01
  2.835793e+01    8.003207e-01
  2.837381e+01    7.787670e-01
  2.838968e+01    7.909456e-01
  2.840556e+01    7.840819e-01
  2.842143e+01    7.620163e-01
  2.843731e+01    7.731194e-01
  2.845318e+01    7.672871e-01
  2.846906e+01    7.917114e-01
  2.848494e+01    7.903200e-01
  2.850081e+01    7.987565e-01
  2.851669e+01    7.719837e-01
  2.853256e+01    7.730203e-01
  2.854844e+01    7.695909e-01
  2.856431e+01    7.818496e-01
  2.858019e+01    7.857782e-01
  2.859606e+01    7.850246e-01
  2.861194e+01    7.658691e-01
  2.862782e+01    7.914547e-01
  2.864369e+01    7.940199e-01
  2.865957e+01    7.824448e-01
  2.867544e+01    7.550745e-01
  2.869132e+01    7.729430e-01
  2.870719e+01    7.808620e-01
  2.872307e+01    7.673724e-01
  2.873895e+01    7.849808e-01
  2.875482e+01    7.787952e-01
  2.877070e+01    7.592313e-01
  2.878657e+01    7.634035e-01
  2.880245e+01    7.620948e-01
  2.881832e+01    7.746800e-01
  2.883420e+01    7.573413e-01
  2.885007e+01    7.581816e-01
  2.886595e+01    7.637474e-01
  2.888183e+01    7.703744e-01
  2.889770e+01    7.651316e-01
  2.891358e+01    7.664512e-01
  2.892945e+01    7.658156e-01
  2.894533e+01    7.626060e-01
  2.896120e+01    7.802288e-01
  2.897708e+01    7.755077e-01
  2.899295e+01    7.682359e-01
  2.900883e+01    7.686380e-01
  2.902471e+01    7.487797e-01
  2.904058e+01    7.517715e-01
  2.905646e+01    7.752800e-01
  2.907233e+01    7.702659e-01
  2.908821e+01    7.407116e-01
  2.910408e+01    7.695997e-01
  2.911996e+01    7.772744e-01
  2.913583e+01    7.599548e-01
  2.915171e+01    7.563031e-01
  2.916759e+01    7.570618e-01
  2.918346e+01    7.800606e-01
  2.919934e+01    7.737022e-01
  2.921521e+01    7.548127e-01
  2.923109e+01    7.425999e-01
  2.924696e+01    7.615911e-01
  2.926284e+01    7.559545e-01
  2.927871e+01    7.554283e-01
  2.929459e+01    7.353866e-01
  2.931047e+01    7.488196e-01
  2.932634e+01    7.514696e-01
  2.934222e+01    7.390901e-01
  2.935809e+01    7.433705e-01
  2.937397e+01    7.637033e-01
  2.938984e+01    7.527453e-01
  2.940572e+01    7.390485e-01
  2.942159e+01    7.442510e-01
  2.943747e+01    7.559234e-01
  2.945335e+01    7.460513e-01
  2.946922e+01    7.504930e-01
  2.948510e+01    7.422055e-01
  2.950097e+01    7.387303e-01
  2.951685e+01    7.368204e-01
  2.953272e+01    7.413377e-01
  2.954860e+01    7.604064e-01
  2.956447e+01    7.306639e-01
  2.958035e+01    7.504568e-01
  2.959623e+01    7.575711e-01
  2.961210e+01    7.637466e-01
  2.962798e+01    7.582691e-01
  2.964385e+01    7.615480e-01
  2.965973e+01    7.393628e-01
  2.967560e+01    7.356517e-01
  2.969148e+01    7.512594e-01
  2.970736e+01    7.281187e-01
  2.972323e+01    7.452879e-01
  2.973911e+01    7.296302e-01
  2.975498e+01    7.522544e-01
  2.977086e+01    7.473037e-01
  2.978673e+01    7.396676e-01
  2.980261e+01    7.463158e-01
  2.981848e+01    7.432489e-01
  2.983436e+01    7.233869e-01
  2.985024e+01    7.373747e-01
  2.986611e+01    7.571017e-01
  2.988199e+01    7.417560e-01
  2.989786e+01    7.251032e-01
  2.991374e+01    7.304757e-01
  2.992961e+01    7.394637e-01
  2.994549e+01    7.481627e-01
  2.996136e+01    7.529596e-01
  2.997724e+01    7.400621e-01
  2.999312e+01    7.321028e-01
  3.000899e+01    7.589145e-01
  3.002487e+01    7.459218e-01
  3.004074e+01    7.394314e-01
  3.005662e+01    7.521771e-01
  3.007249e+01    7.605767e-01
  3.008837e+01    7.577430e-01
  3.010424e+01    7.552316e-01
  3.012012e+01    7.622155e-01
  3.013600e+01    7.465552e-01
  3.015187e+01    7.224605e-01
  3.016775e+01    7.281599e-01
  3.018362e+01    7.332609e-01
  3.019950e+01    7.141843e-01
  3.021537e+01    7.348777e-01
  3.023125e+01    7.385446e-01
  3.024712e+01    7.283574e-01
  3.026300e+01    7.290164e-01
  3.027888e+01    7.139881e-01
  3.029475e+01    7.355022e-01
  3.031063e+01    7.314574e-01
  3.032650e+01    7.309500e-01
  3.034238e+01    7.290760e-01
  3.035825e+01    7.301117e-01
  3.037413e+01    7.311544e-01
  3.039000e+01    7.083532e-01
  3.040588e+01    7.243236e-01
  3.042176e+01    7.330436e-01
  3.043763e+01    7.305195e-01
  3.045351e+01    7.381353e-01
  3.046938e+01    7.261112e-01
  3.048526e+01    7.402380e-01
  3.050113e+01    7.212729e-01
  3.051701e+01    7.224635e-01
  3.053288e+01    7.307000e-01
  3.054876e+01    7.156249e-01
  3.056464e+01    7.357628e-01
  3.058051e+01    7.251086e-01
  3.059639e+01    7.130431e-01
  3.061226e+01    7.318559e-01
  3.062814e+01    7.268185e-01
  3.064401e+01    7.326456e-01
  3.065989e+01    7.360078e-01
  3.067577e+01    7.175179e-01
  3.069164e+01    7.265034e-01
  3.070752e+01    7.279093e-01
  3.072339e+01    7.200863e-01
  3.073927e+01    7.308812e-01
  3.075514e+01    7.348863e-01
  3.077102e+01    7.558009e-01
  3.078689e+01    7.522147e-01
  3.080277e+01    7.497898e-01
  3.081865e+01    7.251881e-01
  3.083452e+01    7.462901e-01
  3.085040e+01    7.264512e-01
  3.086627e+01    7.348242e-01
  3.088215e+01    7.478239e-01
  3.089802e+01    7.251514e-01
  3.091390e+01    7.056013e-01
  3.092977e+01    7.351789e-01
  3.094565e+01    7.413806e-01
  3.096153e+01    7.305067e-01
  3.097740e+01    7.363899e-01
  3.099328e+01    7.423030e-01
  3.100915e+01    7.513466e-01
  3.102503e+01    7.469838e-01
  3.104090e+01    7.448806e-01
  3.105678e+01    7.290311e-01
  3.107265e+01    7.323537e-01
  3.108853e+01    7.183171e-01
  3.110441e+01    7.371359e-01
  3.112028e+01    7.420377e-01
  3.113616e+01    7.367697e-01
  3.115203e+01    7.417114e-01
  3.116791e+01    7.265789e-01
  3.118378e+01    7.366406e-01
  3.119966e+01    7.359776e-01
  3.121553e+01    7.311554e-01
  3.123141e+01    7.387078e-01
  3.124729e+01    7.583324e-01
  3.126316e+01    7.502244e-01
  3.127904e+01    7.517037e-01
  3.129491e+01    7.703258e-01
  3.131079e+01    7.496817e-01
  3.132666e+01    7.616897e-01
  3.134254e+01    7.656289e-01
  3.135841e+01    7.598417e-01
  3.137429e+01    7.641048e-01
  3.139017e+01    7.622541e-01
  3.140604e+01    7.813659e-01
  3.142192e+01    7.580104e-01
  3.143779e+01    7.576099e-01
  3.145367e+01    7.707750e-01
  3.146954e+01    7.677691e-01
  3.148542e+01    7.713235e-01
  3.150129e+01    7.752752e-01
  3.151717e+01    7.917236e-01
  3.153305e+01    7.947376e-01
  3.154892e+01    7.922397e-01
  3.156480e+01    8.081200e-01
  3.158067e+01    7.923471e-01
  3.159655e+01    8.193992e-01
  3.161242e+01    8.302999e-01
  3.162830e+01    8.293524e-01
  3.164418e+01    8.254082e-01
  3.166005e+01    8.689231e-01
  3.167593e+01    8.800306e-01
  3.169180e+01    8.878339e-01
  3.170768e+01    9.417670e-01
  3.172355e+01    9.715007e-01
  3.173943e+01    9.746941e-01
  3.175530e+01    1.017482e+00
  3.177118e+01    1.058209e+00
  3.178706e+01    1.093102e+00
  3.180293e+01    1.170725e+00
  3.181881e+01    1.257164e+00
  3.183468e+01    1.357421e+00
  3.185056e+01    1.504542e+00
  3.186643e+01    1.669594e+00
  3.188231e+01    1.800628e+00
  3.189818e+01    1.967081e+00
  3.191406e+01    2.205722e+00
  3.192994e+01    2.369906e+00
  3.194581e+01    2.534203e+00
  3.196169e+01    2.622715e+00
  3.197756e+01    2.650503e+00
  3.199344e+01    2.591803e+00
  3.200931e+01    2.493286e+00
  3.202519e+01    2.280034e+00
  3.204106e+01    2.091321e+00
  3.205694e+01    1.889116e+00
  3.207282e+01    1.710917e+00
  3.208869e+01    1.484123e+00
  3.210457e+01    1.358874e+00
  3.212044e+01    1.280126e+00
  3.213632e+01    1.189748e+00
  3.215219e+01    1.103268e+00
  3.216807e+01    1.048335e+00
  3.218394e+01    9.855583e-01
  3.219982e+01    9.716589e-01
  3.221570e+01    9.303506e-01
  3.223157e+01    8.945611e-01
  3.224745e+01    8.591350e-01
  3.226332e+01    8.620540e-01
  3.227920e+01    8.634102e-01
  3.229507e+01    8.661168e-01
  3.231095e+01    8.460960e-01
  3.232682e+01    8.164723e-01
  3.234270e+01    8.068836e-01
  3.235858e+01    8.023716e-01
  3.237445e+01    8.003791e-01
  3.239033e+01    8.069119e-01
  3.240620e+01    7.930709e-01
  3.242208e+01    7.609005e-01
  3.243795e+01    7.764563e-01
  3.245383e+01    7.842576e-01
  3.246970e+01    7.973691e-01
  3.248558e+01    7.956262e-01
  3.250146e+01    7.658209e-01
  3.251733e+01    7.375510e-01
  3.253321e+01    7.672165e-01
  3.254908e+01    7.701515e-01
