# == pyFAI calibration ==
# Distance Sample to Detector: 0.3999999939076516 m
# PONI: 9.750e-02, 1.135e-01 m
# Rotations: -0.000175 0.000000 -0.000000 rad
# 
# == Fit2d calibration ==
# Distance Sample-beamCenter: 400.000 mm
# Center: x=1514.000, y=1300.000 pix
# Tilt: 0.010 deg  TiltPlanRot: 0.010 deg
# 
# Detector Detector	 Spline= None	 PixelSize= 7.500e-05, 7.500e-05 m
#    Detector has a mask: False 
#    Detector has a dark current: False 
#    detector has a flat field: False 
# 
# Wavelength: 6.888e-11 m
# Mask applied: user provided
# Dark current applied: False
# Flat field applied: False
# Polarization factor: 0.99
# Normalization factor: 1.0
# --> /home/myspot/data/2024_07_Rosario/Ru-CGO-ex/2024-07-27_002_Ru-CGO-ex_Activtation_ramp_000002_data_000074.dat
#       q_nm^-1             I 
  2.003187e-02    3.620515e-01
  3.590745e-02    6.421505e-02
  5.178302e-02    0.000000e+00
  6.765859e-02    6.671682e-02
  8.353417e-02    1.320033e-01
  9.940974e-02    8.130220e-02
  1.152853e-01    3.455244e-02
  1.311609e-01    2.051710e-04
  1.470365e-01    0.000000e+00
  1.629120e-01    1.414175e-02
  1.787876e-01    1.897041e-02
  1.946632e-01    6.726657e-02
  2.105388e-01    7.537010e-02
  2.264143e-01    4.035724e-02
  2.422899e-01    2.040422e-02
  2.581655e-01    2.922573e-02
  2.740411e-01    6.166723e-02
  2.899166e-01    5.713824e-02
  3.057922e-01    8.027405e-02
  3.216678e-01    5.941971e-02
  3.375433e-01    2.126491e-02
  3.534189e-01    5.014762e-02
  3.692945e-01    4.964068e-02
  3.851701e-01    3.815303e-02
  4.010456e-01    2.836990e-02
  4.169212e-01    2.752770e-02
  4.327968e-01    2.789180e-02
  4.486724e-01    3.348817e-02
  4.645479e-01    4.474181e-02
  4.804235e-01    4.952218e-02
  4.962991e-01    2.847248e-02
  5.121747e-01    3.028925e-02
  5.280502e-01    2.146551e-02
  5.439258e-01    1.837531e-02
  5.598014e-01    4.512302e-02
  5.756770e-01    2.453686e-02
  5.915525e-01    2.324762e-02
  6.074281e-01    4.366901e-02
  6.233037e-01    4.345899e-02
  6.391793e-01    2.560933e-02
  6.550548e-01    3.662352e-02
  6.709304e-01    2.645676e-02
  6.868060e-01    2.296892e-02
  7.026815e-01    4.309667e-02
  7.185571e-01    6.246642e-02
  7.344327e-01    5.064676e-02
  7.503083e-01    4.658705e-02
  7.661838e-01    7.900369e-02
  7.820594e-01    1.002732e-01
  7.979350e-01    1.587592e-01
  8.138106e-01    1.809633e-01
  8.296861e-01    2.376654e-01
  8.455617e-01    2.661742e-01
  8.614373e-01    4.237592e-01
  8.773129e-01    4.360135e-01
  8.931884e-01    5.298660e-01
  9.090640e-01    6.641943e-01
  9.249396e-01    6.821578e-01
  9.408152e-01    6.786800e-01
  9.566907e-01    7.335333e-01
  9.725663e-01    8.567054e-01
  9.884419e-01    9.651222e-01
  1.004317e+00    9.916734e-01
  1.020193e+00    1.040616e+00
  1.036069e+00    1.151078e+00
  1.051944e+00    1.296529e+00
  1.067820e+00    1.433731e+00
  1.083695e+00    1.414718e+00
  1.099571e+00    1.409673e+00
  1.115446e+00    1.514520e+00
  1.131322e+00    1.483612e+00
  1.147198e+00    1.546682e+00
  1.163073e+00    1.556482e+00
  1.178949e+00    1.561556e+00
  1.194824e+00    1.649083e+00
  1.210700e+00    1.949889e+00
  1.226575e+00    2.103641e+00
  1.242451e+00    2.238774e+00
  1.258327e+00    2.194254e+00
  1.274202e+00    2.342060e+00
  1.290078e+00    2.461418e+00
  1.305953e+00    2.532228e+00
  1.321829e+00    2.477673e+00
  1.337705e+00    2.556970e+00
  1.353580e+00    2.515882e+00
  1.369456e+00    2.646566e+00
  1.385331e+00    2.770322e+00
  1.401207e+00    2.561408e+00
  1.417082e+00    2.595979e+00
  1.432958e+00    2.678730e+00
  1.448834e+00    2.726833e+00
  1.464709e+00    2.946408e+00
  1.480585e+00    2.945083e+00
  1.496460e+00    2.837597e+00
  1.512336e+00    2.887182e+00
  1.528211e+00    3.158388e+00
  1.544087e+00    3.007219e+00
  1.559963e+00    2.959573e+00
  1.575838e+00    3.049668e+00
  1.591714e+00    2.948806e+00
  1.607589e+00    3.012640e+00
  1.623465e+00    3.029006e+00
  1.639340e+00    2.827319e+00
  1.655216e+00    2.838590e+00
  1.671092e+00    2.812444e+00
  1.686967e+00    2.921658e+00
  1.702843e+00    2.846794e+00
  1.718718e+00    2.812974e+00
  1.734594e+00    2.877228e+00
  1.750469e+00    2.833799e+00
  1.766345e+00    2.814977e+00
  1.782221e+00    2.820518e+00
  1.798096e+00    2.819591e+00
  1.813972e+00    2.843305e+00
  1.829847e+00    2.826055e+00
  1.845723e+00    2.956285e+00
  1.861598e+00    2.823241e+00
  1.877474e+00    2.729320e+00
  1.893350e+00    2.802804e+00
  1.909225e+00    2.836704e+00
  1.925101e+00    2.773699e+00
  1.940976e+00    2.606607e+00
  1.956852e+00    2.843587e+00
  1.972727e+00    2.747783e+00
  1.988603e+00    2.699965e+00
  2.004479e+00    2.727040e+00
  2.020354e+00    2.706800e+00
  2.036230e+00    2.741373e+00
  2.052105e+00    2.786535e+00
  2.067981e+00    2.785828e+00
  2.083856e+00    2.759979e+00
  2.099732e+00    2.834543e+00
  2.115608e+00    2.802826e+00
  2.131483e+00    2.817740e+00
  2.147359e+00    2.808350e+00
  2.163234e+00    2.749980e+00
  2.179110e+00    2.780943e+00
  2.194985e+00    2.741290e+00
  2.210861e+00    2.686638e+00
  2.226737e+00    2.705492e+00
  2.242612e+00    2.782614e+00
  2.258488e+00    2.673041e+00
  2.274363e+00    2.725141e+00
  2.290239e+00    2.731818e+00
  2.306115e+00    2.717458e+00
  2.321990e+00    2.727319e+00
  2.337866e+00    2.752285e+00
  2.353741e+00    2.716772e+00
  2.369617e+00    2.750815e+00
  2.385492e+00    2.791424e+00
  2.401368e+00    2.809631e+00
  2.417244e+00    2.784571e+00
  2.433119e+00    2.762813e+00
  2.448995e+00    2.719375e+00
  2.464870e+00    2.639994e+00
  2.480746e+00    2.699414e+00
  2.496621e+00    2.813529e+00
  2.512497e+00    2.754335e+00
  2.528373e+00    2.834374e+00
  2.544248e+00    2.815134e+00
  2.560124e+00    2.760654e+00
  2.575999e+00    2.643840e+00
  2.591875e+00    2.730164e+00
  2.607750e+00    2.777572e+00
  2.623626e+00    2.788162e+00
  2.639502e+00    2.795117e+00
  2.655377e+00    2.851472e+00
  2.671253e+00    2.843433e+00
  2.687128e+00    2.826555e+00
  2.703004e+00    2.870228e+00
  2.718879e+00    2.820378e+00
  2.734755e+00    2.795079e+00
  2.750631e+00    2.798908e+00
  2.766506e+00    2.773912e+00
  2.782382e+00    2.749682e+00
  2.798257e+00    2.724667e+00
  2.814133e+00    2.782149e+00
  2.830008e+00    2.774038e+00
  2.845884e+00    2.854072e+00
  2.861760e+00    2.848827e+00
  2.877635e+00    2.863086e+00
  2.893511e+00    2.885092e+00
  2.909386e+00    2.831123e+00
  2.925262e+00    2.827039e+00
  2.941137e+00    2.818747e+00
  2.957013e+00    2.915096e+00
  2.972889e+00    3.006421e+00
  2.988764e+00    2.925155e+00
  3.004640e+00    2.942366e+00
  3.020515e+00    2.889764e+00
  3.036391e+00    2.871450e+00
  3.052266e+00    2.968420e+00
  3.068142e+00    2.869137e+00
  3.084018e+00    2.873255e+00
  3.099893e+00    2.913199e+00
  3.115769e+00    2.853372e+00
  3.131644e+00    2.791009e+00
  3.147520e+00    2.989597e+00
  3.163395e+00    2.978489e+00
  3.179271e+00    2.966888e+00
  3.195147e+00    2.951468e+00
  3.211022e+00    2.904141e+00
  3.226898e+00    2.908360e+00
  3.242773e+00    2.885140e+00
  3.258649e+00    2.896792e+00
  3.274525e+00    2.975447e+00
  3.290400e+00    2.979064e+00
  3.306276e+00    2.967675e+00
  3.322151e+00    2.922963e+00
  3.338027e+00    2.889539e+00
  3.353902e+00    2.904382e+00
  3.369778e+00    2.909180e+00
  3.385654e+00    2.840030e+00
  3.401529e+00    2.908315e+00
  3.417405e+00    2.958086e+00
  3.433280e+00    2.929903e+00
  3.449156e+00    2.924636e+00
  3.465031e+00    2.970705e+00
  3.480907e+00    2.858284e+00
  3.496783e+00    2.827897e+00
  3.512658e+00    2.902036e+00
  3.528534e+00    2.910904e+00
  3.544409e+00    2.960284e+00
  3.560285e+00    2.937243e+00
  3.576160e+00    2.947425e+00
  3.592036e+00    2.964489e+00
  3.607912e+00    2.913188e+00
  3.623787e+00    2.920288e+00
  3.639663e+00    2.928198e+00
  3.655538e+00    2.956778e+00
  3.671414e+00    2.892150e+00
  3.687289e+00    2.898206e+00
  3.703165e+00    3.024499e+00
  3.719041e+00    3.008126e+00
  3.734916e+00    2.999380e+00
  3.750792e+00    3.007344e+00
  3.766667e+00    3.008399e+00
  3.782543e+00    2.971794e+00
  3.798418e+00    3.033505e+00
  3.814294e+00    2.994060e+00
  3.830170e+00    3.004299e+00
  3.846045e+00    3.056712e+00
  3.861921e+00    3.062256e+00
  3.877796e+00    3.110239e+00
  3.893672e+00    3.104755e+00
  3.909547e+00    2.973680e+00
  3.925423e+00    2.926684e+00
  3.941299e+00    3.047408e+00
  3.957174e+00    3.024653e+00
  3.973050e+00    2.969868e+00
  3.988925e+00    3.064868e+00
  4.004801e+00    3.051750e+00
  4.020676e+00    3.037268e+00
  4.036552e+00    3.001451e+00
  4.052428e+00    2.959954e+00
  4.068303e+00    3.005558e+00
  4.084179e+00    3.030725e+00
  4.100054e+00    3.012565e+00
  4.115930e+00    3.057304e+00
  4.131806e+00    3.023955e+00
  4.147681e+00    2.988932e+00
  4.163557e+00    2.987364e+00
  4.179432e+00    3.016057e+00
  4.195308e+00    3.030003e+00
  4.211183e+00    2.996497e+00
  4.227059e+00    3.016093e+00
  4.242935e+00    3.076014e+00
  4.258810e+00    2.983762e+00
  4.274686e+00    3.037716e+00
  4.290561e+00    3.052194e+00
  4.306437e+00    2.999921e+00
  4.322312e+00    3.017718e+00
  4.338188e+00    3.015097e+00
  4.354064e+00    3.030971e+00
  4.369939e+00    3.027580e+00
  4.385815e+00    3.084034e+00
  4.401690e+00    2.968168e+00
  4.417566e+00    3.053978e+00
  4.433441e+00    3.080517e+00
  4.449317e+00    3.112300e+00
  4.465193e+00    3.057834e+00
  4.481068e+00    3.029093e+00
  4.496944e+00    3.060577e+00
  4.512819e+00    3.003593e+00
  4.528695e+00    2.977893e+00
  4.544570e+00    2.940788e+00
  4.560446e+00    3.022820e+00
  4.576322e+00    3.009576e+00
  4.592197e+00    3.089823e+00
  4.608073e+00    3.136038e+00
  4.623948e+00    3.058779e+00
  4.639824e+00    2.962303e+00
  4.655699e+00    3.059684e+00
  4.671575e+00    3.039891e+00
  4.687451e+00    3.023865e+00
  4.703326e+00    3.095490e+00
  4.719202e+00    3.065641e+00
  4.735077e+00    3.087539e+00
  4.750953e+00    3.074878e+00
  4.766828e+00    3.066396e+00
  4.782704e+00    3.110957e+00
  4.798580e+00    3.144505e+00
  4.814455e+00    3.169429e+00
  4.830331e+00    3.141128e+00
  4.846206e+00    3.117570e+00
  4.862082e+00    3.182549e+00
  4.877957e+00    3.110812e+00
  4.893833e+00    3.002692e+00
  4.909709e+00    3.061799e+00
  4.925584e+00    3.153626e+00
  4.941460e+00    3.165490e+00
  4.957335e+00    3.107935e+00
  4.973211e+00    3.037742e+00
  4.989086e+00    3.056521e+00
  5.004962e+00    3.139751e+00
  5.020838e+00    3.152723e+00
  5.036713e+00    3.064843e+00
  5.052589e+00    3.091149e+00
  5.068464e+00    3.168167e+00
  5.084340e+00    3.202313e+00
  5.100216e+00    3.217048e+00
  5.116091e+00    3.165423e+00
  5.131967e+00    3.091862e+00
  5.147842e+00    3.057680e+00
  5.163718e+00    3.100012e+00
  5.179593e+00    3.123173e+00
  5.195469e+00    3.090347e+00
  5.211345e+00    3.042867e+00
  5.227220e+00    3.099764e+00
  5.243096e+00    3.114764e+00
  5.258971e+00    3.122268e+00
  5.274847e+00    3.115549e+00
  5.290722e+00    3.065789e+00
  5.306598e+00    3.072213e+00
  5.322474e+00    3.115193e+00
  5.338349e+00    3.134590e+00
  5.354225e+00    3.046673e+00
  5.370100e+00    2.981809e+00
  5.385976e+00    3.082006e+00
  5.401851e+00    3.106377e+00
  5.417727e+00    3.066668e+00
  5.433603e+00    3.096532e+00
  5.449478e+00    3.057673e+00
  5.465354e+00    3.067847e+00
  5.481229e+00    3.103052e+00
  5.497105e+00    3.079007e+00
  5.512980e+00    3.054328e+00
  5.528856e+00    3.157975e+00
  5.544732e+00    3.093556e+00
  5.560607e+00    3.077703e+00
  5.576483e+00    3.032229e+00
  5.592358e+00    3.061225e+00
  5.608234e+00    3.041997e+00
  5.624109e+00    3.004792e+00
  5.639985e+00    3.056239e+00
  5.655861e+00    3.082206e+00
  5.671736e+00    3.116388e+00
  5.687612e+00    3.081528e+00
  5.703487e+00    3.102035e+00
  5.719363e+00    3.055171e+00
  5.735238e+00    3.109670e+00
  5.751114e+00    3.110039e+00
  5.766990e+00    3.082109e+00
  5.782865e+00    3.059942e+00
  5.798741e+00    3.002772e+00
  5.814616e+00    3.012784e+00
  5.830492e+00    3.058040e+00
  5.846367e+00    3.040667e+00
  5.862243e+00    3.031540e+00
  5.878119e+00    3.056004e+00
  5.893994e+00    3.111070e+00
  5.909870e+00    3.067294e+00
  5.925745e+00    3.052307e+00
  5.941621e+00    2.983552e+00
  5.957497e+00    2.991923e+00
  5.973372e+00    2.992464e+00
  5.989248e+00    3.028128e+00
  6.005123e+00    3.049761e+00
  6.020999e+00    2.946957e+00
  6.036874e+00    2.969638e+00
  6.052750e+00    3.006327e+00
  6.068626e+00    3.046375e+00
  6.084501e+00    3.088742e+00
  6.100377e+00    3.093666e+00
  6.116252e+00    3.098284e+00
  6.132128e+00    3.052412e+00
  6.148003e+00    3.082036e+00
  6.163879e+00    3.094581e+00
  6.179755e+00    3.060433e+00
  6.195630e+00    3.082613e+00
  6.211506e+00    3.114109e+00
  6.227381e+00    3.071058e+00
  6.243257e+00    3.107236e+00
  6.259132e+00    3.089905e+00
  6.275008e+00    3.091662e+00
  6.290884e+00    2.984515e+00
  6.306759e+00    3.019134e+00
  6.322635e+00    3.031972e+00
  6.338510e+00    3.027200e+00
  6.354386e+00    3.025330e+00
  6.370261e+00    3.024945e+00
  6.386137e+00    3.024295e+00
  6.402013e+00    3.015716e+00
  6.417888e+00    3.028418e+00
  6.433764e+00    2.960443e+00
  6.449639e+00    2.992516e+00
  6.465515e+00    3.031288e+00
  6.481390e+00    2.953676e+00
  6.497266e+00    2.981236e+00
  6.513142e+00    3.018880e+00
  6.529017e+00    3.020087e+00
  6.544893e+00    3.030439e+00
  6.560768e+00    3.060897e+00
  6.576644e+00    3.071892e+00
  6.592519e+00    2.998033e+00
  6.608395e+00    3.005190e+00
  6.624271e+00    2.951274e+00
  6.640146e+00    2.908824e+00
  6.656022e+00    2.982294e+00
  6.671897e+00    3.047135e+00
  6.687773e+00    2.983624e+00
  6.703648e+00    2.999110e+00
  6.719524e+00    2.956967e+00
  6.735400e+00    2.965319e+00
  6.751275e+00    3.000647e+00
  6.767151e+00    3.054899e+00
  6.783026e+00    3.008422e+00
  6.798902e+00    2.965017e+00
  6.814777e+00    2.955687e+00
  6.830653e+00    2.973923e+00
  6.846529e+00    3.027910e+00
  6.862404e+00    2.998008e+00
  6.878280e+00    2.984211e+00
  6.894155e+00    2.976718e+00
  6.910031e+00    3.013832e+00
  6.925907e+00    2.975958e+00
  6.941782e+00    3.068933e+00
  6.957658e+00    3.091202e+00
  6.973533e+00    3.022098e+00
  6.989409e+00    2.930994e+00
  7.005284e+00    2.950472e+00
  7.021160e+00    2.979039e+00
  7.037036e+00    3.034018e+00
  7.052911e+00    3.067948e+00
  7.068787e+00    3.027508e+00
  7.084662e+00    2.971603e+00
  7.100538e+00    2.993263e+00
  7.116413e+00    3.020528e+00
  7.132289e+00    3.047281e+00
  7.148165e+00    2.994747e+00
  7.164040e+00    2.957428e+00
  7.179916e+00    2.943555e+00
  7.195791e+00    3.026198e+00
  7.211667e+00    2.979434e+00
  7.227542e+00    2.937047e+00
  7.243418e+00    2.967626e+00
  7.259294e+00    3.011590e+00
  7.275169e+00    3.003923e+00
  7.291045e+00    2.951639e+00
  7.306920e+00    3.004384e+00
  7.322796e+00    2.989705e+00
  7.338671e+00    2.994813e+00
  7.354547e+00    2.919289e+00
  7.370423e+00    3.005964e+00
  7.386298e+00    3.001407e+00
  7.402174e+00    3.022535e+00
  7.418049e+00    3.043857e+00
  7.433925e+00    3.035241e+00
  7.449800e+00    2.975303e+00
  7.465676e+00    3.003298e+00
  7.481552e+00    2.995749e+00
  7.497427e+00    3.024589e+00
  7.513303e+00    2.984436e+00
  7.529178e+00    2.924372e+00
  7.545054e+00    2.941726e+00
  7.560929e+00    2.967769e+00
  7.576805e+00    2.933683e+00
  7.592681e+00    3.002817e+00
  7.608556e+00    3.033215e+00
  7.624432e+00    2.996107e+00
  7.640307e+00    2.986947e+00
  7.656183e+00    2.915134e+00
  7.672058e+00    2.930517e+00
  7.687934e+00    2.975816e+00
  7.703810e+00    2.931169e+00
  7.719685e+00    2.933233e+00
  7.735561e+00    2.962573e+00
  7.751436e+00    2.924769e+00
  7.767312e+00    2.859505e+00
  7.783187e+00    2.869901e+00
  7.799063e+00    2.931045e+00
  7.814939e+00    2.915435e+00
  7.830814e+00    2.933844e+00
  7.846690e+00    2.915043e+00
  7.862565e+00    2.915675e+00
  7.878441e+00    2.903692e+00
  7.894317e+00    2.878469e+00
  7.910192e+00    2.920880e+00
  7.926068e+00    2.951342e+00
  7.941943e+00    2.926898e+00
  7.957819e+00    2.945774e+00
  7.973694e+00    2.887546e+00
  7.989570e+00    2.925154e+00
  8.005446e+00    2.897889e+00
  8.021321e+00    2.903141e+00
  8.037197e+00    2.884962e+00
  8.053072e+00    2.912570e+00
  8.068948e+00    2.904418e+00
  8.084823e+00    2.938462e+00
  8.100699e+00    2.928326e+00
  8.116575e+00    2.946165e+00
  8.132450e+00    2.909039e+00
  8.148326e+00    2.880398e+00
  8.164201e+00    2.882474e+00
  8.180077e+00    2.920448e+00
  8.195952e+00    3.028359e+00
  8.211828e+00    2.957953e+00
  8.227704e+00    2.976203e+00
  8.243579e+00    3.024454e+00
  8.259455e+00    2.942710e+00
  8.275330e+00    2.993547e+00
  8.291206e+00    2.911489e+00
  8.307081e+00    2.943930e+00
  8.322957e+00    2.964633e+00
  8.338833e+00    2.968380e+00
  8.354708e+00    2.921309e+00
  8.370584e+00    2.913719e+00
  8.386459e+00    2.927083e+00
  8.402335e+00    2.938257e+00
  8.418210e+00    2.928953e+00
  8.434086e+00    2.934073e+00
  8.449962e+00    2.858769e+00
  8.465837e+00    2.865205e+00
  8.481713e+00    2.888517e+00
  8.497588e+00    2.897350e+00
  8.513464e+00    2.896220e+00
  8.529339e+00    2.862538e+00
  8.545215e+00    2.876585e+00
  8.561091e+00    2.912846e+00
  8.576966e+00    2.890079e+00
  8.592842e+00    2.883289e+00
  8.608717e+00    2.861039e+00
  8.624593e+00    2.872591e+00
  8.640468e+00    2.837773e+00
  8.656344e+00    2.884940e+00
  8.672220e+00    2.874450e+00
  8.688095e+00    2.887864e+00
  8.703971e+00    2.948379e+00
  8.719846e+00    2.884373e+00
  8.735722e+00    2.857861e+00
  8.751598e+00    2.823805e+00
  8.767473e+00    2.827086e+00
  8.783349e+00    2.851682e+00
  8.799224e+00    2.887397e+00
  8.815100e+00    2.843443e+00
  8.830975e+00    2.836166e+00
  8.846851e+00    2.864286e+00
  8.862727e+00    2.868263e+00
  8.878602e+00    2.849237e+00
  8.894478e+00    2.819514e+00
  8.910353e+00    2.866693e+00
  8.926229e+00    2.827691e+00
  8.942104e+00    2.793050e+00
  8.957980e+00    2.829229e+00
  8.973856e+00    2.836863e+00
  8.989731e+00    2.875148e+00
  9.005607e+00    2.888526e+00
  9.021482e+00    2.812729e+00
  9.037358e+00    2.803644e+00
  9.053233e+00    2.815521e+00
  9.069109e+00    2.850310e+00
  9.084985e+00    2.812119e+00
  9.100860e+00    2.791406e+00
  9.116736e+00    2.817864e+00
  9.132611e+00    2.841049e+00
  9.148487e+00    2.854007e+00
  9.164362e+00    2.824100e+00
  9.180238e+00    2.786230e+00
  9.196114e+00    2.805510e+00
  9.211989e+00    2.776177e+00
  9.227865e+00    2.805817e+00
  9.243740e+00    2.799502e+00
  9.259616e+00    2.765179e+00
  9.275491e+00    2.752795e+00
  9.291367e+00    2.754147e+00
  9.307243e+00    2.780374e+00
  9.323118e+00    2.761962e+00
  9.338994e+00    2.739407e+00
  9.354869e+00    2.783946e+00
  9.370745e+00    2.736838e+00
  9.386620e+00    2.772506e+00
  9.402496e+00    2.779929e+00
  9.418372e+00    2.738047e+00
  9.434247e+00    2.763637e+00
  9.450123e+00    2.765272e+00
  9.465998e+00    2.711038e+00
  9.481874e+00    2.718929e+00
  9.497749e+00    2.749852e+00
  9.513625e+00    2.745188e+00
  9.529501e+00    2.781388e+00
  9.545376e+00    2.734169e+00
  9.561252e+00    2.757275e+00
  9.577127e+00    2.810019e+00
  9.593003e+00    2.753057e+00
  9.608878e+00    2.691159e+00
  9.624754e+00    2.788804e+00
  9.640630e+00    2.827649e+00
  9.656505e+00    2.717085e+00
  9.672381e+00    2.744491e+00
  9.688256e+00    2.767412e+00
  9.704132e+00    2.744144e+00
  9.720008e+00    2.713530e+00
  9.735883e+00    2.710090e+00
  9.751759e+00    2.718884e+00
  9.767634e+00    2.653428e+00
  9.783510e+00    2.702592e+00
  9.799385e+00    2.714335e+00
  9.815261e+00    2.749276e+00
  9.831137e+00    2.726121e+00
  9.847012e+00    2.694166e+00
  9.862888e+00    2.694277e+00
  9.878763e+00    2.693709e+00
  9.894639e+00    2.653304e+00
  9.910514e+00    2.711556e+00
  9.926390e+00    2.694464e+00
  9.942266e+00    2.677935e+00
  9.958141e+00    2.716183e+00
  9.974017e+00    2.649480e+00
  9.989892e+00    2.640209e+00
  1.000577e+01    2.654469e+00
  1.002164e+01    2.638730e+00
  1.003752e+01    2.636826e+00
  1.005339e+01    2.641322e+00
  1.006927e+01    2.669614e+00
  1.008515e+01    2.640146e+00
  1.010102e+01    2.643344e+00
  1.011690e+01    2.659661e+00
  1.013277e+01    2.649674e+00
  1.014865e+01    2.630736e+00
  1.016452e+01    2.596574e+00
  1.018040e+01    2.637465e+00
  1.019627e+01    2.658620e+00
  1.021215e+01    2.605841e+00
  1.022803e+01    2.655964e+00
  1.024390e+01    2.618413e+00
  1.025978e+01    2.591717e+00
  1.027565e+01    2.579699e+00
  1.029153e+01    2.586024e+00
  1.030740e+01    2.638293e+00
  1.032328e+01    2.649139e+00
  1.033915e+01    2.637562e+00
  1.035503e+01    2.651846e+00
  1.037091e+01    2.686995e+00
  1.038678e+01    2.619228e+00
  1.040266e+01    2.589351e+00
  1.041853e+01    2.639558e+00
  1.043441e+01    2.689790e+00
  1.045028e+01    2.604453e+00
  1.046616e+01    2.578294e+00
  1.048204e+01    2.615817e+00
  1.049791e+01    2.615531e+00
  1.051379e+01    2.595243e+00
  1.052966e+01    2.637730e+00
  1.054554e+01    2.608650e+00
  1.056141e+01    2.596076e+00
  1.057729e+01    2.601097e+00
  1.059316e+01    2.570584e+00
  1.060904e+01    2.579549e+00
  1.062492e+01    2.617203e+00
  1.064079e+01    2.583835e+00
  1.065667e+01    2.569738e+00
  1.067254e+01    2.545473e+00
  1.068842e+01    2.549946e+00
  1.070429e+01    2.568962e+00
  1.072017e+01    2.556044e+00
  1.073604e+01    2.520824e+00
  1.075192e+01    2.570827e+00
  1.076780e+01    2.576883e+00
  1.078367e+01    2.522624e+00
  1.079955e+01    2.507746e+00
  1.081542e+01    2.491708e+00
  1.083130e+01    2.516254e+00
  1.084717e+01    2.494749e+00
  1.086305e+01    2.575406e+00
  1.087892e+01    2.538316e+00
  1.089480e+01    2.504583e+00
  1.091068e+01    2.520027e+00
  1.092655e+01    2.505155e+00
  1.094243e+01    2.530020e+00
  1.095830e+01    2.543993e+00
  1.097418e+01    2.477084e+00
  1.099005e+01    2.485935e+00
  1.100593e+01    2.517328e+00
  1.102180e+01    2.495556e+00
  1.103768e+01    2.447756e+00
  1.105356e+01    2.529096e+00
  1.106943e+01    2.537455e+00
  1.108531e+01    2.499141e+00
  1.110118e+01    2.520873e+00
  1.111706e+01    2.476423e+00
  1.113293e+01    2.498890e+00
  1.114881e+01    2.486340e+00
  1.116468e+01    2.467289e+00
  1.118056e+01    2.453701e+00
  1.119644e+01    2.467945e+00
  1.121231e+01    2.440606e+00
  1.122819e+01    2.436897e+00
  1.124406e+01    2.382830e+00
  1.125994e+01    2.372186e+00
  1.127581e+01    2.456140e+00
  1.129169e+01    2.428902e+00
  1.130756e+01    2.426067e+00
  1.132344e+01    2.457208e+00
  1.133932e+01    2.470199e+00
  1.135519e+01    2.461069e+00
  1.137107e+01    2.408542e+00
  1.138694e+01    2.421870e+00
  1.140282e+01    2.467676e+00
  1.141869e+01    2.454678e+00
  1.143457e+01    2.394468e+00
  1.145045e+01    2.405981e+00
  1.146632e+01    2.459938e+00
  1.148220e+01    2.391649e+00
  1.149807e+01    2.353446e+00
  1.151395e+01    2.380847e+00
  1.152982e+01    2.380625e+00
  1.154570e+01    2.415821e+00
  1.156157e+01    2.410333e+00
  1.157745e+01    2.356595e+00
  1.159333e+01    2.380254e+00
  1.160920e+01    2.396889e+00
  1.162508e+01    2.361504e+00
  1.164095e+01    2.381416e+00
  1.165683e+01    2.386200e+00
  1.167270e+01    2.395192e+00
  1.168858e+01    2.402714e+00
  1.170445e+01    2.396394e+00
  1.172033e+01    2.371777e+00
  1.173621e+01    2.347510e+00
  1.175208e+01    2.387821e+00
  1.176796e+01    2.342359e+00
  1.178383e+01    2.367790e+00
  1.179971e+01    2.365305e+00
  1.181558e+01    2.349854e+00
  1.183146e+01    2.336710e+00
  1.184733e+01    2.350813e+00
  1.186321e+01    2.349207e+00
  1.187909e+01    2.333593e+00
  1.189496e+01    2.354839e+00
  1.191084e+01    2.323112e+00
  1.192671e+01    2.310755e+00
  1.194259e+01    2.324729e+00
  1.195846e+01    2.322992e+00
  1.197434e+01    2.300096e+00
  1.199021e+01    2.322046e+00
  1.200609e+01    2.354491e+00
  1.202197e+01    2.338766e+00
  1.203784e+01    2.321658e+00
  1.205372e+01    2.360203e+00
  1.206959e+01    2.372690e+00
  1.208547e+01    2.346847e+00
  1.210134e+01    2.327739e+00
  1.211722e+01    2.317877e+00
  1.213309e+01    2.321674e+00
  1.214897e+01    2.338636e+00
  1.216485e+01    2.330970e+00
  1.218072e+01    2.340486e+00
  1.219660e+01    2.315760e+00
  1.221247e+01    2.314159e+00
  1.222835e+01    2.313830e+00
  1.224422e+01    2.325356e+00
  1.226010e+01    2.339067e+00
  1.227597e+01    2.326447e+00
  1.229185e+01    2.336995e+00
  1.230773e+01    2.386195e+00
  1.232360e+01    2.377416e+00
  1.233948e+01    2.340957e+00
  1.235535e+01    2.316289e+00
  1.237123e+01    2.309836e+00
  1.238710e+01    2.361269e+00
  1.240298e+01    2.360554e+00
  1.241886e+01    2.303630e+00
  1.243473e+01    2.308715e+00
  1.245061e+01    2.359375e+00
  1.246648e+01    2.327332e+00
  1.248236e+01    2.321526e+00
  1.249823e+01    2.306271e+00
  1.251411e+01    2.346120e+00
  1.252998e+01    2.356870e+00
  1.254586e+01    2.336003e+00
  1.256174e+01    2.364402e+00
  1.257761e+01    2.382630e+00
  1.259349e+01    2.381641e+00
  1.260936e+01    2.426688e+00
  1.262524e+01    2.391536e+00
  1.264111e+01    2.406148e+00
  1.265699e+01    2.455113e+00
  1.267286e+01    2.436679e+00
  1.268874e+01    2.442719e+00
  1.270462e+01    2.488529e+00
  1.272049e+01    2.548896e+00
  1.273637e+01    2.570478e+00
  1.275224e+01    2.567444e+00
  1.276812e+01    2.556390e+00
  1.278399e+01    2.596265e+00
  1.279987e+01    2.710556e+00
  1.281574e+01    2.755331e+00
  1.283162e+01    2.801335e+00
  1.284750e+01    2.804626e+00
  1.286337e+01    2.901003e+00
  1.287925e+01    3.068872e+00
  1.289512e+01    3.154734e+00
  1.291100e+01    3.271573e+00
  1.292687e+01    3.500100e+00
  1.294275e+01    3.731643e+00
  1.295862e+01    4.029044e+00
  1.297450e+01    4.337258e+00
  1.299038e+01    4.724711e+00
  1.300625e+01    5.279509e+00
  1.302213e+01    6.011292e+00
  1.303800e+01    6.978364e+00
  1.305388e+01    7.962252e+00
  1.306975e+01    9.306823e+00
  1.308563e+01    1.070939e+01
  1.310150e+01    1.223957e+01
  1.311738e+01    1.364970e+01
  1.313326e+01    1.498036e+01
  1.314913e+01    1.628301e+01
  1.316501e+01    1.755398e+01
  1.318088e+01    1.848003e+01
  1.319676e+01    1.859773e+01
  1.321263e+01    1.787000e+01
  1.322851e+01    1.621622e+01
  1.324438e+01    1.399861e+01
  1.326026e+01    1.191426e+01
  1.327614e+01    9.989534e+00
  1.329201e+01    8.315308e+00
  1.330789e+01    7.090017e+00
  1.332376e+01    6.189874e+00
  1.333964e+01    5.422578e+00
  1.335551e+01    4.880559e+00
  1.337139e+01    4.462776e+00
  1.338727e+01    4.075524e+00
  1.340314e+01    3.775418e+00
  1.341902e+01    3.549438e+00
  1.343489e+01    3.291517e+00
  1.345077e+01    3.134373e+00
  1.346664e+01    3.036315e+00
  1.348252e+01    2.919564e+00
  1.349839e+01    2.853911e+00
  1.351427e+01    2.729884e+00
  1.353015e+01    2.688197e+00
  1.354602e+01    2.599735e+00
  1.356190e+01    2.531224e+00
  1.357777e+01    2.515189e+00
  1.359365e+01    2.491013e+00
  1.360952e+01    2.417943e+00
  1.362540e+01    2.365914e+00
  1.364127e+01    2.314795e+00
  1.365715e+01    2.318491e+00
  1.367303e+01    2.326523e+00
  1.368890e+01    2.315545e+00
  1.370478e+01    2.336010e+00
  1.372065e+01    2.311666e+00
  1.373653e+01    2.256948e+00
  1.375240e+01    2.234219e+00
  1.376828e+01    2.230082e+00
  1.378415e+01    2.178881e+00
  1.380003e+01    2.175060e+00
  1.381591e+01    2.141209e+00
  1.383178e+01    2.139071e+00
  1.384766e+01    2.177347e+00
  1.386353e+01    2.178953e+00
  1.387941e+01    2.119125e+00
  1.389528e+01    2.124616e+00
  1.391116e+01    2.117419e+00
  1.392703e+01    2.064646e+00
  1.394291e+01    2.072055e+00
  1.395879e+01    2.113646e+00
  1.397466e+01    2.060996e+00
  1.399054e+01    2.058433e+00
  1.400641e+01    2.088822e+00
  1.402229e+01    2.095179e+00
  1.403816e+01    2.052115e+00
  1.405404e+01    2.041575e+00
  1.406991e+01    2.029142e+00
  1.408579e+01    2.054262e+00
  1.410167e+01    2.050339e+00
  1.411754e+01    2.007328e+00
  1.413342e+01    1.996197e+00
  1.414929e+01    2.014915e+00
  1.416517e+01    1.980623e+00
  1.418104e+01    2.000169e+00
  1.419692e+01    2.010589e+00
  1.421279e+01    1.977439e+00
  1.422867e+01    2.011127e+00
  1.424455e+01    1.988138e+00
  1.426042e+01    1.985418e+00
  1.427630e+01    1.975901e+00
  1.429217e+01    1.940382e+00
  1.430805e+01    1.945613e+00
  1.432392e+01    1.986514e+00
  1.433980e+01    2.001524e+00
  1.435568e+01    1.956716e+00
  1.437155e+01    1.926960e+00
  1.438743e+01    1.968067e+00
  1.440330e+01    1.991197e+00
  1.441918e+01    1.936890e+00
  1.443505e+01    1.925003e+00
  1.445093e+01    1.929128e+00
  1.446680e+01    1.932116e+00
  1.448268e+01    1.925979e+00
  1.449856e+01    1.949136e+00
  1.451443e+01    1.923298e+00
  1.453031e+01    1.903893e+00
  1.454618e+01    1.911918e+00
  1.456206e+01    1.948557e+00
  1.457793e+01    1.896955e+00
  1.459381e+01    1.866747e+00
  1.460968e+01    1.879441e+00
  1.462556e+01    1.907277e+00
  1.464144e+01    1.951810e+00
  1.465731e+01    1.946836e+00
  1.467319e+01    1.934312e+00
  1.468906e+01    1.928657e+00
  1.470494e+01    1.924846e+00
  1.472081e+01    1.911898e+00
  1.473669e+01    1.921609e+00
  1.475256e+01    1.890706e+00
  1.476844e+01    1.933626e+00
  1.478432e+01    1.883778e+00
  1.480019e+01    1.893320e+00
  1.481607e+01    1.932296e+00
  1.483194e+01    1.946216e+00
  1.484782e+01    1.966739e+00
  1.486369e+01    1.966396e+00
  1.487957e+01    1.964445e+00
  1.489544e+01    1.967440e+00
  1.491132e+01    1.972794e+00
  1.492720e+01    2.015505e+00
  1.494307e+01    2.044242e+00
  1.495895e+01    2.068383e+00
  1.497482e+01    2.056687e+00
  1.499070e+01    2.104897e+00
  1.500657e+01    2.140414e+00
  1.502245e+01    2.196807e+00
  1.503832e+01    2.283564e+00
  1.505420e+01    2.387243e+00
  1.507008e+01    2.479676e+00
  1.508595e+01    2.608055e+00
  1.510183e+01    2.832154e+00
  1.511770e+01    3.108271e+00
  1.513358e+01    3.368318e+00
  1.514945e+01    3.711207e+00
  1.516533e+01    4.076560e+00
  1.518120e+01    4.495838e+00
  1.519708e+01    4.884131e+00
  1.521296e+01    5.306888e+00
  1.522883e+01    5.622474e+00
  1.524471e+01    5.909634e+00
  1.526058e+01    6.184769e+00
  1.527646e+01    6.255797e+00
  1.529233e+01    6.160104e+00
  1.530821e+01    6.000062e+00
  1.532409e+01    5.577271e+00
  1.533996e+01    4.952947e+00
  1.535584e+01    4.358577e+00
  1.537171e+01    3.832891e+00
  1.538759e+01    3.437722e+00
  1.540346e+01    3.143405e+00
  1.541934e+01    2.836489e+00
  1.543521e+01    2.642944e+00
  1.545109e+01    2.500219e+00
  1.546697e+01    2.377605e+00
  1.548284e+01    2.239263e+00
  1.549872e+01    2.141654e+00
  1.551459e+01    2.107069e+00
  1.553047e+01    2.030158e+00
  1.554634e+01    2.015914e+00
  1.556222e+01    1.994279e+00
  1.557809e+01    1.933490e+00
  1.559397e+01    1.916694e+00
  1.560985e+01    1.900350e+00
  1.562572e+01    1.824401e+00
  1.564160e+01    1.811274e+00
  1.565747e+01    1.749464e+00
  1.567335e+01    1.768863e+00
  1.568922e+01    1.740202e+00
  1.570510e+01    1.743742e+00
  1.572097e+01    1.704356e+00
  1.573685e+01    1.712230e+00
  1.575273e+01    1.700838e+00
  1.576860e+01    1.704723e+00
  1.578448e+01    1.712670e+00
  1.580035e+01    1.674489e+00
  1.581623e+01    1.694548e+00
  1.583210e+01    1.682684e+00
  1.584798e+01    1.656304e+00
  1.586385e+01    1.641852e+00
  1.587973e+01    1.655939e+00
  1.589561e+01    1.661958e+00
  1.591148e+01    1.647017e+00
  1.592736e+01    1.626081e+00
  1.594323e+01    1.629619e+00
  1.595911e+01    1.621119e+00
  1.597498e+01    1.604512e+00
  1.599086e+01    1.599471e+00
  1.600673e+01    1.597891e+00
  1.602261e+01    1.579783e+00
  1.603849e+01    1.611901e+00
  1.605436e+01    1.612943e+00
  1.607024e+01    1.603474e+00
  1.608611e+01    1.582788e+00
  1.610199e+01    1.567528e+00
  1.611786e+01    1.592885e+00
  1.613374e+01    1.582185e+00
  1.614961e+01    1.610134e+00
  1.616549e+01    1.614654e+00
  1.618137e+01    1.586257e+00
  1.619724e+01    1.596347e+00
  1.621312e+01    1.570091e+00
  1.622899e+01    1.568643e+00
  1.624487e+01    1.579148e+00
  1.626074e+01    1.576352e+00
  1.627662e+01    1.543569e+00
  1.629250e+01    1.527525e+00
  1.630837e+01    1.523085e+00
  1.632425e+01    1.541861e+00
  1.634012e+01    1.573950e+00
  1.635600e+01    1.579432e+00
  1.637187e+01    1.521901e+00
  1.638775e+01    1.527307e+00
  1.640362e+01    1.536998e+00
  1.641950e+01    1.529004e+00
  1.643538e+01    1.544937e+00
  1.645125e+01    1.565972e+00
  1.646713e+01    1.536666e+00
  1.648300e+01    1.526292e+00
  1.649888e+01    1.502366e+00
  1.651475e+01    1.511738e+00
  1.653063e+01    1.510588e+00
  1.654650e+01    1.509015e+00
  1.656238e+01    1.521199e+00
  1.657826e+01    1.523716e+00
  1.659413e+01    1.515825e+00
  1.661001e+01    1.524187e+00
  1.662588e+01    1.497970e+00
  1.664176e+01    1.470849e+00
  1.665763e+01    1.491999e+00
  1.667351e+01    1.482107e+00
  1.668938e+01    1.461096e+00
  1.670526e+01    1.487460e+00
  1.672114e+01    1.465192e+00
  1.673701e+01    1.481781e+00
  1.675289e+01    1.491934e+00
  1.676876e+01    1.478001e+00
  1.678464e+01    1.499862e+00
  1.680051e+01    1.463068e+00
  1.681639e+01    1.429550e+00
  1.683226e+01    1.451350e+00
  1.684814e+01    1.471891e+00
  1.686402e+01    1.435427e+00
  1.687989e+01    1.430465e+00
  1.689577e+01    1.449097e+00
  1.691164e+01    1.458902e+00
  1.692752e+01    1.439518e+00
  1.694339e+01    1.464959e+00
  1.695927e+01    1.456952e+00
  1.697514e+01    1.472579e+00
  1.699102e+01    1.463947e+00
  1.700690e+01    1.422966e+00
  1.702277e+01    1.399680e+00
  1.703865e+01    1.430834e+00
  1.705452e+01    1.405639e+00
  1.707040e+01    1.421373e+00
  1.708627e+01    1.412972e+00
  1.710215e+01    1.401564e+00
  1.711802e+01    1.418346e+00
  1.713390e+01    1.419094e+00
  1.714978e+01    1.433497e+00
  1.716565e+01    1.399515e+00
  1.718153e+01    1.425343e+00
  1.719740e+01    1.432450e+00
  1.721328e+01    1.418506e+00
  1.722915e+01    1.422186e+00
  1.724503e+01    1.410053e+00
  1.726091e+01    1.396996e+00
  1.727678e+01    1.404012e+00
  1.729266e+01    1.404653e+00
  1.730853e+01    1.391464e+00
  1.732441e+01    1.401987e+00
  1.734028e+01    1.377221e+00
  1.735616e+01    1.409590e+00
  1.737203e+01    1.378904e+00
  1.738791e+01    1.352830e+00
  1.740379e+01    1.337389e+00
  1.741966e+01    1.389801e+00
  1.743554e+01    1.369474e+00
  1.745141e+01    1.376620e+00
  1.746729e+01    1.384289e+00
  1.748316e+01    1.363472e+00
  1.749904e+01    1.367705e+00
  1.751491e+01    1.368197e+00
  1.753079e+01    1.405649e+00
  1.754667e+01    1.404544e+00
  1.756254e+01    1.365696e+00
  1.757842e+01    1.334313e+00
  1.759429e+01    1.351577e+00
  1.761017e+01    1.350687e+00
  1.762604e+01    1.350016e+00
  1.764192e+01    1.354956e+00
  1.765779e+01    1.350975e+00
  1.767367e+01    1.336482e+00
  1.768955e+01    1.344630e+00
  1.770542e+01    1.328258e+00
  1.772130e+01    1.327012e+00
  1.773717e+01    1.325782e+00
  1.775305e+01    1.345443e+00
  1.776892e+01    1.325766e+00
  1.778480e+01    1.334454e+00
  1.780067e+01    1.318137e+00
  1.781655e+01    1.320669e+00
  1.783243e+01    1.324959e+00
  1.784830e+01    1.334739e+00
  1.786418e+01    1.322989e+00
  1.788005e+01    1.305009e+00
  1.789593e+01    1.325010e+00
  1.791180e+01    1.328835e+00
  1.792768e+01    1.317655e+00
  1.794355e+01    1.324453e+00
  1.795943e+01    1.313529e+00
  1.797531e+01    1.300920e+00
  1.799118e+01    1.294310e+00
  1.800706e+01    1.272117e+00
  1.802293e+01    1.294280e+00
  1.803881e+01    1.291476e+00
  1.805468e+01    1.297673e+00
  1.807056e+01    1.291756e+00
  1.808643e+01    1.291042e+00
  1.810231e+01    1.282873e+00
  1.811819e+01    1.315456e+00
  1.813406e+01    1.324268e+00
  1.814994e+01    1.292453e+00
  1.816581e+01    1.276867e+00
  1.818169e+01    1.291300e+00
  1.819756e+01    1.268477e+00
  1.821344e+01    1.303393e+00
  1.822932e+01    1.289219e+00
  1.824519e+01    1.298247e+00
  1.826107e+01    1.264064e+00
  1.827694e+01    1.295363e+00
  1.829282e+01    1.274645e+00
  1.830869e+01    1.258725e+00
  1.832457e+01    1.270378e+00
  1.834044e+01    1.264611e+00
  1.835632e+01    1.272232e+00
  1.837220e+01    1.287465e+00
  1.838807e+01    1.287132e+00
  1.840395e+01    1.274201e+00
  1.841982e+01    1.251429e+00
  1.843570e+01    1.251284e+00
  1.845157e+01    1.253090e+00
  1.846745e+01    1.268008e+00
  1.848332e+01    1.283671e+00
  1.849920e+01    1.250176e+00
  1.851508e+01    1.260868e+00
  1.853095e+01    1.254113e+00
  1.854683e+01    1.258010e+00
  1.856270e+01    1.260890e+00
  1.857858e+01    1.222800e+00
  1.859445e+01    1.222672e+00
  1.861033e+01    1.229248e+00
  1.862620e+01    1.251623e+00
  1.864208e+01    1.257336e+00
  1.865796e+01    1.266745e+00
  1.867383e+01    1.251090e+00
  1.868971e+01    1.241554e+00
  1.870558e+01    1.206583e+00
  1.872146e+01    1.206679e+00
  1.873733e+01    1.262472e+00
  1.875321e+01    1.260742e+00
  1.876908e+01    1.243732e+00
  1.878496e+01    1.227258e+00
  1.880084e+01    1.232646e+00
  1.881671e+01    1.236468e+00
  1.883259e+01    1.223891e+00
  1.884846e+01    1.212610e+00
  1.886434e+01    1.210394e+00
  1.888021e+01    1.220931e+00
  1.889609e+01    1.213386e+00
  1.891196e+01    1.185894e+00
  1.892784e+01    1.221977e+00
  1.894372e+01    1.238592e+00
  1.895959e+01    1.228048e+00
  1.897547e+01    1.215325e+00
  1.899134e+01    1.198451e+00
  1.900722e+01    1.194408e+00
  1.902309e+01    1.202696e+00
  1.903897e+01    1.198513e+00
  1.905484e+01    1.194548e+00
  1.907072e+01    1.219298e+00
  1.908660e+01    1.206123e+00
  1.910247e+01    1.192913e+00
  1.911835e+01    1.206693e+00
  1.913422e+01    1.209573e+00
  1.915010e+01    1.201993e+00
  1.916597e+01    1.193753e+00
  1.918185e+01    1.178772e+00
  1.919773e+01    1.186896e+00
  1.921360e+01    1.208382e+00
  1.922948e+01    1.234535e+00
  1.924535e+01    1.211059e+00
  1.926123e+01    1.201346e+00
  1.927710e+01    1.166217e+00
  1.929298e+01    1.177494e+00
  1.930885e+01    1.197394e+00
  1.932473e+01    1.189718e+00
  1.934061e+01    1.194863e+00
  1.935648e+01    1.192134e+00
  1.937236e+01    1.195653e+00
  1.938823e+01    1.209452e+00
  1.940411e+01    1.186264e+00
  1.941998e+01    1.184237e+00
  1.943586e+01    1.159633e+00
  1.945173e+01    1.141692e+00
  1.946761e+01    1.140985e+00
  1.948349e+01    1.181236e+00
  1.949936e+01    1.172696e+00
  1.951524e+01    1.187753e+00
  1.953111e+01    1.193377e+00
  1.954699e+01    1.168019e+00
  1.956286e+01    1.172713e+00
  1.957874e+01    1.165642e+00
  1.959461e+01    1.168896e+00
  1.961049e+01    1.156037e+00
  1.962637e+01    1.144328e+00
  1.964224e+01    1.151882e+00
  1.965812e+01    1.149166e+00
  1.967399e+01    1.139071e+00
  1.968987e+01    1.137836e+00
  1.970574e+01    1.144842e+00
  1.972162e+01    1.162518e+00
  1.973749e+01    1.150253e+00
  1.975337e+01    1.134316e+00
  1.976925e+01    1.148161e+00
  1.978512e+01    1.150877e+00
  1.980100e+01    1.138072e+00
  1.981687e+01    1.155109e+00
  1.983275e+01    1.135263e+00
  1.984862e+01    1.135779e+00
  1.986450e+01    1.140829e+00
  1.988037e+01    1.107999e+00
  1.989625e+01    1.130875e+00
  1.991213e+01    1.140512e+00
  1.992800e+01    1.152081e+00
  1.994388e+01    1.161106e+00
  1.995975e+01    1.126231e+00
  1.997563e+01    1.117054e+00
  1.999150e+01    1.099343e+00
  2.000738e+01    1.119387e+00
  2.002325e+01    1.140677e+00
  2.003913e+01    1.125722e+00
  2.005501e+01    1.137516e+00
  2.007088e+01    1.113553e+00
  2.008676e+01    1.096175e+00
  2.010263e+01    1.127460e+00
  2.011851e+01    1.128066e+00
  2.013438e+01    1.110959e+00
  2.015026e+01    1.113825e+00
  2.016614e+01    1.095392e+00
  2.018201e+01    1.119013e+00
  2.019789e+01    1.120275e+00
  2.021376e+01    1.097461e+00
  2.022964e+01    1.089200e+00
  2.024551e+01    1.077763e+00
  2.026139e+01    1.080828e+00
  2.027726e+01    1.082673e+00
  2.029314e+01    1.091185e+00
  2.030902e+01    1.095783e+00
  2.032489e+01    1.093199e+00
  2.034077e+01    1.074970e+00
  2.035664e+01    1.086253e+00
  2.037252e+01    1.115746e+00
  2.038839e+01    1.121536e+00
  2.040427e+01    1.094245e+00
  2.042014e+01    1.093395e+00
  2.043602e+01    1.083344e+00
  2.045190e+01    1.090467e+00
  2.046777e+01    1.073899e+00
  2.048365e+01    1.069738e+00
  2.049952e+01    1.093819e+00
  2.051540e+01    1.099480e+00
  2.053127e+01    1.096778e+00
  2.054715e+01    1.086955e+00
  2.056302e+01    1.097561e+00
  2.057890e+01    1.120020e+00
  2.059478e+01    1.103942e+00
  2.061065e+01    1.076620e+00
  2.062653e+01    1.079113e+00
  2.064240e+01    1.073779e+00
  2.065828e+01    1.082768e+00
  2.067415e+01    1.083195e+00
  2.069003e+01    1.072566e+00
  2.070590e+01    1.073816e+00
  2.072178e+01    1.062502e+00
  2.073766e+01    1.090796e+00
  2.075353e+01    1.081679e+00
  2.076941e+01    1.071912e+00
  2.078528e+01    1.088420e+00
  2.080116e+01    1.079217e+00
  2.081703e+01    1.083469e+00
  2.083291e+01    1.060268e+00
  2.084878e+01    1.098885e+00
  2.086466e+01    1.101816e+00
  2.088054e+01    1.094307e+00
  2.089641e+01    1.086246e+00
  2.091229e+01    1.068050e+00
  2.092816e+01    1.070568e+00
  2.094404e+01    1.081652e+00
  2.095991e+01    1.090000e+00
  2.097579e+01    1.085632e+00
  2.099166e+01    1.085910e+00
  2.100754e+01    1.071540e+00
  2.102342e+01    1.093668e+00
  2.103929e+01    1.083908e+00
  2.105517e+01    1.099786e+00
  2.107104e+01    1.101601e+00
  2.108692e+01    1.083153e+00
  2.110279e+01    1.108627e+00
  2.111867e+01    1.093034e+00
  2.113455e+01    1.083910e+00
  2.115042e+01    1.110987e+00
  2.116630e+01    1.104429e+00
  2.118217e+01    1.100995e+00
  2.119805e+01    1.106134e+00
  2.121392e+01    1.131999e+00
  2.122980e+01    1.119012e+00
  2.124567e+01    1.092748e+00
  2.126155e+01    1.099338e+00
  2.127743e+01    1.085285e+00
  2.129330e+01    1.102175e+00
  2.130918e+01    1.132419e+00
  2.132505e+01    1.126063e+00
  2.134093e+01    1.124189e+00
  2.135680e+01    1.166232e+00
  2.137268e+01    1.177580e+00
  2.138855e+01    1.145869e+00
  2.140443e+01    1.162122e+00
  2.142031e+01    1.186691e+00
  2.143618e+01    1.219066e+00
  2.145206e+01    1.212410e+00
  2.146793e+01    1.212467e+00
  2.148381e+01    1.260707e+00
  2.149968e+01    1.282655e+00
  2.151556e+01    1.302608e+00
  2.153143e+01    1.346888e+00
  2.154731e+01    1.361200e+00
  2.156319e+01    1.381405e+00
  2.157906e+01    1.444213e+00
  2.159494e+01    1.487920e+00
  2.161081e+01    1.589131e+00
  2.162669e+01    1.682503e+00
  2.164256e+01    1.744882e+00
  2.165844e+01    1.888448e+00
  2.167431e+01    2.009198e+00
  2.169019e+01    2.215137e+00
  2.170607e+01    2.422159e+00
  2.172194e+01    2.695148e+00
  2.173782e+01    3.012921e+00
  2.175369e+01    3.417914e+00
  2.176957e+01    3.905241e+00
  2.178544e+01    4.518260e+00
  2.180132e+01    5.196713e+00
  2.181719e+01    5.865748e+00
  2.183307e+01    6.624795e+00
  2.184895e+01    7.520624e+00
  2.186482e+01    8.293992e+00
  2.188070e+01    9.094778e+00
  2.189657e+01    9.765777e+00
  2.191245e+01    1.023621e+01
  2.192832e+01    1.023532e+01
  2.194420e+01    9.829322e+00
  2.196007e+01    9.046234e+00
  2.197595e+01    7.954491e+00
  2.199183e+01    6.812218e+00
  2.200770e+01    5.765133e+00
  2.202358e+01    4.858076e+00
  2.203945e+01    4.150688e+00
  2.205533e+01    3.557721e+00
  2.207120e+01    3.102138e+00
  2.208708e+01    2.742335e+00
  2.210296e+01    2.467604e+00
  2.211883e+01    2.218322e+00
  2.213471e+01    2.066433e+00
  2.215058e+01    1.911242e+00
  2.216646e+01    1.762096e+00
  2.218233e+01    1.682559e+00
  2.219821e+01    1.602777e+00
  2.221408e+01    1.490851e+00
  2.222996e+01    1.432494e+00
  2.224584e+01    1.376312e+00
  2.226171e+01    1.335706e+00
  2.227759e+01    1.296390e+00
  2.229346e+01    1.275603e+00
  2.230934e+01    1.253475e+00
  2.232521e+01    1.226502e+00
  2.234109e+01    1.201493e+00
  2.235696e+01    1.176418e+00
  2.237284e+01    1.150535e+00
  2.238872e+01    1.137033e+00
  2.240459e+01    1.102358e+00
  2.242047e+01    1.106124e+00
  2.243634e+01    1.106246e+00
  2.245222e+01    1.075545e+00
  2.246809e+01    1.046183e+00
  2.248397e+01    1.045576e+00
  2.249984e+01    1.045616e+00
  2.251572e+01    1.057065e+00
  2.253160e+01    1.042926e+00
  2.254747e+01    1.014169e+00
  2.256335e+01    9.983353e-01
  2.257922e+01    1.009535e+00
  2.259510e+01    1.023509e+00
  2.261097e+01    9.658368e-01
  2.262685e+01    9.803072e-01
  2.264272e+01    9.741917e-01
  2.265860e+01    9.645783e-01
  2.267448e+01    9.765307e-01
  2.269035e+01    9.749860e-01
  2.270623e+01    9.760293e-01
  2.272210e+01    9.600869e-01
  2.273798e+01    9.599959e-01
  2.275385e+01    9.540399e-01
  2.276973e+01    9.478676e-01
  2.278560e+01    9.410157e-01
  2.280148e+01    9.398750e-01
  2.281736e+01    9.405317e-01
  2.283323e+01    9.351938e-01
  2.284911e+01    9.200154e-01
  2.286498e+01    9.307124e-01
  2.288086e+01    9.475946e-01
  2.289673e+01    9.290287e-01
  2.291261e+01    9.289063e-01
  2.292848e+01    9.136974e-01
  2.294436e+01    9.316922e-01
  2.296024e+01    9.164502e-01
  2.297611e+01    9.035725e-01
  2.299199e+01    9.142896e-01
  2.300786e+01    9.308093e-01
  2.302374e+01    9.201441e-01
  2.303961e+01    9.010653e-01
  2.305549e+01    8.882911e-01
  2.307137e+01    8.992748e-01
  2.308724e+01    9.100672e-01
  2.310312e+01    9.067714e-01
  2.311899e+01    8.909186e-01
  2.313487e+01    8.684920e-01
  2.315074e+01    8.698289e-01
  2.316662e+01    8.906888e-01
  2.318249e+01    8.928012e-01
  2.319837e+01    8.891126e-01
  2.321425e+01    8.891329e-01
  2.323012e+01    8.824543e-01
  2.324600e+01    8.701335e-01
  2.326187e+01    8.765094e-01
  2.327775e+01    8.832810e-01
  2.329362e+01    8.889608e-01
  2.330950e+01    8.876082e-01
  2.332537e+01    8.644550e-01
  2.334125e+01    8.706921e-01
  2.335713e+01    8.691826e-01
  2.337300e+01    8.800292e-01
  2.338888e+01    8.752470e-01
  2.340475e+01    8.581454e-01
  2.342063e+01    8.391023e-01
  2.343650e+01    8.737353e-01
  2.345238e+01    8.722998e-01
  2.346825e+01    8.577443e-01
  2.348413e+01    8.634523e-01
  2.350001e+01    8.725033e-01
  2.351588e+01    8.554004e-01
  2.353176e+01    8.313743e-01
  2.354763e+01    8.439558e-01
  2.356351e+01    8.318053e-01
  2.357938e+01    8.431064e-01
  2.359526e+01    8.442356e-01
  2.361113e+01    8.407645e-01
  2.362701e+01    8.513246e-01
  2.364289e+01    8.355846e-01
  2.365876e+01    8.360796e-01
  2.367464e+01    8.380701e-01
  2.369051e+01    8.288181e-01
  2.370639e+01    8.206295e-01
  2.372226e+01    8.484570e-01
  2.373814e+01    8.510517e-01
  2.375401e+01    8.273088e-01
  2.376989e+01    8.260276e-01
  2.378577e+01    8.081989e-01
  2.380164e+01    8.180586e-01
  2.381752e+01    8.157283e-01
  2.383339e+01    8.097934e-01
  2.384927e+01    8.181866e-01
  2.386514e+01    8.095325e-01
  2.388102e+01    8.173209e-01
  2.389689e+01    8.145545e-01
  2.391277e+01    8.018066e-01
  2.392865e+01    8.001373e-01
  2.394452e+01    8.081483e-01
  2.396040e+01    8.233759e-01
  2.397627e+01    7.976237e-01
  2.399215e+01    7.835879e-01
  2.400802e+01    7.655674e-01
  2.402390e+01    7.850376e-01
  2.403978e+01    7.966263e-01
  2.405565e+01    7.831248e-01
  2.407153e+01    7.862852e-01
  2.408740e+01    7.797886e-01
  2.410328e+01    7.941160e-01
  2.411915e+01    8.052568e-01
  2.413503e+01    8.085505e-01
  2.415090e+01    7.916487e-01
  2.416678e+01    7.935472e-01
  2.418266e+01    7.823879e-01
  2.419853e+01    7.699047e-01
  2.421441e+01    7.645200e-01
  2.423028e+01    7.800275e-01
  2.424616e+01    7.955440e-01
  2.426203e+01    8.068264e-01
  2.427791e+01    7.937486e-01
  2.429378e+01    7.789731e-01
  2.430966e+01    7.790598e-01
  2.432554e+01    7.898006e-01
  2.434141e+01    7.915185e-01
  2.435729e+01    7.756026e-01
  2.437316e+01    7.859163e-01
  2.438904e+01    7.946018e-01
  2.440491e+01    7.919744e-01
  2.442079e+01    7.868416e-01
  2.443666e+01    8.051851e-01
  2.445254e+01    8.072388e-01
  2.446842e+01    7.830132e-01
  2.448429e+01    8.038938e-01
  2.450017e+01    7.973572e-01
  2.451604e+01    8.056326e-01
  2.453192e+01    8.202428e-01
  2.454779e+01    8.097565e-01
  2.456367e+01    8.066821e-01
  2.457954e+01    8.011752e-01
  2.459542e+01    8.057032e-01
  2.461130e+01    8.056094e-01
  2.462717e+01    8.019191e-01
  2.464305e+01    8.006614e-01
  2.465892e+01    7.840994e-01
  2.467480e+01    7.862161e-01
  2.469067e+01    7.821925e-01
  2.470655e+01    7.889866e-01
  2.472242e+01    7.786133e-01
  2.473830e+01    7.892023e-01
  2.475418e+01    7.878048e-01
  2.477005e+01    7.957386e-01
  2.478593e+01    8.085763e-01
  2.480180e+01    7.879499e-01
  2.481768e+01    7.933238e-01
  2.483355e+01    7.976708e-01
  2.484943e+01    8.006725e-01
  2.486530e+01    8.107467e-01
  2.488118e+01    8.093531e-01
  2.489706e+01    8.035759e-01
  2.491293e+01    8.167263e-01
  2.492881e+01    8.118740e-01
  2.494468e+01    8.015231e-01
  2.496056e+01    8.073416e-01
  2.497643e+01    8.042835e-01
  2.499231e+01    8.214267e-01
  2.500819e+01    8.173767e-01
  2.502406e+01    8.053897e-01
  2.503994e+01    8.229921e-01
  2.505581e+01    8.265930e-01
  2.507169e+01    8.178239e-01
  2.508756e+01    8.198105e-01
  2.510344e+01    8.158091e-01
  2.511931e+01    8.221238e-01
  2.513519e+01    8.256657e-01
  2.515107e+01    8.248243e-01
  2.516694e+01    8.347483e-01
  2.518282e+01    8.406110e-01
  2.519869e+01    8.363282e-01
  2.521457e+01    8.379447e-01
  2.523044e+01    8.398892e-01
  2.524632e+01    8.419609e-01
  2.526219e+01    8.318865e-01
  2.527807e+01    8.454472e-01
  2.529395e+01    8.659360e-01
  2.530982e+01    8.624328e-01
  2.532570e+01    8.787521e-01
  2.534157e+01    8.825191e-01
  2.535745e+01    8.913679e-01
  2.537332e+01    9.009590e-01
  2.538920e+01    8.803921e-01
  2.540507e+01    9.011277e-01
  2.542095e+01    9.243361e-01
  2.543683e+01    9.218633e-01
  2.545270e+01    9.434394e-01
  2.546858e+01    9.510847e-01
  2.548445e+01    9.467551e-01
  2.550033e+01    9.765652e-01
  2.551620e+01    9.886127e-01
  2.553208e+01    9.938611e-01
  2.554795e+01    1.026625e+00
  2.556383e+01    1.041551e+00
  2.557971e+01    1.074089e+00
  2.559558e+01    1.097658e+00
  2.561146e+01    1.114727e+00
  2.562733e+01    1.156025e+00
  2.564321e+01    1.199473e+00
  2.565908e+01    1.245204e+00
  2.567496e+01    1.285272e+00
  2.569083e+01    1.354865e+00
  2.570671e+01    1.433372e+00
  2.572259e+01    1.566959e+00
  2.573846e+01    1.638483e+00
  2.575434e+01    1.757107e+00
  2.577021e+01    1.919573e+00
  2.578609e+01    2.145097e+00
  2.580196e+01    2.432519e+00
  2.581784e+01    2.698938e+00
  2.583371e+01    3.042074e+00
  2.584959e+01    3.442171e+00
  2.586547e+01    4.001099e+00
  2.588134e+01    4.594332e+00
  2.589722e+01    5.276235e+00
  2.591309e+01    5.993477e+00
  2.592897e+01    6.671798e+00
  2.594484e+01    7.424995e+00
  2.596072e+01    7.996375e+00
  2.597660e+01    8.319109e+00
  2.599247e+01    8.455261e+00
  2.600835e+01    8.231924e+00
  2.602422e+01    7.683159e+00
  2.604010e+01    6.853798e+00
  2.605597e+01    6.022388e+00
  2.607185e+01    5.232055e+00
  2.608772e+01    4.425991e+00
  2.610360e+01    3.804710e+00
  2.611948e+01    3.305821e+00
  2.613535e+01    2.884739e+00
  2.615123e+01    2.536183e+00
  2.616710e+01    2.234116e+00
  2.618298e+01    2.025755e+00
  2.619885e+01    1.845142e+00
  2.621473e+01    1.726831e+00
  2.623060e+01    1.605045e+00
  2.624648e+01    1.502847e+00
  2.626236e+01    1.391679e+00
  2.627823e+01    1.357851e+00
  2.629411e+01    1.288949e+00
  2.630998e+01    1.240978e+00
  2.632586e+01    1.204453e+00
  2.634173e+01    1.156238e+00
  2.635761e+01    1.115207e+00
  2.637348e+01    1.079161e+00
  2.638936e+01    1.052275e+00
  2.640524e+01    1.020217e+00
  2.642111e+01    1.023026e+00
  2.643699e+01    1.010424e+00
  2.645286e+01    1.000443e+00
  2.646874e+01    9.830602e-01
  2.648461e+01    9.829159e-01
  2.650049e+01    9.675946e-01
  2.651636e+01    9.671178e-01
  2.653224e+01    9.762422e-01
  2.654812e+01    9.522251e-01
  2.656399e+01    9.682435e-01
  2.657987e+01    9.483142e-01
  2.659574e+01    9.473582e-01
  2.661162e+01    9.270388e-01
  2.662749e+01    9.366385e-01
  2.664337e+01    9.140922e-01
  2.665924e+01    9.006610e-01
  2.667512e+01    9.131323e-01
  2.669100e+01    9.101309e-01
  2.670687e+01    9.199095e-01
  2.672275e+01    9.097534e-01
  2.673862e+01    9.036782e-01
  2.675450e+01    8.952196e-01
  2.677037e+01    8.858952e-01
  2.678625e+01    8.861062e-01
  2.680212e+01    9.038780e-01
  2.681800e+01    9.171118e-01
  2.683388e+01    9.205886e-01
  2.684975e+01    9.226842e-01
  2.686563e+01    9.171138e-01
  2.688150e+01    9.000803e-01
  2.689738e+01    9.140513e-01
  2.691325e+01    9.388375e-01
  2.692913e+01    9.381770e-01
  2.694501e+01    9.376970e-01
  2.696088e+01    9.710256e-01
  2.697676e+01    9.802469e-01
  2.699263e+01    9.817922e-01
  2.700851e+01    1.001167e+00
  2.702438e+01    1.038225e+00
  2.704026e+01    1.073398e+00
  2.705613e+01    1.112998e+00
  2.707201e+01    1.196416e+00
  2.708789e+01    1.245853e+00
  2.710376e+01    1.321041e+00
  2.711964e+01    1.423503e+00
  2.713551e+01    1.531868e+00
  2.715139e+01    1.671930e+00
  2.716726e+01    1.820312e+00
  2.718314e+01    1.990964e+00
  2.719901e+01    2.138753e+00
  2.721489e+01    2.301561e+00
  2.723077e+01    2.382345e+00
  2.724664e+01    2.470033e+00
  2.726252e+01    2.447632e+00
  2.727839e+01    2.350892e+00
  2.729427e+01    2.199723e+00
  2.731014e+01    1.995777e+00
  2.732602e+01    1.836691e+00
  2.734189e+01    1.644959e+00
  2.735777e+01    1.517972e+00
  2.737365e+01    1.377048e+00
  2.738952e+01    1.266236e+00
  2.740540e+01    1.214652e+00
  2.742127e+01    1.170711e+00
  2.743715e+01    1.098314e+00
  2.745302e+01    1.058420e+00
  2.746890e+01    1.053743e+00
  2.748477e+01    9.939870e-01
  2.750065e+01    9.552714e-01
  2.751653e+01    9.648793e-01
  2.753240e+01    9.510461e-01
  2.754828e+01    9.208090e-01
  2.756415e+01    9.067938e-01
  2.758003e+01    8.958257e-01
  2.759590e+01    8.559022e-01
  2.761178e+01    8.751765e-01
  2.762765e+01    8.525256e-01
  2.764353e+01    8.640292e-01
  2.765941e+01    8.502389e-01
  2.767528e+01    8.368724e-01
  2.769116e+01    8.314877e-01
  2.770703e+01    8.326175e-01
  2.772291e+01    8.336489e-01
  2.773878e+01    8.334474e-01
  2.775466e+01    8.386961e-01
  2.777054e+01    8.263460e-01
  2.778641e+01    8.251382e-01
  2.780229e+01    8.252550e-01
  2.781816e+01    8.354588e-01
  2.783404e+01    8.210466e-01
  2.784991e+01    7.893460e-01
  2.786579e+01    7.922228e-01
  2.788166e+01    7.935467e-01
  2.789754e+01    8.132752e-01
  2.791342e+01    8.123099e-01
  2.792929e+01    8.044447e-01
  2.794517e+01    7.908311e-01
  2.796104e+01    7.821192e-01
  2.797692e+01    7.752969e-01
  2.799279e+01    8.010057e-01
  2.800867e+01    8.044559e-01
  2.802454e+01    8.108640e-01
  2.804042e+01    8.160030e-01
  2.805630e+01    8.025765e-01
  2.807217e+01    7.815253e-01
  2.808805e+01    7.804393e-01
  2.810392e+01    7.732857e-01
  2.811980e+01    7.931948e-01
  2.813567e+01    7.853050e-01
  2.815155e+01    7.814712e-01
  2.816742e+01    7.822911e-01
  2.818330e+01    7.844032e-01
  2.819918e+01    7.776266e-01
  2.821505e+01    7.758226e-01
  2.823093e+01    7.703382e-01
  2.824680e+01    7.644342e-01
  2.826268e+01    7.805952e-01
  2.827855e+01    7.878594e-01
  2.829443e+01    7.803592e-01
  2.831030e+01    7.780743e-01
  2.832618e+01    7.805305e-01
  2.834206e+01    7.815010e-01
  2.835793e+01    7.717567e-01
  2.837381e+01    7.613173e-01
  2.838968e+01    7.519779e-01
  2.840556e+01    7.668183e-01
  2.842143e+01    7.685272e-01
  2.843731e+01    7.714375e-01
  2.845318e+01    7.575726e-01
  2.846906e+01    7.576345e-01
  2.848494e+01    7.594982e-01
  2.850081e+01    7.439761e-01
  2.851669e+01    7.578976e-01
  2.853256e+01    7.725093e-01
  2.854844e+01    7.689810e-01
  2.856431e+01    7.635298e-01
  2.858019e+01    7.579252e-01
  2.859606e+01    7.422770e-01
  2.861194e+01    7.481916e-01
  2.862782e+01    7.774032e-01
  2.864369e+01    7.549307e-01
  2.865957e+01    7.656981e-01
  2.867544e+01    7.794044e-01
  2.869132e+01    7.877712e-01
  2.870719e+01    7.622126e-01
  2.872307e+01    7.454615e-01
  2.873895e+01    7.417961e-01
  2.875482e+01    7.545565e-01
  2.877070e+01    7.498983e-01
  2.878657e+01    7.835888e-01
  2.880245e+01    7.630773e-01
  2.881832e+01    7.655502e-01
  2.883420e+01    7.481269e-01
  2.885007e+01    7.330040e-01
  2.886595e+01    7.517745e-01
  2.888183e+01    7.334028e-01
  2.889770e+01    7.340490e-01
  2.891358e+01    7.585746e-01
  2.892945e+01    7.713126e-01
  2.894533e+01    7.571096e-01
  2.896120e+01    7.335130e-01
  2.897708e+01    7.568904e-01
  2.899295e+01    7.582682e-01
  2.900883e+01    7.674229e-01
  2.902471e+01    7.426064e-01
  2.904058e+01    7.337434e-01
  2.905646e+01    7.395664e-01
  2.907233e+01    7.396126e-01
  2.908821e+01    7.418724e-01
  2.910408e+01    7.500048e-01
  2.911996e+01    7.375044e-01
  2.913583e+01    7.320265e-01
  2.915171e+01    7.475169e-01
  2.916759e+01    7.709119e-01
  2.918346e+01    7.671204e-01
  2.919934e+01    7.375329e-01
  2.921521e+01    7.602710e-01
  2.923109e+01    7.509651e-01
  2.924696e+01    7.509196e-01
  2.926284e+01    7.382838e-01
  2.927871e+01    7.245286e-01
  2.929459e+01    7.394009e-01
  2.931047e+01    7.192844e-01
  2.932634e+01    7.347941e-01
  2.934222e+01    7.304698e-01
  2.935809e+01    7.271866e-01
  2.937397e+01    7.193224e-01
  2.938984e+01    7.101865e-01
  2.940572e+01    7.234476e-01
  2.942159e+01    7.190058e-01
  2.943747e+01    7.156268e-01
  2.945335e+01    7.492305e-01
  2.946922e+01    7.430502e-01
  2.948510e+01    7.325952e-01
  2.950097e+01    7.462050e-01
  2.951685e+01    7.141634e-01
  2.953272e+01    7.286202e-01
  2.954860e+01    7.333556e-01
  2.956447e+01    7.400586e-01
  2.958035e+01    7.424191e-01
  2.959623e+01    7.177538e-01
  2.961210e+01    7.134533e-01
  2.962798e+01    7.219110e-01
  2.964385e+01    7.155153e-01
  2.965973e+01    7.402372e-01
  2.967560e+01    7.404841e-01
  2.969148e+01    7.367163e-01
  2.970736e+01    7.471445e-01
  2.972323e+01    7.500149e-01
  2.973911e+01    7.339011e-01
  2.975498e+01    7.430891e-01
  2.977086e+01    7.465089e-01
  2.978673e+01    7.350517e-01
  2.980261e+01    7.262411e-01
  2.981848e+01    7.118586e-01
  2.983436e+01    7.137230e-01
  2.985024e+01    7.268782e-01
  2.986611e+01    7.350701e-01
  2.988199e+01    7.223564e-01
  2.989786e+01    7.222504e-01
  2.991374e+01    7.281557e-01
  2.992961e+01    7.397847e-01
  2.994549e+01    7.327834e-01
  2.996136e+01    7.206542e-01
  2.997724e+01    7.174140e-01
  2.999312e+01    7.395125e-01
  3.000899e+01    7.390720e-01
  3.002487e+01    7.433613e-01
  3.004074e+01    7.447357e-01
  3.005662e+01    7.555958e-01
  3.007249e+01    7.177861e-01
  3.008837e+01    7.400728e-01
  3.010424e+01    7.545941e-01
  3.012012e+01    7.375863e-01
  3.013600e+01    7.316042e-01
  3.015187e+01    7.191759e-01
  3.016775e+01    7.098740e-01
  3.018362e+01    6.995099e-01
  3.019950e+01    6.884469e-01
  3.021537e+01    7.224998e-01
  3.023125e+01    7.319718e-01
  3.024712e+01    7.318526e-01
  3.026300e+01    7.181450e-01
  3.027888e+01    7.265985e-01
  3.029475e+01    7.078993e-01
  3.031063e+01    7.057892e-01
  3.032650e+01    7.097077e-01
  3.034238e+01    7.080346e-01
  3.035825e+01    7.172015e-01
  3.037413e+01    7.198997e-01
  3.039000e+01    7.333426e-01
  3.040588e+01    7.297313e-01
  3.042176e+01    7.151614e-01
  3.043763e+01    7.035782e-01
  3.045351e+01    7.238770e-01
  3.046938e+01    7.196761e-01
  3.048526e+01    7.193930e-01
  3.050113e+01    7.155960e-01
  3.051701e+01    7.247471e-01
  3.053288e+01    7.095441e-01
  3.054876e+01    7.227199e-01
  3.056464e+01    7.282611e-01
  3.058051e+01    7.113725e-01
  3.059639e+01    7.303587e-01
  3.061226e+01    7.022684e-01
  3.062814e+01    7.156234e-01
  3.064401e+01    7.143394e-01
  3.065989e+01    7.344830e-01
  3.067577e+01    7.429994e-01
  3.069164e+01    7.152956e-01
  3.070752e+01    7.237134e-01
  3.072339e+01    7.449789e-01
  3.073927e+01    7.019120e-01
  3.075514e+01    6.928444e-01
  3.077102e+01    7.060189e-01
  3.078689e+01    7.125052e-01
  3.080277e+01    7.188564e-01
  3.081865e+01    7.187003e-01
  3.083452e+01    7.153035e-01
  3.085040e+01    6.992251e-01
  3.086627e+01    7.139556e-01
  3.088215e+01    7.152578e-01
  3.089802e+01    7.043343e-01
  3.091390e+01    6.986501e-01
  3.092977e+01    7.055649e-01
  3.094565e+01    7.034914e-01
  3.096153e+01    6.999095e-01
  3.097740e+01    7.381731e-01
  3.099328e+01    7.369469e-01
  3.100915e+01    7.183065e-01
  3.102503e+01    7.026082e-01
  3.104090e+01    7.059422e-01
  3.105678e+01    7.159196e-01
  3.107265e+01    7.242795e-01
  3.108853e+01    7.131441e-01
  3.110441e+01    7.154163e-01
  3.112028e+01    7.191531e-01
  3.113616e+01    7.211798e-01
  3.115203e+01    7.281680e-01
  3.116791e+01    7.112393e-01
  3.118378e+01    7.215942e-01
  3.119966e+01    7.308068e-01
  3.121553e+01    7.292386e-01
  3.123141e+01    7.256995e-01
  3.124729e+01    7.296998e-01
  3.126316e+01    7.396945e-01
  3.127904e+01    7.495519e-01
  3.129491e+01    7.476018e-01
  3.131079e+01    7.235633e-01
  3.132666e+01    7.260751e-01
  3.134254e+01    7.579751e-01
  3.135841e+01    7.460588e-01
  3.137429e+01    7.405762e-01
  3.139017e+01    7.511760e-01
  3.140604e+01    7.363144e-01
  3.142192e+01    7.361477e-01
  3.143779e+01    7.695530e-01
  3.145367e+01    7.843330e-01
  3.146954e+01    7.561489e-01
  3.148542e+01    7.598739e-01
  3.150129e+01    7.687816e-01
  3.151717e+01    7.659008e-01
  3.153305e+01    7.872053e-01
  3.154892e+01    7.963743e-01
  3.156480e+01    8.274564e-01
  3.158067e+01    8.090894e-01
  3.159655e+01    7.910722e-01
  3.161242e+01    8.287715e-01
  3.162830e+01    8.386878e-01
  3.164418e+01    8.605867e-01
  3.166005e+01    8.811324e-01
  3.167593e+01    8.540783e-01
  3.169180e+01    8.943287e-01
  3.170768e+01    9.208544e-01
  3.172355e+01    9.855093e-01
  3.173943e+01    9.949657e-01
  3.175530e+01    1.048579e+00
  3.177118e+01    1.097805e+00
  3.178706e+01    1.190477e+00
  3.180293e+01    1.275655e+00
  3.181881e+01    1.389981e+00
  3.183468e+01    1.503682e+00
  3.185056e+01    1.630704e+00
  3.186643e+01    1.804506e+00
  3.188231e+01    1.981567e+00
  3.189818e+01    2.180015e+00
  3.191406e+01    2.314837e+00
  3.192994e+01    2.413570e+00
  3.194581e+01    2.463437e+00
  3.196169e+01    2.400331e+00
  3.197756e+01    2.298479e+00
  3.199344e+01    2.156505e+00
  3.200931e+01    1.986978e+00
  3.202519e+01    1.785458e+00
  3.204106e+01    1.585307e+00
  3.205694e+01    1.443856e+00
  3.207282e+01    1.317791e+00
  3.208869e+01    1.201567e+00
  3.210457e+01    1.106617e+00
  3.212044e+01    1.056838e+00
  3.213632e+01    1.004162e+00
  3.215219e+01    9.961936e-01
  3.216807e+01    9.399045e-01
  3.218394e+01    8.863603e-01
  3.219982e+01    8.569174e-01
  3.221570e+01    8.491204e-01
  3.223157e+01    8.247472e-01
  3.224745e+01    8.247851e-01
  3.226332e+01    8.087145e-01
  3.227920e+01    7.804767e-01
  3.229507e+01    7.799736e-01
  3.231095e+01    7.810495e-01
  3.232682e+01    7.612273e-01
  3.234270e+01    7.748357e-01
  3.235858e+01    7.717915e-01
  3.237445e+01    7.628324e-01
  3.239033e+01    7.388909e-01
  3.240620e+01    7.481630e-01
  3.242208e+01    7.611555e-01
  3.243795e+01    7.363135e-01
  3.245383e+01    7.373931e-01
  3.246970e+01    7.445564e-01
  3.248558e+01    7.367368e-01
  3.250146e+01    7.265475e-01
  3.251733e+01    7.324476e-01
  3.253321e+01    7.258489e-01
  3.254908e+01    7.344250e-01
