# == pyFAI calibration ==
# Distance Sample to Detector: 0.3999999939076516 m
# PONI: 9.750e-02, 1.135e-01 m
# Rotations: -0.000175 0.000000 -0.000000 rad
# 
# == Fit2d calibration ==
# Distance Sample-beamCenter: 400.000 mm
# Center: x=1514.000, y=1300.000 pix
# Tilt: 0.010 deg  TiltPlanRot: 0.010 deg
# 
# Detector Detector	 Spline= None	 PixelSize= 7.500e-05, 7.500e-05 m
#    Detector has a mask: False 
#    Detector has a dark current: False 
#    detector has a flat field: False 
# 
# Wavelength: 6.888e-11 m
# Mask applied: user provided
# Dark current applied: False
# Flat field applied: False
# Polarization factor: 0.99
# Normalization factor: 1.0
# --> /home/myspot/data/2024_07_Rosario/Ru-CGO-ex/2024-07-27_002_Ru-CGO-ex_Activtation_ramp_000002_data_000101.dat
#       q_nm^-1             I 
  2.003187e-02    0.000000e+00
  3.590745e-02    0.000000e+00
  5.178302e-02    2.671360e-02
  6.765859e-02    8.846221e-02
  8.353417e-02    4.178507e-02
  9.940974e-02    0.000000e+00
  1.152853e-01    6.107927e-02
  1.311609e-01    3.844428e-02
  1.470365e-01    7.189626e-02
  1.629120e-01    6.335407e-02
  1.787876e-01    1.808010e-02
  1.946632e-01    1.806022e-02
  2.105388e-01    0.000000e+00
  2.264143e-01    0.000000e+00
  2.422899e-01    2.640141e-02
  2.581655e-01    3.781524e-02
  2.740411e-01    3.819325e-03
  2.899166e-01    2.193030e-02
  3.057922e-01    4.718069e-02
  3.216678e-01    3.550528e-02
  3.375433e-01    1.085482e-02
  3.534189e-01    3.320194e-02
  3.692945e-01    1.856460e-02
  3.851701e-01    8.542894e-03
  4.010456e-01    3.208409e-03
  4.169212e-01    9.195979e-03
  4.327968e-01    3.187952e-02
  4.486724e-01    3.473894e-02
  4.645479e-01    2.999646e-02
  4.804235e-01    4.063731e-02
  4.962991e-01    3.392721e-02
  5.121747e-01    3.775429e-02
  5.280502e-01    2.623464e-02
  5.439258e-01    3.985119e-02
  5.598014e-01    1.943217e-02
  5.756770e-01    2.398992e-02
  5.915525e-01    6.108528e-02
  6.074281e-01    1.639747e-02
  6.233037e-01    1.646393e-02
  6.391793e-01    4.099089e-02
  6.550548e-01    5.392287e-02
  6.709304e-01    1.833038e-02
  6.868060e-01    1.978184e-02
  7.026815e-01    2.017860e-02
  7.185571e-01    3.028441e-02
  7.344327e-01    4.561549e-02
  7.503083e-01    5.793823e-02
  7.661838e-01    6.469991e-02
  7.820594e-01    7.871323e-02
  7.979350e-01    1.277284e-01
  8.138106e-01    1.179784e-01
  8.296861e-01    2.695278e-01
  8.455617e-01    3.802247e-01
  8.614373e-01    3.766122e-01
  8.773129e-01    4.060085e-01
  8.931884e-01    4.675210e-01
  9.090640e-01    5.219857e-01
  9.249396e-01    6.385758e-01
  9.408152e-01    6.607803e-01
  9.566907e-01    7.091469e-01
  9.725663e-01    8.950453e-01
  9.884419e-01    1.046899e+00
  1.004317e+00    1.039330e+00
  1.020193e+00    1.091806e+00
  1.036069e+00    1.155741e+00
  1.051944e+00    1.291963e+00
  1.067820e+00    1.302988e+00
  1.083695e+00    1.363459e+00
  1.099571e+00    1.333225e+00
  1.115446e+00    1.409386e+00
  1.131322e+00    1.479071e+00
  1.147198e+00    1.437546e+00
  1.163073e+00    1.538302e+00
  1.178949e+00    1.544619e+00
  1.194824e+00    1.597765e+00
  1.210700e+00    1.866731e+00
  1.226575e+00    2.035917e+00
  1.242451e+00    2.222839e+00
  1.258327e+00    2.243815e+00
  1.274202e+00    2.286544e+00
  1.290078e+00    2.360448e+00
  1.305953e+00    2.374455e+00
  1.321829e+00    2.570781e+00
  1.337705e+00    2.503408e+00
  1.353580e+00    2.377706e+00
  1.369456e+00    2.550001e+00
  1.385331e+00    2.678745e+00
  1.401207e+00    2.575691e+00
  1.417082e+00    2.700733e+00
  1.432958e+00    2.775791e+00
  1.448834e+00    2.555249e+00
  1.464709e+00    2.583318e+00
  1.480585e+00    2.688109e+00
  1.496460e+00    2.912924e+00
  1.512336e+00    2.807015e+00
  1.528211e+00    2.833436e+00
  1.544087e+00    2.936886e+00
  1.559963e+00    2.929544e+00
  1.575838e+00    2.905956e+00
  1.591714e+00    2.975140e+00
  1.607589e+00    2.965134e+00
  1.623465e+00    2.920715e+00
  1.639340e+00    2.856653e+00
  1.655216e+00    2.869827e+00
  1.671092e+00    2.837006e+00
  1.686967e+00    2.757873e+00
  1.702843e+00    2.788106e+00
  1.718718e+00    2.834669e+00
  1.734594e+00    2.801711e+00
  1.750469e+00    2.753611e+00
  1.766345e+00    2.726293e+00
  1.782221e+00    2.710545e+00
  1.798096e+00    2.797993e+00
  1.813972e+00    2.810127e+00
  1.829847e+00    2.712054e+00
  1.845723e+00    2.740756e+00
  1.861598e+00    2.756054e+00
  1.877474e+00    2.736690e+00
  1.893350e+00    2.833649e+00
  1.909225e+00    2.715656e+00
  1.925101e+00    2.738901e+00
  1.940976e+00    2.752381e+00
  1.956852e+00    2.789333e+00
  1.972727e+00    2.783103e+00
  1.988603e+00    2.736618e+00
  2.004479e+00    2.630080e+00
  2.020354e+00    2.869884e+00
  2.036230e+00    2.742678e+00
  2.052105e+00    2.665416e+00
  2.067981e+00    2.717327e+00
  2.083856e+00    2.713150e+00
  2.099732e+00    2.651453e+00
  2.115608e+00    2.716603e+00
  2.131483e+00    2.732949e+00
  2.147359e+00    2.725825e+00
  2.163234e+00    2.706495e+00
  2.179110e+00    2.607741e+00
  2.194985e+00    2.649213e+00
  2.210861e+00    2.728480e+00
  2.226737e+00    2.744717e+00
  2.242612e+00    2.767373e+00
  2.258488e+00    2.785362e+00
  2.274363e+00    2.757822e+00
  2.290239e+00    2.621233e+00
  2.306115e+00    2.582012e+00
  2.321990e+00    2.565721e+00
  2.337866e+00    2.773673e+00
  2.353741e+00    2.780775e+00
  2.369617e+00    2.696104e+00
  2.385492e+00    2.633133e+00
  2.401368e+00    2.592811e+00
  2.417244e+00    2.760397e+00
  2.433119e+00    2.773107e+00
  2.448995e+00    2.806889e+00
  2.464870e+00    2.746885e+00
  2.480746e+00    2.713660e+00
  2.496621e+00    2.743137e+00
  2.512497e+00    2.687787e+00
  2.528373e+00    2.866686e+00
  2.544248e+00    2.847903e+00
  2.560124e+00    2.808914e+00
  2.575999e+00    2.935804e+00
  2.591875e+00    2.924843e+00
  2.607750e+00    2.884829e+00
  2.623626e+00    2.810667e+00
  2.639502e+00    2.817186e+00
  2.655377e+00    2.869581e+00
  2.671253e+00    2.780615e+00
  2.687128e+00    2.849330e+00
  2.703004e+00    2.781343e+00
  2.718879e+00    2.825895e+00
  2.734755e+00    2.825488e+00
  2.750631e+00    2.802613e+00
  2.766506e+00    2.704736e+00
  2.782382e+00    2.748768e+00
  2.798257e+00    2.791531e+00
  2.814133e+00    2.840362e+00
  2.830008e+00    2.865300e+00
  2.845884e+00    2.841767e+00
  2.861760e+00    2.868660e+00
  2.877635e+00    2.860991e+00
  2.893511e+00    2.755466e+00
  2.909386e+00    2.860465e+00
  2.925262e+00    2.899066e+00
  2.941137e+00    2.854251e+00
  2.957013e+00    2.832405e+00
  2.972889e+00    2.806197e+00
  2.988764e+00    2.840524e+00
  3.004640e+00    2.880124e+00
  3.020515e+00    2.853179e+00
  3.036391e+00    2.885810e+00
  3.052266e+00    2.809688e+00
  3.068142e+00    2.820408e+00
  3.084018e+00    2.923543e+00
  3.099893e+00    2.925937e+00
  3.115769e+00    2.856853e+00
  3.131644e+00    2.812367e+00
  3.147520e+00    2.844899e+00
  3.163395e+00    2.896355e+00
  3.179271e+00    2.811322e+00
  3.195147e+00    2.808483e+00
  3.211022e+00    2.875891e+00
  3.226898e+00    2.900326e+00
  3.242773e+00    2.867163e+00
  3.258649e+00    2.942232e+00
  3.274525e+00    2.934322e+00
  3.290400e+00    2.928892e+00
  3.306276e+00    2.962955e+00
  3.322151e+00    2.881164e+00
  3.338027e+00    2.829878e+00
  3.353902e+00    2.935279e+00
  3.369778e+00    2.920808e+00
  3.385654e+00    2.924078e+00
  3.401529e+00    2.929076e+00
  3.417405e+00    2.935440e+00
  3.433280e+00    2.858580e+00
  3.449156e+00    2.841525e+00
  3.465031e+00    2.893387e+00
  3.480907e+00    2.893716e+00
  3.496783e+00    2.889394e+00
  3.512658e+00    2.944889e+00
  3.528534e+00    2.904756e+00
  3.544409e+00    2.891295e+00
  3.560285e+00    2.889284e+00
  3.576160e+00    2.936705e+00
  3.592036e+00    2.927949e+00
  3.607912e+00    3.002640e+00
  3.623787e+00    2.959084e+00
  3.639663e+00    3.001949e+00
  3.655538e+00    2.971524e+00
  3.671414e+00    2.882785e+00
  3.687289e+00    2.935949e+00
  3.703165e+00    3.000207e+00
  3.719041e+00    2.962744e+00
  3.734916e+00    2.929938e+00
  3.750792e+00    2.955265e+00
  3.766667e+00    3.013928e+00
  3.782543e+00    3.020309e+00
  3.798418e+00    2.984032e+00
  3.814294e+00    3.019291e+00
  3.830170e+00    2.896840e+00
  3.846045e+00    2.854735e+00
  3.861921e+00    2.928101e+00
  3.877796e+00    2.979319e+00
  3.893672e+00    2.929596e+00
  3.909547e+00    2.930415e+00
  3.925423e+00    2.969623e+00
  3.941299e+00    3.005797e+00
  3.957174e+00    2.964592e+00
  3.973050e+00    2.916173e+00
  3.988925e+00    3.025423e+00
  4.004801e+00    2.997667e+00
  4.020676e+00    2.939744e+00
  4.036552e+00    2.924181e+00
  4.052428e+00    2.923416e+00
  4.068303e+00    2.963718e+00
  4.084179e+00    2.959332e+00
  4.100054e+00    2.943412e+00
  4.115930e+00    2.987736e+00
  4.131806e+00    3.038194e+00
  4.147681e+00    3.081901e+00
  4.163557e+00    3.066069e+00
  4.179432e+00    3.058839e+00
  4.195308e+00    3.032311e+00
  4.211183e+00    2.973167e+00
  4.227059e+00    2.998071e+00
  4.242935e+00    3.076119e+00
  4.258810e+00    3.106377e+00
  4.274686e+00    3.087515e+00
  4.290561e+00    3.049258e+00
  4.306437e+00    3.027935e+00
  4.322312e+00    2.986228e+00
  4.338188e+00    2.975156e+00
  4.354064e+00    3.080767e+00
  4.369939e+00    3.017492e+00
  4.385815e+00    3.000153e+00
  4.401690e+00    3.015865e+00
  4.417566e+00    3.022603e+00
  4.433441e+00    3.054099e+00
  4.449317e+00    3.085337e+00
  4.465193e+00    3.106412e+00
  4.481068e+00    3.038904e+00
  4.496944e+00    2.999377e+00
  4.512819e+00    3.073534e+00
  4.528695e+00    3.026407e+00
  4.544570e+00    2.982607e+00
  4.560446e+00    3.075933e+00
  4.576322e+00    3.083616e+00
  4.592197e+00    2.931641e+00
  4.608073e+00    3.032072e+00
  4.623948e+00    3.054690e+00
  4.639824e+00    3.061385e+00
  4.655699e+00    3.099072e+00
  4.671575e+00    2.996764e+00
  4.687451e+00    3.078947e+00
  4.703326e+00    3.100359e+00
  4.719202e+00    3.073361e+00
  4.735077e+00    3.104766e+00
  4.750953e+00    3.053763e+00
  4.766828e+00    3.090268e+00
  4.782704e+00    2.999089e+00
  4.798580e+00    3.058742e+00
  4.814455e+00    3.103618e+00
  4.830331e+00    3.121699e+00
  4.846206e+00    3.062065e+00
  4.862082e+00    3.048746e+00
  4.877957e+00    3.080394e+00
  4.893833e+00    3.062949e+00
  4.909709e+00    3.050015e+00
  4.925584e+00    3.104526e+00
  4.941460e+00    3.078580e+00
  4.957335e+00    3.089102e+00
  4.973211e+00    3.072143e+00
  4.989086e+00    3.062879e+00
  5.004962e+00    3.132354e+00
  5.020838e+00    3.095344e+00
  5.036713e+00    3.076237e+00
  5.052589e+00    3.105479e+00
  5.068464e+00    3.040209e+00
  5.084340e+00    3.047513e+00
  5.100216e+00    3.028437e+00
  5.116091e+00    3.069243e+00
  5.131967e+00    3.091746e+00
  5.147842e+00    3.010325e+00
  5.163718e+00    3.073003e+00
  5.179593e+00    3.116681e+00
  5.195469e+00    3.122360e+00
  5.211345e+00    3.127300e+00
  5.227220e+00    3.011974e+00
  5.243096e+00    3.007050e+00
  5.258971e+00    3.091637e+00
  5.274847e+00    3.093846e+00
  5.290722e+00    3.122792e+00
  5.306598e+00    3.153851e+00
  5.322474e+00    3.199282e+00
  5.338349e+00    3.097985e+00
  5.354225e+00    3.036336e+00
  5.370100e+00    3.115735e+00
  5.385976e+00    3.088941e+00
  5.401851e+00    3.023213e+00
  5.417727e+00    3.067078e+00
  5.433603e+00    3.093305e+00
  5.449478e+00    3.082832e+00
  5.465354e+00    3.071979e+00
  5.481229e+00    2.997563e+00
  5.497105e+00    2.984293e+00
  5.512980e+00    3.019443e+00
  5.528856e+00    2.984073e+00
  5.544732e+00    3.054020e+00
  5.560607e+00    3.183114e+00
  5.576483e+00    3.088846e+00
  5.592358e+00    3.039662e+00
  5.608234e+00    3.024210e+00
  5.624109e+00    3.020185e+00
  5.639985e+00    3.057580e+00
  5.655861e+00    3.060514e+00
  5.671736e+00    3.036220e+00
  5.687612e+00    2.982395e+00
  5.703487e+00    3.021387e+00
  5.719363e+00    3.004770e+00
  5.735238e+00    3.036687e+00
  5.751114e+00    3.000755e+00
  5.766990e+00    2.979096e+00
  5.782865e+00    3.016235e+00
  5.798741e+00    3.009700e+00
  5.814616e+00    3.038055e+00
  5.830492e+00    3.030986e+00
  5.846367e+00    3.036648e+00
  5.862243e+00    3.051044e+00
  5.878119e+00    2.989501e+00
  5.893994e+00    2.952293e+00
  5.909870e+00    2.983909e+00
  5.925745e+00    3.015726e+00
  5.941621e+00    2.937178e+00
  5.957497e+00    3.012603e+00
  5.973372e+00    2.979750e+00
  5.989248e+00    2.919283e+00
  6.005123e+00    2.929004e+00
  6.020999e+00    2.995433e+00
  6.036874e+00    3.015159e+00
  6.052750e+00    3.030481e+00
  6.068626e+00    3.055362e+00
  6.084501e+00    3.067495e+00
  6.100377e+00    3.024578e+00
  6.116252e+00    2.973780e+00
  6.132128e+00    2.975802e+00
  6.148003e+00    3.002074e+00
  6.163879e+00    2.957480e+00
  6.179755e+00    2.926270e+00
  6.195630e+00    2.922927e+00
  6.211506e+00    2.972344e+00
  6.227381e+00    3.018816e+00
  6.243257e+00    2.946286e+00
  6.259132e+00    2.878932e+00
  6.275008e+00    2.955853e+00
  6.290884e+00    2.958242e+00
  6.306759e+00    3.022474e+00
  6.322635e+00    2.980028e+00
  6.338510e+00    2.988153e+00
  6.354386e+00    2.903704e+00
  6.370261e+00    2.915926e+00
  6.386137e+00    2.982408e+00
  6.402013e+00    3.011840e+00
  6.417888e+00    2.984775e+00
  6.433764e+00    2.951019e+00
  6.449639e+00    2.911967e+00
  6.465515e+00    2.944198e+00
  6.481390e+00    2.965459e+00
  6.497266e+00    2.982953e+00
  6.513142e+00    3.009723e+00
  6.529017e+00    2.997920e+00
  6.544893e+00    3.043062e+00
  6.560768e+00    3.039493e+00
  6.576644e+00    3.025768e+00
  6.592519e+00    3.024584e+00
  6.608395e+00    2.971066e+00
  6.624271e+00    2.982034e+00
  6.640146e+00    2.994386e+00
  6.656022e+00    2.988597e+00
  6.671897e+00    2.934332e+00
  6.687773e+00    2.962237e+00
  6.703648e+00    2.972980e+00
  6.719524e+00    3.025878e+00
  6.735400e+00    2.965133e+00
  6.751275e+00    2.984758e+00
  6.767151e+00    2.945932e+00
  6.783026e+00    2.966636e+00
  6.798902e+00    2.982285e+00
  6.814777e+00    2.999150e+00
  6.830653e+00    3.027636e+00
  6.846529e+00    2.955262e+00
  6.862404e+00    2.913064e+00
  6.878280e+00    2.974957e+00
  6.894155e+00    2.995667e+00
  6.910031e+00    2.992213e+00
  6.925907e+00    3.007916e+00
  6.941782e+00    3.105822e+00
  6.957658e+00    3.001360e+00
  6.973533e+00    2.970010e+00
  6.989409e+00    2.965199e+00
  7.005284e+00    2.974290e+00
  7.021160e+00    2.963822e+00
  7.037036e+00    2.951802e+00
  7.052911e+00    2.998981e+00
  7.068787e+00    2.960588e+00
  7.084662e+00    3.013640e+00
  7.100538e+00    2.968321e+00
  7.116413e+00    2.966466e+00
  7.132289e+00    2.967614e+00
  7.148165e+00    2.925982e+00
  7.164040e+00    2.998907e+00
  7.179916e+00    3.007109e+00
  7.195791e+00    2.984452e+00
  7.211667e+00    2.939615e+00
  7.227542e+00    2.898203e+00
  7.243418e+00    2.959076e+00
  7.259294e+00    2.954304e+00
  7.275169e+00    2.944188e+00
  7.291045e+00    3.027063e+00
  7.306920e+00    2.984262e+00
  7.322796e+00    2.978941e+00
  7.338671e+00    2.950901e+00
  7.354547e+00    2.957647e+00
  7.370423e+00    2.990193e+00
  7.386298e+00    2.978283e+00
  7.402174e+00    2.912891e+00
  7.418049e+00    2.866970e+00
  7.433925e+00    2.937463e+00
  7.449800e+00    2.955093e+00
  7.465676e+00    2.903743e+00
  7.481552e+00    2.947692e+00
  7.497427e+00    2.897979e+00
  7.513303e+00    2.884724e+00
  7.529178e+00    2.929388e+00
  7.545054e+00    2.974843e+00
  7.560929e+00    3.018226e+00
  7.576805e+00    2.911300e+00
  7.592681e+00    2.919770e+00
  7.608556e+00    2.905482e+00
  7.624432e+00    2.938968e+00
  7.640307e+00    2.950458e+00
  7.656183e+00    2.940765e+00
  7.672058e+00    2.925625e+00
  7.687934e+00    2.853070e+00
  7.703810e+00    2.889925e+00
  7.719685e+00    2.963187e+00
  7.735561e+00    2.917540e+00
  7.751436e+00    2.894248e+00
  7.767312e+00    2.949432e+00
  7.783187e+00    2.939137e+00
  7.799063e+00    2.865962e+00
  7.814939e+00    2.842309e+00
  7.830814e+00    2.869835e+00
  7.846690e+00    2.892277e+00
  7.862565e+00    2.877975e+00
  7.878441e+00    2.868546e+00
  7.894317e+00    2.915474e+00
  7.910192e+00    2.915492e+00
  7.926068e+00    2.931314e+00
  7.941943e+00    2.872707e+00
  7.957819e+00    2.809021e+00
  7.973694e+00    2.935014e+00
  7.989570e+00    2.943260e+00
  8.005446e+00    2.907110e+00
  8.021321e+00    2.901151e+00
  8.037197e+00    2.916039e+00
  8.053072e+00    2.837175e+00
  8.068948e+00    2.870939e+00
  8.084823e+00    2.872503e+00
  8.100699e+00    2.847285e+00
  8.116575e+00    2.889559e+00
  8.132450e+00    2.901038e+00
  8.148326e+00    2.914845e+00
  8.164201e+00    2.903256e+00
  8.180077e+00    2.952615e+00
  8.195952e+00    2.962586e+00
  8.211828e+00    2.968647e+00
  8.227704e+00    2.913340e+00
  8.243579e+00    2.936941e+00
  8.259455e+00    2.948576e+00
  8.275330e+00    2.864908e+00
  8.291206e+00    2.839679e+00
  8.307081e+00    2.861398e+00
  8.322957e+00    2.880215e+00
  8.338833e+00    2.866241e+00
  8.354708e+00    2.819650e+00
  8.370584e+00    2.906542e+00
  8.386459e+00    2.851644e+00
  8.402335e+00    2.893816e+00
  8.418210e+00    2.821280e+00
  8.434086e+00    2.826172e+00
  8.449962e+00    2.814676e+00
  8.465837e+00    2.834395e+00
  8.481713e+00    2.851414e+00
  8.497588e+00    2.832574e+00
  8.513464e+00    2.893803e+00
  8.529339e+00    2.875089e+00
  8.545215e+00    2.892740e+00
  8.561091e+00    2.878152e+00
  8.576966e+00    2.821573e+00
  8.592842e+00    2.772292e+00
  8.608717e+00    2.817841e+00
  8.624593e+00    2.812378e+00
  8.640468e+00    2.824004e+00
  8.656344e+00    2.816962e+00
  8.672220e+00    2.823027e+00
  8.688095e+00    2.849791e+00
  8.703971e+00    2.812033e+00
  8.719846e+00    2.820981e+00
  8.735722e+00    2.849600e+00
  8.751598e+00    2.806030e+00
  8.767473e+00    2.781202e+00
  8.783349e+00    2.782615e+00
  8.799224e+00    2.763985e+00
  8.815100e+00    2.750413e+00
  8.830975e+00    2.792191e+00
  8.846851e+00    2.818682e+00
  8.862727e+00    2.864903e+00
  8.878602e+00    2.817164e+00
  8.894478e+00    2.786489e+00
  8.910353e+00    2.799251e+00
  8.926229e+00    2.804466e+00
  8.942104e+00    2.837976e+00
  8.957980e+00    2.828381e+00
  8.973856e+00    2.788321e+00
  8.989731e+00    2.764913e+00
  9.005607e+00    2.773751e+00
  9.021482e+00    2.763640e+00
  9.037358e+00    2.772606e+00
  9.053233e+00    2.737465e+00
  9.069109e+00    2.789877e+00
  9.084985e+00    2.793255e+00
  9.100860e+00    2.762070e+00
  9.116736e+00    2.742266e+00
  9.132611e+00    2.792043e+00
  9.148487e+00    2.806527e+00
  9.164362e+00    2.747964e+00
  9.180238e+00    2.756357e+00
  9.196114e+00    2.768458e+00
  9.211989e+00    2.758087e+00
  9.227865e+00    2.735498e+00
  9.243740e+00    2.731877e+00
  9.259616e+00    2.781949e+00
  9.275491e+00    2.691546e+00
  9.291367e+00    2.713576e+00
  9.307243e+00    2.739902e+00
  9.323118e+00    2.704918e+00
  9.338994e+00    2.706076e+00
  9.354869e+00    2.718107e+00
  9.370745e+00    2.722410e+00
  9.386620e+00    2.771388e+00
  9.402496e+00    2.776071e+00
  9.418372e+00    2.768749e+00
  9.434247e+00    2.781424e+00
  9.450123e+00    2.692052e+00
  9.465998e+00    2.687560e+00
  9.481874e+00    2.702255e+00
  9.497749e+00    2.725597e+00
  9.513625e+00    2.674738e+00
  9.529501e+00    2.698359e+00
  9.545376e+00    2.701392e+00
  9.561252e+00    2.723204e+00
  9.577127e+00    2.726566e+00
  9.593003e+00    2.716289e+00
  9.608878e+00    2.739899e+00
  9.624754e+00    2.763008e+00
  9.640630e+00    2.676942e+00
  9.656505e+00    2.677931e+00
  9.672381e+00    2.695955e+00
  9.688256e+00    2.681450e+00
  9.704132e+00    2.725889e+00
  9.720008e+00    2.739743e+00
  9.735883e+00    2.749106e+00
  9.751759e+00    2.725897e+00
  9.767634e+00    2.683198e+00
  9.783510e+00    2.676295e+00
  9.799385e+00    2.662894e+00
  9.815261e+00    2.648843e+00
  9.831137e+00    2.677689e+00
  9.847012e+00    2.707245e+00
  9.862888e+00    2.666174e+00
  9.878763e+00    2.641888e+00
  9.894639e+00    2.632273e+00
  9.910514e+00    2.619649e+00
  9.926390e+00    2.603668e+00
  9.942266e+00    2.663696e+00
  9.958141e+00    2.651547e+00
  9.974017e+00    2.639722e+00
  9.989892e+00    2.600184e+00
  1.000577e+01    2.580221e+00
  1.002164e+01    2.603252e+00
  1.003752e+01    2.589379e+00
  1.005339e+01    2.659086e+00
  1.006927e+01    2.656798e+00
  1.008515e+01    2.640139e+00
  1.010102e+01    2.610668e+00
  1.011690e+01    2.630630e+00
  1.013277e+01    2.674688e+00
  1.014865e+01    2.684836e+00
  1.016452e+01    2.664154e+00
  1.018040e+01    2.651427e+00
  1.019627e+01    2.619736e+00
  1.021215e+01    2.644317e+00
  1.022803e+01    2.565983e+00
  1.024390e+01    2.613820e+00
  1.025978e+01    2.641877e+00
  1.027565e+01    2.604152e+00
  1.029153e+01    2.628604e+00
  1.030740e+01    2.635167e+00
  1.032328e+01    2.579405e+00
  1.033915e+01    2.569535e+00
  1.035503e+01    2.609053e+00
  1.037091e+01    2.621162e+00
  1.038678e+01    2.616020e+00
  1.040266e+01    2.585660e+00
  1.041853e+01    2.638699e+00
  1.043441e+01    2.604942e+00
  1.045028e+01    2.566724e+00
  1.046616e+01    2.604545e+00
  1.048204e+01    2.634428e+00
  1.049791e+01    2.592370e+00
  1.051379e+01    2.549072e+00
  1.052966e+01    2.566524e+00
  1.054554e+01    2.574677e+00
  1.056141e+01    2.563137e+00
  1.057729e+01    2.572889e+00
  1.059316e+01    2.581388e+00
  1.060904e+01    2.519972e+00
  1.062492e+01    2.522681e+00
  1.064079e+01    2.511718e+00
  1.065667e+01    2.521409e+00
  1.067254e+01    2.512290e+00
  1.068842e+01    2.504612e+00
  1.070429e+01    2.510823e+00
  1.072017e+01    2.517715e+00
  1.073604e+01    2.501069e+00
  1.075192e+01    2.550406e+00
  1.076780e+01    2.496367e+00
  1.078367e+01    2.477512e+00
  1.079955e+01    2.512846e+00
  1.081542e+01    2.504067e+00
  1.083130e+01    2.462714e+00
  1.084717e+01    2.464355e+00
  1.086305e+01    2.414270e+00
  1.087892e+01    2.437118e+00
  1.089480e+01    2.463913e+00
  1.091068e+01    2.508857e+00
  1.092655e+01    2.494160e+00
  1.094243e+01    2.470217e+00
  1.095830e+01    2.510781e+00
  1.097418e+01    2.479404e+00
  1.099005e+01    2.487106e+00
  1.100593e+01    2.480081e+00
  1.102180e+01    2.430874e+00
  1.103768e+01    2.401823e+00
  1.105356e+01    2.429965e+00
  1.106943e+01    2.481896e+00
  1.108531e+01    2.491266e+00
  1.110118e+01    2.445531e+00
  1.111706e+01    2.452063e+00
  1.113293e+01    2.411623e+00
  1.114881e+01    2.417531e+00
  1.116468e+01    2.465886e+00
  1.118056e+01    2.427320e+00
  1.119644e+01    2.425297e+00
  1.121231e+01    2.409320e+00
  1.122819e+01    2.436023e+00
  1.124406e+01    2.436170e+00
  1.125994e+01    2.448122e+00
  1.127581e+01    2.422285e+00
  1.129169e+01    2.395199e+00
  1.130756e+01    2.422474e+00
  1.132344e+01    2.409773e+00
  1.133932e+01    2.391102e+00
  1.135519e+01    2.421191e+00
  1.137107e+01    2.445741e+00
  1.138694e+01    2.430998e+00
  1.140282e+01    2.406288e+00
  1.141869e+01    2.424047e+00
  1.143457e+01    2.392653e+00
  1.145045e+01    2.373537e+00
  1.146632e+01    2.367934e+00
  1.148220e+01    2.388917e+00
  1.149807e+01    2.357717e+00
  1.151395e+01    2.364107e+00
  1.152982e+01    2.397862e+00
  1.154570e+01    2.367869e+00
  1.156157e+01    2.375974e+00
  1.157745e+01    2.360267e+00
  1.159333e+01    2.354029e+00
  1.160920e+01    2.309738e+00
  1.162508e+01    2.394171e+00
  1.164095e+01    2.371478e+00
  1.165683e+01    2.342966e+00
  1.167270e+01    2.386624e+00
  1.168858e+01    2.342710e+00
  1.170445e+01    2.370922e+00
  1.172033e+01    2.372448e+00
  1.173621e+01    2.342715e+00
  1.175208e+01    2.314924e+00
  1.176796e+01    2.313440e+00
  1.178383e+01    2.299374e+00
  1.179971e+01    2.288823e+00
  1.181558e+01    2.313633e+00
  1.183146e+01    2.340037e+00
  1.184733e+01    2.313544e+00
  1.186321e+01    2.324857e+00
  1.187909e+01    2.346518e+00
  1.189496e+01    2.354541e+00
  1.191084e+01    2.359710e+00
  1.192671e+01    2.324338e+00
  1.194259e+01    2.265430e+00
  1.195846e+01    2.275732e+00
  1.197434e+01    2.326113e+00
  1.199021e+01    2.316560e+00
  1.200609e+01    2.314427e+00
  1.202197e+01    2.301568e+00
  1.203784e+01    2.328603e+00
  1.205372e+01    2.309114e+00
  1.206959e+01    2.307292e+00
  1.208547e+01    2.306929e+00
  1.210134e+01    2.332887e+00
  1.211722e+01    2.301037e+00
  1.213309e+01    2.270594e+00
  1.214897e+01    2.289090e+00
  1.216485e+01    2.303737e+00
  1.218072e+01    2.317172e+00
  1.219660e+01    2.335587e+00
  1.221247e+01    2.290183e+00
  1.222835e+01    2.275742e+00
  1.224422e+01    2.288799e+00
  1.226010e+01    2.277802e+00
  1.227597e+01    2.288214e+00
  1.229185e+01    2.293608e+00
  1.230773e+01    2.268788e+00
  1.232360e+01    2.271428e+00
  1.233948e+01    2.300737e+00
  1.235535e+01    2.297116e+00
  1.237123e+01    2.320984e+00
  1.238710e+01    2.276250e+00
  1.240298e+01    2.293006e+00
  1.241886e+01    2.323747e+00
  1.243473e+01    2.270508e+00
  1.245061e+01    2.307933e+00
  1.246648e+01    2.339223e+00
  1.248236e+01    2.316431e+00
  1.249823e+01    2.260713e+00
  1.251411e+01    2.278591e+00
  1.252998e+01    2.348267e+00
  1.254586e+01    2.314082e+00
  1.256174e+01    2.337008e+00
  1.257761e+01    2.320690e+00
  1.259349e+01    2.353164e+00
  1.260936e+01    2.367706e+00
  1.262524e+01    2.386734e+00
  1.264111e+01    2.386612e+00
  1.265699e+01    2.358700e+00
  1.267286e+01    2.382061e+00
  1.268874e+01    2.395320e+00
  1.270462e+01    2.411635e+00
  1.272049e+01    2.461058e+00
  1.273637e+01    2.485650e+00
  1.275224e+01    2.526935e+00
  1.276812e+01    2.575156e+00
  1.278399e+01    2.559914e+00
  1.279987e+01    2.610595e+00
  1.281574e+01    2.650087e+00
  1.283162e+01    2.713345e+00
  1.284750e+01    2.828754e+00
  1.286337e+01    2.911440e+00
  1.287925e+01    3.032926e+00
  1.289512e+01    3.131813e+00
  1.291100e+01    3.267256e+00
  1.292687e+01    3.428070e+00
  1.294275e+01    3.643508e+00
  1.295862e+01    3.962231e+00
  1.297450e+01    4.316613e+00
  1.299038e+01    4.727905e+00
  1.300625e+01    5.273307e+00
  1.302213e+01    5.987969e+00
  1.303800e+01    6.903802e+00
  1.305388e+01    7.973564e+00
  1.306975e+01    9.214830e+00
  1.308563e+01    1.060525e+01
  1.310150e+01    1.208097e+01
  1.311738e+01    1.338256e+01
  1.313326e+01    1.462196e+01
  1.314913e+01    1.584589e+01
  1.316501e+01    1.704043e+01
  1.318088e+01    1.780369e+01
  1.319676e+01    1.773359e+01
  1.321263e+01    1.694011e+01
  1.322851e+01    1.522742e+01
  1.324438e+01    1.310785e+01
  1.326026e+01    1.107851e+01
  1.327614e+01    9.269629e+00
  1.329201e+01    7.840632e+00
  1.330789e+01    6.660941e+00
  1.332376e+01    5.774123e+00
  1.333964e+01    5.146860e+00
  1.335551e+01    4.657630e+00
  1.337139e+01    4.195496e+00
  1.338727e+01    3.893808e+00
  1.340314e+01    3.598436e+00
  1.341902e+01    3.368925e+00
  1.343489e+01    3.144229e+00
  1.345077e+01    3.055358e+00
  1.346664e+01    2.923258e+00
  1.348252e+01    2.816528e+00
  1.349839e+01    2.739750e+00
  1.351427e+01    2.661445e+00
  1.353015e+01    2.585404e+00
  1.354602e+01    2.590726e+00
  1.356190e+01    2.561238e+00
  1.357777e+01    2.487963e+00
  1.359365e+01    2.444852e+00
  1.360952e+01    2.406781e+00
  1.362540e+01    2.335507e+00
  1.364127e+01    2.307248e+00
  1.365715e+01    2.298014e+00
  1.367303e+01    2.255718e+00
  1.368890e+01    2.239515e+00
  1.370478e+01    2.228262e+00
  1.372065e+01    2.231352e+00
  1.373653e+01    2.203540e+00
  1.375240e+01    2.194198e+00
  1.376828e+01    2.201443e+00
  1.378415e+01    2.135547e+00
  1.380003e+01    2.138191e+00
  1.381591e+01    2.172010e+00
  1.383178e+01    2.168716e+00
  1.384766e+01    2.126114e+00
  1.386353e+01    2.112962e+00
  1.387941e+01    2.104423e+00
  1.389528e+01    2.049905e+00
  1.391116e+01    2.009753e+00
  1.392703e+01    2.054851e+00
  1.394291e+01    2.089861e+00
  1.395879e+01    2.081180e+00
  1.397466e+01    2.032895e+00
  1.399054e+01    2.000325e+00
  1.400641e+01    2.070535e+00
  1.402229e+01    2.105364e+00
  1.403816e+01    2.036097e+00
  1.405404e+01    2.011700e+00
  1.406991e+01    1.991872e+00
  1.408579e+01    1.959811e+00
  1.410167e+01    2.014683e+00
  1.411754e+01    1.983529e+00
  1.413342e+01    1.976147e+00
  1.414929e+01    1.982098e+00
  1.416517e+01    1.978034e+00
  1.418104e+01    1.983618e+00
  1.419692e+01    1.965314e+00
  1.421279e+01    1.959659e+00
  1.422867e+01    1.945155e+00
  1.424455e+01    1.951655e+00
  1.426042e+01    1.942652e+00
  1.427630e+01    1.945357e+00
  1.429217e+01    1.939225e+00
  1.430805e+01    1.963036e+00
  1.432392e+01    1.959474e+00
  1.433980e+01    1.946470e+00
  1.435568e+01    1.938967e+00
  1.437155e+01    1.906932e+00
  1.438743e+01    1.927488e+00
  1.440330e+01    1.892626e+00
  1.441918e+01    1.918833e+00
  1.443505e+01    1.921651e+00
  1.445093e+01    1.915933e+00
  1.446680e+01    1.901658e+00
  1.448268e+01    1.892172e+00
  1.449856e+01    1.889411e+00
  1.451443e+01    1.911903e+00
  1.453031e+01    1.911498e+00
  1.454618e+01    1.925470e+00
  1.456206e+01    1.926209e+00
  1.457793e+01    1.893766e+00
  1.459381e+01    1.908013e+00
  1.460968e+01    1.913665e+00
  1.462556e+01    1.910299e+00
  1.464144e+01    1.888993e+00
  1.465731e+01    1.908266e+00
  1.467319e+01    1.911223e+00
  1.468906e+01    1.884697e+00
  1.470494e+01    1.846805e+00
  1.472081e+01    1.880551e+00
  1.473669e+01    1.897073e+00
  1.475256e+01    1.889475e+00
  1.476844e+01    1.894098e+00
  1.478432e+01    1.908079e+00
  1.480019e+01    1.919769e+00
  1.481607e+01    1.942827e+00
  1.483194e+01    1.941490e+00
  1.484782e+01    1.939662e+00
  1.486369e+01    1.945748e+00
  1.487957e+01    1.940847e+00
  1.489544e+01    1.950663e+00
  1.491132e+01    1.939195e+00
  1.492720e+01    1.980140e+00
  1.494307e+01    1.976947e+00
  1.495895e+01    1.983077e+00
  1.497482e+01    2.055961e+00
  1.499070e+01    2.055480e+00
  1.500657e+01    2.110062e+00
  1.502245e+01    2.153732e+00
  1.503832e+01    2.220090e+00
  1.505420e+01    2.371966e+00
  1.507008e+01    2.476602e+00
  1.508595e+01    2.637040e+00
  1.510183e+01    2.810056e+00
  1.511770e+01    3.042681e+00
  1.513358e+01    3.279463e+00
  1.514945e+01    3.625571e+00
  1.516533e+01    4.059251e+00
  1.518120e+01    4.499527e+00
  1.519708e+01    4.832370e+00
  1.521296e+01    5.216459e+00
  1.522883e+01    5.509861e+00
  1.524471e+01    5.791310e+00
  1.526058e+01    5.965405e+00
  1.527646e+01    6.037634e+00
  1.529233e+01    5.954411e+00
  1.530821e+01    5.715230e+00
  1.532409e+01    5.235672e+00
  1.533996e+01    4.700603e+00
  1.535584e+01    4.137566e+00
  1.537171e+01    3.675471e+00
  1.538759e+01    3.265235e+00
  1.540346e+01    2.931886e+00
  1.541934e+01    2.719354e+00
  1.543521e+01    2.538944e+00
  1.545109e+01    2.410610e+00
  1.546697e+01    2.266783e+00
  1.548284e+01    2.166752e+00
  1.549872e+01    2.085385e+00
  1.551459e+01    2.061312e+00
  1.553047e+01    2.010161e+00
  1.554634e+01    1.947053e+00
  1.556222e+01    1.917734e+00
  1.557809e+01    1.856813e+00
  1.559397e+01    1.836801e+00
  1.560985e+01    1.810070e+00
  1.562572e+01    1.778202e+00
  1.564160e+01    1.745841e+00
  1.565747e+01    1.749382e+00
  1.567335e+01    1.761764e+00
  1.568922e+01    1.786274e+00
  1.570510e+01    1.729071e+00
  1.572097e+01    1.679594e+00
  1.573685e+01    1.690788e+00
  1.575273e+01    1.688449e+00
  1.576860e+01    1.687361e+00
  1.578448e+01    1.710188e+00
  1.580035e+01    1.628956e+00
  1.581623e+01    1.624721e+00
  1.583210e+01    1.610137e+00
  1.584798e+01    1.636555e+00
  1.586385e+01    1.610990e+00
  1.587973e+01    1.614787e+00
  1.589561e+01    1.629388e+00
  1.591148e+01    1.634630e+00
  1.592736e+01    1.639741e+00
  1.594323e+01    1.608580e+00
  1.595911e+01    1.601303e+00
  1.597498e+01    1.571732e+00
  1.599086e+01    1.595727e+00
  1.600673e+01    1.621051e+00
  1.602261e+01    1.597416e+00
  1.603849e+01    1.577181e+00
  1.605436e+01    1.569630e+00
  1.607024e+01    1.587107e+00
  1.608611e+01    1.602071e+00
  1.610199e+01    1.572863e+00
  1.611786e+01    1.566342e+00
  1.613374e+01    1.569486e+00
  1.614961e+01    1.576662e+00
  1.616549e+01    1.568408e+00
  1.618137e+01    1.506108e+00
  1.619724e+01    1.523686e+00
  1.621312e+01    1.551389e+00
  1.622899e+01    1.586315e+00
  1.624487e+01    1.590209e+00
  1.626074e+01    1.500601e+00
  1.627662e+01    1.514933e+00
  1.629250e+01    1.543936e+00
  1.630837e+01    1.544368e+00
  1.632425e+01    1.540949e+00
  1.634012e+01    1.502316e+00
  1.635600e+01    1.499151e+00
  1.637187e+01    1.520876e+00
  1.638775e+01    1.515765e+00
  1.640362e+01    1.533309e+00
  1.641950e+01    1.535737e+00
  1.643538e+01    1.500406e+00
  1.645125e+01    1.472153e+00
  1.646713e+01    1.497530e+00
  1.648300e+01    1.514910e+00
  1.649888e+01    1.502058e+00
  1.651475e+01    1.478135e+00
  1.653063e+01    1.490119e+00
  1.654650e+01    1.483027e+00
  1.656238e+01    1.491892e+00
  1.657826e+01    1.459881e+00
  1.659413e+01    1.469508e+00
  1.661001e+01    1.499599e+00
  1.662588e+01    1.463574e+00
  1.664176e+01    1.472841e+00
  1.665763e+01    1.481632e+00
  1.667351e+01    1.497549e+00
  1.668938e+01    1.474234e+00
  1.670526e+01    1.486981e+00
  1.672114e+01    1.462965e+00
  1.673701e+01    1.457075e+00
  1.675289e+01    1.436914e+00
  1.676876e+01    1.452428e+00
  1.678464e+01    1.445749e+00
  1.680051e+01    1.451526e+00
  1.681639e+01    1.442443e+00
  1.683226e+01    1.438061e+00
  1.684814e+01    1.442750e+00
  1.686402e+01    1.449659e+00
  1.687989e+01    1.409815e+00
  1.689577e+01    1.437709e+00
  1.691164e+01    1.436238e+00
  1.692752e+01    1.451990e+00
  1.694339e+01    1.430519e+00
  1.695927e+01    1.441153e+00
  1.697514e+01    1.419484e+00
  1.699102e+01    1.418366e+00
  1.700690e+01    1.445637e+00
  1.702277e+01    1.429957e+00
  1.703865e+01    1.408357e+00
  1.705452e+01    1.398493e+00
  1.707040e+01    1.424959e+00
  1.708627e+01    1.407483e+00
  1.710215e+01    1.403065e+00
  1.711802e+01    1.375266e+00
  1.713390e+01    1.389106e+00
  1.714978e+01    1.410379e+00
  1.716565e+01    1.387624e+00
  1.718153e+01    1.383457e+00
  1.719740e+01    1.386294e+00
  1.721328e+01    1.367420e+00
  1.722915e+01    1.363981e+00
  1.724503e+01    1.355519e+00
  1.726091e+01    1.391906e+00
  1.727678e+01    1.389896e+00
  1.729266e+01    1.368534e+00
  1.730853e+01    1.388036e+00
  1.732441e+01    1.367069e+00
  1.734028e+01    1.376984e+00
  1.735616e+01    1.348338e+00
  1.737203e+01    1.346487e+00
  1.738791e+01    1.379568e+00
  1.740379e+01    1.370897e+00
  1.741966e+01    1.358118e+00
  1.743554e+01    1.352492e+00
  1.745141e+01    1.345671e+00
  1.746729e+01    1.373122e+00
  1.748316e+01    1.371541e+00
  1.749904e+01    1.344643e+00
  1.751491e+01    1.348887e+00
  1.753079e+01    1.341817e+00
  1.754667e+01    1.363102e+00
  1.756254e+01    1.357690e+00
  1.757842e+01    1.356941e+00
  1.759429e+01    1.351876e+00
  1.761017e+01    1.323050e+00
  1.762604e+01    1.350752e+00
  1.764192e+01    1.331453e+00
  1.765779e+01    1.347203e+00
  1.767367e+01    1.336614e+00
  1.768955e+01    1.311071e+00
  1.770542e+01    1.305118e+00
  1.772130e+01    1.334369e+00
  1.773717e+01    1.324917e+00
  1.775305e+01    1.309734e+00
  1.776892e+01    1.324252e+00
  1.778480e+01    1.324132e+00
  1.780067e+01    1.326576e+00
  1.781655e+01    1.304723e+00
  1.783243e+01    1.318778e+00
  1.784830e+01    1.321991e+00
  1.786418e+01    1.297650e+00
  1.788005e+01    1.274653e+00
  1.789593e+01    1.261237e+00
  1.791180e+01    1.277255e+00
  1.792768e+01    1.294624e+00
  1.794355e+01    1.308125e+00
  1.795943e+01    1.291845e+00
  1.797531e+01    1.285265e+00
  1.799118e+01    1.285394e+00
  1.800706e+01    1.275559e+00
  1.802293e+01    1.288800e+00
  1.803881e+01    1.292211e+00
  1.805468e+01    1.282021e+00
  1.807056e+01    1.278085e+00
  1.808643e+01    1.303336e+00
  1.810231e+01    1.297667e+00
  1.811819e+01    1.288329e+00
  1.813406e+01    1.292200e+00
  1.814994e+01    1.252590e+00
  1.816581e+01    1.257354e+00
  1.818169e+01    1.251577e+00
  1.819756e+01    1.252220e+00
  1.821344e+01    1.258907e+00
  1.822932e+01    1.257855e+00
  1.824519e+01    1.269995e+00
  1.826107e+01    1.266252e+00
  1.827694e+01    1.280700e+00
  1.829282e+01    1.275574e+00
  1.830869e+01    1.258403e+00
  1.832457e+01    1.251643e+00
  1.834044e+01    1.245924e+00
  1.835632e+01    1.253980e+00
  1.837220e+01    1.251232e+00
  1.838807e+01    1.245076e+00
  1.840395e+01    1.265352e+00
  1.841982e+01    1.277656e+00
  1.843570e+01    1.252749e+00
  1.845157e+01    1.249171e+00
  1.846745e+01    1.235166e+00
  1.848332e+01    1.237647e+00
  1.849920e+01    1.245175e+00
  1.851508e+01    1.222615e+00
  1.853095e+01    1.237650e+00
  1.854683e+01    1.233901e+00
  1.856270e+01    1.236668e+00
  1.857858e+01    1.231756e+00
  1.859445e+01    1.193555e+00
  1.861033e+01    1.211538e+00
  1.862620e+01    1.231033e+00
  1.864208e+01    1.243505e+00
  1.865796e+01    1.258104e+00
  1.867383e+01    1.227157e+00
  1.868971e+01    1.228397e+00
  1.870558e+01    1.247746e+00
  1.872146e+01    1.217427e+00
  1.873733e+01    1.227968e+00
  1.875321e+01    1.217608e+00
  1.876908e+01    1.210469e+00
  1.878496e+01    1.211619e+00
  1.880084e+01    1.187828e+00
  1.881671e+01    1.183307e+00
  1.883259e+01    1.164312e+00
  1.884846e+01    1.184727e+00
  1.886434e+01    1.210252e+00
  1.888021e+01    1.215117e+00
  1.889609e+01    1.215420e+00
  1.891196e+01    1.201219e+00
  1.892784e+01    1.191091e+00
  1.894372e+01    1.182352e+00
  1.895959e+01    1.190428e+00
  1.897547e+01    1.175628e+00
  1.899134e+01    1.178866e+00
  1.900722e+01    1.186560e+00
  1.902309e+01    1.207258e+00
  1.903897e+01    1.193964e+00
  1.905484e+01    1.218166e+00
  1.907072e+01    1.205397e+00
  1.908660e+01    1.177135e+00
  1.910247e+01    1.189861e+00
  1.911835e+01    1.196563e+00
  1.913422e+01    1.173522e+00
  1.915010e+01    1.175230e+00
  1.916597e+01    1.171826e+00
  1.918185e+01    1.173263e+00
  1.919773e+01    1.173724e+00
  1.921360e+01    1.170969e+00
  1.922948e+01    1.178036e+00
  1.924535e+01    1.207430e+00
  1.926123e+01    1.183910e+00
  1.927710e+01    1.187924e+00
  1.929298e+01    1.182502e+00
  1.930885e+01    1.177837e+00
  1.932473e+01    1.147937e+00
  1.934061e+01    1.157117e+00
  1.935648e+01    1.158751e+00
  1.937236e+01    1.174562e+00
  1.938823e+01    1.175341e+00
  1.940411e+01    1.180315e+00
  1.941998e+01    1.167212e+00
  1.943586e+01    1.139028e+00
  1.945173e+01    1.156150e+00
  1.946761e+01    1.160399e+00
  1.948349e+01    1.178381e+00
  1.949936e+01    1.160479e+00
  1.951524e+01    1.140203e+00
  1.953111e+01    1.151263e+00
  1.954699e+01    1.163944e+00
  1.956286e+01    1.134428e+00
  1.957874e+01    1.118628e+00
  1.959461e+01    1.144448e+00
  1.961049e+01    1.149867e+00
  1.962637e+01    1.157138e+00
  1.964224e+01    1.154946e+00
  1.965812e+01    1.140632e+00
  1.967399e+01    1.136604e+00
  1.968987e+01    1.123766e+00
  1.970574e+01    1.126191e+00
  1.972162e+01    1.112082e+00
  1.973749e+01    1.133066e+00
  1.975337e+01    1.124854e+00
  1.976925e+01    1.131970e+00
  1.978512e+01    1.156591e+00
  1.980100e+01    1.129511e+00
  1.981687e+01    1.110560e+00
  1.983275e+01    1.118260e+00
  1.984862e+01    1.099281e+00
  1.986450e+01    1.116634e+00
  1.988037e+01    1.120366e+00
  1.989625e+01    1.121709e+00
  1.991213e+01    1.127735e+00
  1.992800e+01    1.144431e+00
  1.994388e+01    1.123755e+00
  1.995975e+01    1.106887e+00
  1.997563e+01    1.107694e+00
  1.999150e+01    1.106260e+00
  2.000738e+01    1.107896e+00
  2.002325e+01    1.110236e+00
  2.003913e+01    1.114640e+00
  2.005501e+01    1.101824e+00
  2.007088e+01    1.074869e+00
  2.008676e+01    1.102617e+00
  2.010263e+01    1.091659e+00
  2.011851e+01    1.100665e+00
  2.013438e+01    1.084734e+00
  2.015026e+01    1.092875e+00
  2.016614e+01    1.118409e+00
  2.018201e+01    1.104956e+00
  2.019789e+01    1.087310e+00
  2.021376e+01    1.111569e+00
  2.022964e+01    1.111499e+00
  2.024551e+01    1.082781e+00
  2.026139e+01    1.088637e+00
  2.027726e+01    1.060475e+00
  2.029314e+01    1.082958e+00
  2.030902e+01    1.104661e+00
  2.032489e+01    1.107535e+00
  2.034077e+01    1.106712e+00
  2.035664e+01    1.100875e+00
  2.037252e+01    1.077544e+00
  2.038839e+01    1.061542e+00
  2.040427e+01    1.095136e+00
  2.042014e+01    1.082880e+00
  2.043602e+01    1.087005e+00
  2.045190e+01    1.088779e+00
  2.046777e+01    1.086809e+00
  2.048365e+01    1.089259e+00
  2.049952e+01    1.077582e+00
  2.051540e+01    1.081978e+00
  2.053127e+01    1.088888e+00
  2.054715e+01    1.085357e+00
  2.056302e+01    1.092930e+00
  2.057890e+01    1.107756e+00
  2.059478e+01    1.075632e+00
  2.061065e+01    1.070985e+00
  2.062653e+01    1.076808e+00
  2.064240e+01    1.093672e+00
  2.065828e+01    1.101570e+00
  2.067415e+01    1.065584e+00
  2.069003e+01    1.066191e+00
  2.070590e+01    1.087004e+00
  2.072178e+01    1.069431e+00
  2.073766e+01    1.074618e+00
  2.075353e+01    1.053857e+00
  2.076941e+01    1.076629e+00
  2.078528e+01    1.051938e+00
  2.080116e+01    1.046914e+00
  2.081703e+01    1.077299e+00
  2.083291e+01    1.070409e+00
  2.084878e+01    1.071445e+00
  2.086466e+01    1.062494e+00
  2.088054e+01    1.061037e+00
  2.089641e+01    1.077753e+00
  2.091229e+01    1.078296e+00
  2.092816e+01    1.077280e+00
  2.094404e+01    1.070799e+00
  2.095991e+01    1.078048e+00
  2.097579e+01    1.063818e+00
  2.099166e+01    1.049675e+00
  2.100754e+01    1.040954e+00
  2.102342e+01    1.067835e+00
  2.103929e+01    1.051486e+00
  2.105517e+01    1.059590e+00
  2.107104e+01    1.067411e+00
  2.108692e+01    1.075356e+00
  2.110279e+01    1.079002e+00
  2.111867e+01    1.063437e+00
  2.113455e+01    1.062259e+00
  2.115042e+01    1.078757e+00
  2.116630e+01    1.095088e+00
  2.118217e+01    1.076492e+00
  2.119805e+01    1.085321e+00
  2.121392e+01    1.081502e+00
  2.122980e+01    1.066806e+00
  2.124567e+01    1.089301e+00
  2.126155e+01    1.098792e+00
  2.127743e+01    1.124816e+00
  2.129330e+01    1.127879e+00
  2.130918e+01    1.122328e+00
  2.132505e+01    1.134468e+00
  2.134093e+01    1.142437e+00
  2.135680e+01    1.126914e+00
  2.137268e+01    1.129177e+00
  2.138855e+01    1.115086e+00
  2.140443e+01    1.125922e+00
  2.142031e+01    1.166256e+00
  2.143618e+01    1.194471e+00
  2.145206e+01    1.218528e+00
  2.146793e+01    1.241727e+00
  2.148381e+01    1.245380e+00
  2.149968e+01    1.254785e+00
  2.151556e+01    1.284374e+00
  2.153143e+01    1.281401e+00
  2.154731e+01    1.336215e+00
  2.156319e+01    1.415157e+00
  2.157906e+01    1.438582e+00
  2.159494e+01    1.485168e+00
  2.161081e+01    1.568345e+00
  2.162669e+01    1.656534e+00
  2.164256e+01    1.765280e+00
  2.165844e+01    1.870208e+00
  2.167431e+01    2.006535e+00
  2.169019e+01    2.221947e+00
  2.170607e+01    2.438169e+00
  2.172194e+01    2.693641e+00
  2.173782e+01    3.070357e+00
  2.175369e+01    3.542395e+00
  2.176957e+01    4.022607e+00
  2.178544e+01    4.595076e+00
  2.180132e+01    5.249042e+00
  2.181719e+01    5.974125e+00
  2.183307e+01    6.701364e+00
  2.184895e+01    7.458782e+00
  2.186482e+01    8.270510e+00
  2.188070e+01    9.011932e+00
  2.189657e+01    9.532200e+00
  2.191245e+01    9.796676e+00
  2.192832e+01    9.654631e+00
  2.194420e+01    9.166982e+00
  2.196007e+01    8.306717e+00
  2.197595e+01    7.280766e+00
  2.199183e+01    6.250906e+00
  2.200770e+01    5.223379e+00
  2.202358e+01    4.424178e+00
  2.203945e+01    3.804000e+00
  2.205533e+01    3.279922e+00
  2.207120e+01    2.875801e+00
  2.208708e+01    2.591216e+00
  2.210296e+01    2.318982e+00
  2.211883e+01    2.118124e+00
  2.213471e+01    1.931036e+00
  2.215058e+01    1.837152e+00
  2.216646e+01    1.713650e+00
  2.218233e+01    1.588118e+00
  2.219821e+01    1.508048e+00
  2.221408e+01    1.436723e+00
  2.222996e+01    1.372982e+00
  2.224584e+01    1.335927e+00
  2.226171e+01    1.304472e+00
  2.227759e+01    1.258244e+00
  2.229346e+01    1.238010e+00
  2.230934e+01    1.209245e+00
  2.232521e+01    1.197045e+00
  2.234109e+01    1.171232e+00
  2.235696e+01    1.150175e+00
  2.237284e+01    1.124448e+00
  2.238872e+01    1.097140e+00
  2.240459e+01    1.079539e+00
  2.242047e+01    1.058142e+00
  2.243634e+01    1.071353e+00
  2.245222e+01    1.070159e+00
  2.246809e+01    1.058231e+00
  2.248397e+01    1.068453e+00
  2.249984e+01    1.054726e+00
  2.251572e+01    1.022111e+00
  2.253160e+01    1.013086e+00
  2.254747e+01    1.006056e+00
  2.256335e+01    1.001899e+00
  2.257922e+01    9.895557e-01
  2.259510e+01    9.906061e-01
  2.261097e+01    9.912510e-01
  2.262685e+01    9.624612e-01
  2.264272e+01    9.448695e-01
  2.265860e+01    9.577937e-01
  2.267448e+01    9.511015e-01
  2.269035e+01    9.520125e-01
  2.270623e+01    9.373066e-01
  2.272210e+01    9.251473e-01
  2.273798e+01    9.567510e-01
  2.275385e+01    9.482372e-01
  2.276973e+01    9.385316e-01
  2.278560e+01    9.351883e-01
  2.280148e+01    9.242778e-01
  2.281736e+01    9.011118e-01
  2.283323e+01    9.287853e-01
  2.284911e+01    9.019697e-01
  2.286498e+01    8.915366e-01
  2.288086e+01    9.012792e-01
  2.289673e+01    9.135285e-01
  2.291261e+01    8.966981e-01
  2.292848e+01    9.019225e-01
  2.294436e+01    9.038631e-01
  2.296024e+01    8.976998e-01
  2.297611e+01    9.014844e-01
  2.299199e+01    9.035909e-01
  2.300786e+01    8.796054e-01
  2.302374e+01    8.942645e-01
  2.303961e+01    8.978768e-01
  2.305549e+01    8.660642e-01
  2.307137e+01    8.704419e-01
  2.308724e+01    8.908659e-01
  2.310312e+01    8.889467e-01
  2.311899e+01    8.828617e-01
  2.313487e+01    8.708186e-01
  2.315074e+01    8.519590e-01
  2.316662e+01    8.663150e-01
  2.318249e+01    8.592498e-01
  2.319837e+01    8.768374e-01
  2.321425e+01    8.901095e-01
  2.323012e+01    8.650713e-01
  2.324600e+01    8.597460e-01
  2.326187e+01    8.643450e-01
  2.327775e+01    8.757097e-01
  2.329362e+01    8.755012e-01
  2.330950e+01    8.504999e-01
  2.332537e+01    8.620183e-01
  2.334125e+01    8.717728e-01
  2.335713e+01    8.540226e-01
  2.337300e+01    8.507342e-01
  2.338888e+01    8.508309e-01
  2.340475e+01    8.541252e-01
  2.342063e+01    8.519610e-01
  2.343650e+01    8.334004e-01
  2.345238e+01    8.412271e-01
  2.346825e+01    8.445635e-01
  2.348413e+01    8.426771e-01
  2.350001e+01    8.445175e-01
  2.351588e+01    8.323214e-01
  2.353176e+01    8.400935e-01
  2.354763e+01    8.505312e-01
  2.356351e+01    8.360447e-01
  2.357938e+01    8.340732e-01
  2.359526e+01    8.570848e-01
  2.361113e+01    8.609009e-01
  2.362701e+01    8.487387e-01
  2.364289e+01    8.210578e-01
  2.365876e+01    8.317121e-01
  2.367464e+01    8.327692e-01
  2.369051e+01    8.215497e-01
  2.370639e+01    8.062837e-01
  2.372226e+01    8.158148e-01
  2.373814e+01    8.374822e-01
  2.375401e+01    8.081326e-01
  2.376989e+01    8.054000e-01
  2.378577e+01    8.088224e-01
  2.380164e+01    8.145921e-01
  2.381752e+01    8.067894e-01
  2.383339e+01    8.133180e-01
  2.384927e+01    8.057642e-01
  2.386514e+01    8.144895e-01
  2.388102e+01    7.892150e-01
  2.389689e+01    7.723375e-01
  2.391277e+01    7.793720e-01
  2.392865e+01    7.868641e-01
  2.394452e+01    7.753754e-01
  2.396040e+01    7.876256e-01
  2.397627e+01    7.735599e-01
  2.399215e+01    7.846755e-01
  2.400802e+01    7.921846e-01
  2.402390e+01    7.982597e-01
  2.403978e+01    7.869049e-01
  2.405565e+01    7.653647e-01
  2.407153e+01    7.643462e-01
  2.408740e+01    7.792833e-01
  2.410328e+01    7.719358e-01
  2.411915e+01    7.584394e-01
  2.413503e+01    7.486997e-01
  2.415090e+01    7.397417e-01
  2.416678e+01    7.603061e-01
  2.418266e+01    7.632130e-01
  2.419853e+01    7.669205e-01
  2.421441e+01    7.684718e-01
  2.423028e+01    7.734933e-01
  2.424616e+01    7.822626e-01
  2.426203e+01    7.665091e-01
  2.427791e+01    7.691764e-01
  2.429378e+01    7.955998e-01
  2.430966e+01    7.974452e-01
  2.432554e+01    7.680547e-01
  2.434141e+01    7.923354e-01
  2.435729e+01    7.895972e-01
  2.437316e+01    7.778851e-01
  2.438904e+01    7.945573e-01
  2.440491e+01    7.901539e-01
  2.442079e+01    7.721706e-01
  2.443666e+01    7.799124e-01
  2.445254e+01    7.869695e-01
  2.446842e+01    7.754176e-01
  2.448429e+01    7.743407e-01
  2.450017e+01    7.726905e-01
  2.451604e+01    7.709495e-01
  2.453192e+01    7.674921e-01
  2.454779e+01    7.967064e-01
  2.456367e+01    7.972519e-01
  2.457954e+01    7.879134e-01
  2.459542e+01    7.904663e-01
  2.461130e+01    7.798485e-01
  2.462717e+01    7.565423e-01
  2.464305e+01    7.803084e-01
  2.465892e+01    7.976876e-01
  2.467480e+01    8.006594e-01
  2.469067e+01    7.752766e-01
  2.470655e+01    7.719480e-01
  2.472242e+01    7.642162e-01
  2.473830e+01    7.827520e-01
  2.475418e+01    7.715244e-01
  2.477005e+01    7.718829e-01
  2.478593e+01    7.805581e-01
  2.480180e+01    7.975786e-01
  2.481768e+01    7.867019e-01
  2.483355e+01    7.928854e-01
  2.484943e+01    7.914250e-01
  2.486530e+01    7.689044e-01
  2.488118e+01    7.805741e-01
  2.489706e+01    7.867829e-01
  2.491293e+01    7.939378e-01
  2.492881e+01    7.740737e-01
  2.494468e+01    7.808666e-01
  2.496056e+01    7.925399e-01
  2.497643e+01    7.951942e-01
  2.499231e+01    7.966726e-01
  2.500819e+01    7.868167e-01
  2.502406e+01    7.871545e-01
  2.503994e+01    8.196375e-01
  2.505581e+01    8.049695e-01
  2.507169e+01    7.902870e-01
  2.508756e+01    7.863361e-01
  2.510344e+01    7.988908e-01
  2.511931e+01    8.187674e-01
  2.513519e+01    8.174658e-01
  2.515107e+01    8.312284e-01
  2.516694e+01    8.288106e-01
  2.518282e+01    8.305995e-01
  2.519869e+01    8.367468e-01
  2.521457e+01    8.244957e-01
  2.523044e+01    8.424388e-01
  2.524632e+01    8.296607e-01
  2.526219e+01    8.452422e-01
  2.527807e+01    8.605068e-01
  2.529395e+01    8.497655e-01
  2.530982e+01    8.548142e-01
  2.532570e+01    8.731558e-01
  2.534157e+01    8.621182e-01
  2.535745e+01    8.712373e-01
  2.537332e+01    8.763154e-01
  2.538920e+01    8.856565e-01
  2.540507e+01    9.124196e-01
  2.542095e+01    9.080057e-01
  2.543683e+01    9.220233e-01
  2.545270e+01    9.163846e-01
  2.546858e+01    9.133143e-01
  2.548445e+01    9.383279e-01
  2.550033e+01    9.537002e-01
  2.551620e+01    9.750913e-01
  2.553208e+01    9.926195e-01
  2.554795e+01    1.004525e+00
  2.556383e+01    1.032909e+00
  2.557971e+01    1.079887e+00
  2.559558e+01    1.068953e+00
  2.561146e+01    1.113926e+00
  2.562733e+01    1.145345e+00
  2.564321e+01    1.183270e+00
  2.565908e+01    1.237242e+00
  2.567496e+01    1.288178e+00
  2.569083e+01    1.358625e+00
  2.570671e+01    1.445209e+00
  2.572259e+01    1.514319e+00
  2.573846e+01    1.642134e+00
  2.575434e+01    1.805215e+00
  2.577021e+01    1.959546e+00
  2.578609e+01    2.194247e+00
  2.580196e+01    2.456847e+00
  2.581784e+01    2.751842e+00
  2.583371e+01    3.139573e+00
  2.584959e+01    3.553133e+00
  2.586547e+01    4.096660e+00
  2.588134e+01    4.706205e+00
  2.589722e+01    5.369214e+00
  2.591309e+01    6.070296e+00
  2.592897e+01    6.709434e+00
  2.594484e+01    7.361804e+00
  2.596072e+01    7.871837e+00
  2.597660e+01    8.124620e+00
  2.599247e+01    8.073464e+00
  2.600835e+01    7.700779e+00
  2.602422e+01    7.013751e+00
  2.604010e+01    6.278707e+00
  2.605597e+01    5.440790e+00
  2.607185e+01    4.624498e+00
  2.608772e+01    3.966054e+00
  2.610360e+01    3.387441e+00
  2.611948e+01    2.974458e+00
  2.613535e+01    2.632165e+00
  2.615123e+01    2.283301e+00
  2.616710e+01    2.080044e+00
  2.618298e+01    1.897449e+00
  2.619885e+01    1.750329e+00
  2.621473e+01    1.637320e+00
  2.623060e+01    1.503075e+00
  2.624648e+01    1.411497e+00
  2.626236e+01    1.331232e+00
  2.627823e+01    1.261445e+00
  2.629411e+01    1.235469e+00
  2.630998e+01    1.176504e+00
  2.632586e+01    1.129907e+00
  2.634173e+01    1.097224e+00
  2.635761e+01    1.080246e+00
  2.637348e+01    1.082742e+00
  2.638936e+01    1.040393e+00
  2.640524e+01    1.010943e+00
  2.642111e+01    9.948636e-01
  2.643699e+01    1.005380e+00
  2.645286e+01    1.001206e+00
  2.646874e+01    9.639201e-01
  2.648461e+01    9.444787e-01
  2.650049e+01    9.345856e-01
  2.651636e+01    9.246747e-01
  2.653224e+01    9.206082e-01
  2.654812e+01    9.296439e-01
  2.656399e+01    9.111517e-01
  2.657987e+01    9.099214e-01
  2.659574e+01    9.172745e-01
  2.661162e+01    9.161121e-01
  2.662749e+01    8.974482e-01
  2.664337e+01    8.913220e-01
  2.665924e+01    8.951208e-01
  2.667512e+01    8.688964e-01
  2.669100e+01    8.903136e-01
  2.670687e+01    8.912765e-01
  2.672275e+01    8.971522e-01
  2.673862e+01    8.831204e-01
  2.675450e+01    8.980479e-01
  2.677037e+01    8.820168e-01
  2.678625e+01    8.979236e-01
  2.680212e+01    8.851125e-01
  2.681800e+01    8.789218e-01
  2.683388e+01    8.788531e-01
  2.684975e+01    8.895797e-01
  2.686563e+01    8.782753e-01
  2.688150e+01    9.071005e-01
  2.689738e+01    9.192687e-01
  2.691325e+01    9.283655e-01
  2.692913e+01    9.187540e-01
  2.694501e+01    9.215719e-01
  2.696088e+01    9.350849e-01
  2.697676e+01    9.860686e-01
  2.699263e+01    9.944266e-01
  2.700851e+01    1.017801e+00
  2.702438e+01    1.043237e+00
  2.704026e+01    1.075932e+00
  2.705613e+01    1.125992e+00
  2.707201e+01    1.204150e+00
  2.708789e+01    1.253171e+00
  2.710376e+01    1.317589e+00
  2.711964e+01    1.423131e+00
  2.713551e+01    1.537727e+00
  2.715139e+01    1.677134e+00
  2.716726e+01    1.843955e+00
  2.718314e+01    1.980178e+00
  2.719901e+01    2.109147e+00
  2.721489e+01    2.262249e+00
  2.723077e+01    2.367588e+00
  2.724664e+01    2.356955e+00
  2.726252e+01    2.327645e+00
  2.727839e+01    2.218263e+00
  2.729427e+01    2.032163e+00
  2.731014e+01    1.855598e+00
  2.732602e+01    1.674290e+00
  2.734189e+01    1.537865e+00
  2.735777e+01    1.433433e+00
  2.737365e+01    1.308994e+00
  2.738952e+01    1.230208e+00
  2.740540e+01    1.154392e+00
  2.742127e+01    1.122705e+00
  2.743715e+01    1.060824e+00
  2.745302e+01    1.013690e+00
  2.746890e+01    9.961320e-01
  2.748477e+01    9.929993e-01
  2.750065e+01    9.553844e-01
  2.751653e+01    9.405002e-01
  2.753240e+01    9.385059e-01
  2.754828e+01    8.968887e-01
  2.756415e+01    8.629670e-01
  2.758003e+01    8.748501e-01
  2.759590e+01    8.715809e-01
  2.761178e+01    8.511626e-01
  2.762765e+01    8.681795e-01
  2.764353e+01    8.517627e-01
  2.765941e+01    8.471403e-01
  2.767528e+01    8.439575e-01
  2.769116e+01    8.286134e-01
  2.770703e+01    8.013130e-01
  2.772291e+01    8.265710e-01
  2.773878e+01    8.222580e-01
  2.775466e+01    8.074189e-01
  2.777054e+01    8.032540e-01
  2.778641e+01    8.227388e-01
  2.780229e+01    8.139650e-01
  2.781816e+01    7.925240e-01
  2.783404e+01    8.030784e-01
  2.784991e+01    8.028025e-01
  2.786579e+01    8.002387e-01
  2.788166e+01    7.949486e-01
  2.789754e+01    7.903225e-01
  2.791342e+01    7.988834e-01
  2.792929e+01    7.856691e-01
  2.794517e+01    8.176550e-01
  2.796104e+01    8.053755e-01
  2.797692e+01    7.884225e-01
  2.799279e+01    7.961380e-01
  2.800867e+01    7.947497e-01
  2.802454e+01    8.043680e-01
  2.804042e+01    7.927533e-01
  2.805630e+01    7.821886e-01
  2.807217e+01    8.001114e-01
  2.808805e+01    7.761250e-01
  2.810392e+01    7.764241e-01
  2.811980e+01    7.692177e-01
  2.813567e+01    7.642502e-01
  2.815155e+01    7.709681e-01
  2.816742e+01    7.689098e-01
  2.818330e+01    7.405137e-01
  2.819918e+01    7.559984e-01
  2.821505e+01    7.617033e-01
  2.823093e+01    7.538273e-01
  2.824680e+01    7.792418e-01
  2.826268e+01    7.821146e-01
  2.827855e+01    7.786430e-01
  2.829443e+01    7.613941e-01
  2.831030e+01    7.490359e-01
  2.832618e+01    7.723285e-01
  2.834206e+01    7.638176e-01
  2.835793e+01    7.562779e-01
  2.837381e+01    7.745303e-01
  2.838968e+01    7.777096e-01
  2.840556e+01    7.780877e-01
  2.842143e+01    7.570964e-01
  2.843731e+01    7.772103e-01
  2.845318e+01    7.531269e-01
  2.846906e+01    7.611117e-01
  2.848494e+01    7.652974e-01
  2.850081e+01    7.615848e-01
  2.851669e+01    7.485251e-01
  2.853256e+01    7.517545e-01
  2.854844e+01    7.664329e-01
  2.856431e+01    7.503526e-01
  2.858019e+01    7.538728e-01
  2.859606e+01    7.818594e-01
  2.861194e+01    7.591656e-01
  2.862782e+01    7.361295e-01
  2.864369e+01    7.691105e-01
  2.865957e+01    7.523366e-01
  2.867544e+01    7.577910e-01
  2.869132e+01    7.294977e-01
  2.870719e+01    7.366638e-01
  2.872307e+01    7.471887e-01
  2.873895e+01    7.458479e-01
  2.875482e+01    7.410210e-01
  2.877070e+01    7.234474e-01
  2.878657e+01    7.389097e-01
  2.880245e+01    7.317334e-01
  2.881832e+01    7.477823e-01
  2.883420e+01    7.506765e-01
  2.885007e+01    7.319272e-01
  2.886595e+01    7.286679e-01
  2.888183e+01    7.305772e-01
  2.889770e+01    7.516871e-01
  2.891358e+01    7.541831e-01
  2.892945e+01    7.398325e-01
  2.894533e+01    7.240386e-01
  2.896120e+01    7.307431e-01
  2.897708e+01    7.345808e-01
  2.899295e+01    7.476450e-01
  2.900883e+01    7.372143e-01
  2.902471e+01    7.458693e-01
  2.904058e+01    7.395381e-01
  2.905646e+01    7.436872e-01
  2.907233e+01    7.383200e-01
  2.908821e+01    7.307929e-01
  2.910408e+01    7.317011e-01
  2.911996e+01    7.295876e-01
  2.913583e+01    7.379619e-01
  2.915171e+01    7.394980e-01
  2.916759e+01    7.251096e-01
  2.918346e+01    7.282932e-01
  2.919934e+01    7.246470e-01
  2.921521e+01    7.178321e-01
  2.923109e+01    7.347382e-01
  2.924696e+01    7.219352e-01
  2.926284e+01    7.162868e-01
  2.927871e+01    7.377405e-01
  2.929459e+01    7.479001e-01
  2.931047e+01    7.267219e-01
  2.932634e+01    7.356907e-01
  2.934222e+01    7.242026e-01
  2.935809e+01    7.173487e-01
  2.937397e+01    7.217793e-01
  2.938984e+01    7.282956e-01
  2.940572e+01    7.147394e-01
  2.942159e+01    7.242466e-01
  2.943747e+01    7.294853e-01
  2.945335e+01    7.155290e-01
  2.946922e+01    7.119177e-01
  2.948510e+01    7.100371e-01
  2.950097e+01    7.245538e-01
  2.951685e+01    7.128128e-01
  2.953272e+01    7.352546e-01
  2.954860e+01    7.364543e-01
  2.956447e+01    7.192330e-01
  2.958035e+01    7.217788e-01
  2.959623e+01    7.233946e-01
  2.961210e+01    7.127430e-01
  2.962798e+01    7.025073e-01
  2.964385e+01    7.061714e-01
  2.965973e+01    7.169123e-01
  2.967560e+01    7.091197e-01
  2.969148e+01    7.123774e-01
  2.970736e+01    7.125353e-01
  2.972323e+01    7.019086e-01
  2.973911e+01    7.115171e-01
  2.975498e+01    7.119240e-01
  2.977086e+01    7.031329e-01
  2.978673e+01    7.225855e-01
  2.980261e+01    7.038285e-01
  2.981848e+01    7.022743e-01
  2.983436e+01    7.316644e-01
  2.985024e+01    7.251590e-01
  2.986611e+01    7.144836e-01
  2.988199e+01    7.153258e-01
  2.989786e+01    7.150427e-01
  2.991374e+01    7.241691e-01
  2.992961e+01    7.031325e-01
  2.994549e+01    7.250640e-01
  2.996136e+01    7.322152e-01
  2.997724e+01    7.200311e-01
  2.999312e+01    7.169534e-01
  3.000899e+01    7.139060e-01
  3.002487e+01    7.167324e-01
  3.004074e+01    7.220056e-01
  3.005662e+01    7.438240e-01
  3.007249e+01    7.306932e-01
  3.008837e+01    7.239889e-01
  3.010424e+01    7.250242e-01
  3.012012e+01    7.199241e-01
  3.013600e+01    7.203539e-01
  3.015187e+01    6.878604e-01
  3.016775e+01    7.013054e-01
  3.018362e+01    7.152549e-01
  3.019950e+01    6.975790e-01
  3.021537e+01    7.162512e-01
  3.023125e+01    7.031166e-01
  3.024712e+01    7.167280e-01
  3.026300e+01    7.076496e-01
  3.027888e+01    7.026672e-01
  3.029475e+01    7.043146e-01
  3.031063e+01    7.133812e-01
  3.032650e+01    7.243277e-01
  3.034238e+01    7.083253e-01
  3.035825e+01    7.229213e-01
  3.037413e+01    7.213901e-01
  3.039000e+01    6.997963e-01
  3.040588e+01    7.246441e-01
  3.042176e+01    7.140773e-01
  3.043763e+01    6.932980e-01
  3.045351e+01    7.209186e-01
  3.046938e+01    7.187933e-01
  3.048526e+01    7.125650e-01
  3.050113e+01    7.206157e-01
  3.051701e+01    6.899790e-01
  3.053288e+01    7.063446e-01
  3.054876e+01    7.235839e-01
  3.056464e+01    7.450194e-01
  3.058051e+01    7.312670e-01
  3.059639e+01    7.132304e-01
  3.061226e+01    7.186862e-01
  3.062814e+01    7.012905e-01
  3.064401e+01    6.861377e-01
  3.065989e+01    7.007911e-01
  3.067577e+01    7.110918e-01
  3.069164e+01    7.198698e-01
  3.070752e+01    7.015046e-01
  3.072339e+01    7.032153e-01
  3.073927e+01    6.987407e-01
  3.075514e+01    7.029386e-01
  3.077102e+01    7.150832e-01
  3.078689e+01    7.120631e-01
  3.080277e+01    7.125036e-01
  3.081865e+01    7.206801e-01
  3.083452e+01    7.142884e-01
  3.085040e+01    7.208762e-01
  3.086627e+01    7.147921e-01
  3.088215e+01    7.132045e-01
  3.089802e+01    6.948267e-01
  3.091390e+01    7.017682e-01
  3.092977e+01    7.140522e-01
  3.094565e+01    7.320905e-01
  3.096153e+01    7.390808e-01
  3.097740e+01    7.180682e-01
  3.099328e+01    7.250136e-01
  3.100915e+01    7.291892e-01
  3.102503e+01    7.030704e-01
  3.104090e+01    7.415063e-01
  3.105678e+01    7.394050e-01
  3.107265e+01    7.184644e-01
  3.108853e+01    7.128221e-01
  3.110441e+01    6.855124e-01
  3.112028e+01    7.152926e-01
  3.113616e+01    7.343691e-01
  3.115203e+01    7.358062e-01
  3.116791e+01    6.934971e-01
  3.118378e+01    7.027033e-01
  3.119966e+01    7.045596e-01
  3.121553e+01    7.099633e-01
  3.123141e+01    7.245215e-01
  3.124729e+01    7.361912e-01
  3.126316e+01    7.359933e-01
  3.127904e+01    7.308733e-01
  3.129491e+01    7.217835e-01
  3.131079e+01    7.421616e-01
  3.132666e+01    7.487459e-01
  3.134254e+01    7.352787e-01
  3.135841e+01    7.332354e-01
  3.137429e+01    7.336304e-01
  3.139017e+01    7.277820e-01
  3.140604e+01    7.405383e-01
  3.142192e+01    7.586051e-01
  3.143779e+01    7.459270e-01
  3.145367e+01    7.494690e-01
  3.146954e+01    7.469394e-01
  3.148542e+01    7.639091e-01
  3.150129e+01    7.695194e-01
  3.151717e+01    7.818292e-01
  3.153305e+01    7.713308e-01
  3.154892e+01    7.817027e-01
  3.156480e+01    7.956464e-01
  3.158067e+01    7.859537e-01
  3.159655e+01    8.221328e-01
  3.161242e+01    8.100039e-01
  3.162830e+01    8.280315e-01
  3.164418e+01    8.518221e-01
  3.166005e+01    8.727965e-01
  3.167593e+01    8.992807e-01
  3.169180e+01    9.112001e-01
  3.170768e+01    9.293764e-01
  3.172355e+01    9.561334e-01
  3.173943e+01    1.021755e+00
  3.175530e+01    1.064848e+00
  3.177118e+01    1.142019e+00
  3.178706e+01    1.221375e+00
  3.180293e+01    1.274830e+00
  3.181881e+01    1.401898e+00
  3.183468e+01    1.538280e+00
  3.185056e+01    1.662449e+00
  3.186643e+01    1.856926e+00
  3.188231e+01    2.019034e+00
  3.189818e+01    2.133583e+00
  3.191406e+01    2.249570e+00
  3.192994e+01    2.336613e+00
  3.194581e+01    2.333483e+00
  3.196169e+01    2.239959e+00
  3.197756e+01    2.144463e+00
  3.199344e+01    1.966007e+00
  3.200931e+01    1.773793e+00
  3.202519e+01    1.625739e+00
  3.204106e+01    1.455284e+00
  3.205694e+01    1.366460e+00
  3.207282e+01    1.223851e+00
  3.208869e+01    1.137785e+00
  3.210457e+01    1.064580e+00
  3.212044e+01    1.009668e+00
  3.213632e+01    9.769461e-01
  3.215219e+01    9.254782e-01
  3.216807e+01    9.047219e-01
  3.218394e+01    8.526360e-01
  3.219982e+01    8.258649e-01
  3.221570e+01    8.293055e-01
  3.223157e+01    8.156607e-01
  3.224745e+01    7.938914e-01
  3.226332e+01    7.715730e-01
  3.227920e+01    7.806121e-01
  3.229507e+01    7.839377e-01
  3.231095e+01    7.482414e-01
  3.232682e+01    7.594212e-01
  3.234270e+01    7.764320e-01
  3.235858e+01    7.510472e-01
  3.237445e+01    7.464014e-01
  3.239033e+01    7.437257e-01
  3.240620e+01    7.457520e-01
  3.242208e+01    7.269189e-01
  3.243795e+01    7.227429e-01
  3.245383e+01    7.392712e-01
  3.246970e+01    7.400057e-01
  3.248558e+01    7.423106e-01
  3.250146e+01    7.467076e-01
  3.251733e+01    7.257707e-01
  3.253321e+01    7.195846e-01
  3.254908e+01    7.266414e-01
