# == pyFAI calibration ==
# Distance Sample to Detector: 0.3999999939076516 m
# PONI: 9.750e-02, 1.135e-01 m
# Rotations: -0.000175 0.000000 -0.000000 rad
# 
# == Fit2d calibration ==
# Distance Sample-beamCenter: 400.000 mm
# Center: x=1514.000, y=1300.000 pix
# Tilt: 0.010 deg  TiltPlanRot: 0.010 deg
# 
# Detector Detector	 Spline= None	 PixelSize= 7.500e-05, 7.500e-05 m
#    Detector has a mask: False 
#    Detector has a dark current: False 
#    detector has a flat field: False 
# 
# Wavelength: 6.888e-11 m
# Mask applied: user provided
# Dark current applied: False
# Flat field applied: False
# Polarization factor: 0.99
# Normalization factor: 1.0
# --> /home/myspot/data/2024_07_Rosario/Ru-CGO-ex/2024-07-27_002_Ru-CGO-ex_Activtation_ramp_000002_data_000023.dat
#       q_nm^-1             I 
  2.003187e-02    1.542525e-01
  3.590745e-02    1.627007e-01
  5.178302e-02    1.164002e-01
  6.765859e-02    1.727609e-01
  8.353417e-02    2.616950e-01
  9.940974e-02    1.857509e-01
  1.152853e-01    1.028564e-01
  1.311609e-01    7.487649e-02
  1.470365e-01    1.243822e-02
  1.629120e-01    2.226603e-03
  1.787876e-01    2.083436e-02
  1.946632e-01    2.917265e-02
  2.105388e-01    3.590246e-02
  2.264143e-01    2.413490e-02
  2.422899e-01    7.012007e-03
  2.581655e-01    2.351781e-02
  2.740411e-01    3.537581e-02
  2.899166e-01    4.197497e-02
  3.057922e-01    4.639348e-02
  3.216678e-01    4.865071e-02
  3.375433e-01    5.418949e-02
  3.534189e-01    3.459184e-02
  3.692945e-01    1.198013e-02
  3.851701e-01    2.359862e-02
  4.010456e-01    5.105205e-02
  4.169212e-01    5.197414e-02
  4.327968e-01    6.047300e-02
  4.486724e-01    8.438650e-02
  4.645479e-01    6.713553e-02
  4.804235e-01    4.416339e-02
  4.962991e-01    2.874156e-02
  5.121747e-01    3.366047e-02
  5.280502e-01    4.856643e-02
  5.439258e-01    6.993774e-02
  5.598014e-01    3.640999e-02
  5.756770e-01    3.870570e-02
  5.915525e-01    2.324550e-02
  6.074281e-01    3.814574e-02
  6.233037e-01    5.170862e-02
  6.391793e-01    3.006563e-02
  6.550548e-01    2.929500e-02
  6.709304e-01    4.968506e-02
  6.868060e-01    4.758324e-02
  7.026815e-01    5.349009e-02
  7.185571e-01    5.315293e-02
  7.344327e-01    4.116001e-02
  7.503083e-01    4.821646e-02
  7.661838e-01    6.130469e-02
  7.820594e-01    1.431965e-01
  7.979350e-01    1.728759e-01
  8.138106e-01    2.029755e-01
  8.296861e-01    2.541778e-01
  8.455617e-01    2.942180e-01
  8.614373e-01    3.490296e-01
  8.773129e-01    4.273729e-01
  8.931884e-01    4.769649e-01
  9.090640e-01    5.078548e-01
  9.249396e-01    5.754529e-01
  9.408152e-01    6.938697e-01
  9.566907e-01    7.819216e-01
  9.725663e-01    8.605588e-01
  9.884419e-01    9.717245e-01
  1.004317e+00    1.048972e+00
  1.020193e+00    1.199818e+00
  1.036069e+00    1.211918e+00
  1.051944e+00    1.314600e+00
  1.067820e+00    1.279308e+00
  1.083695e+00    1.292412e+00
  1.099571e+00    1.259741e+00
  1.115446e+00    1.306372e+00
  1.131322e+00    1.500829e+00
  1.147198e+00    1.573188e+00
  1.163073e+00    1.542477e+00
  1.178949e+00    1.563111e+00
  1.194824e+00    1.582601e+00
  1.210700e+00    1.844878e+00
  1.226575e+00    2.190046e+00
  1.242451e+00    2.326597e+00
  1.258327e+00    2.262837e+00
  1.274202e+00    2.457720e+00
  1.290078e+00    2.656555e+00
  1.305953e+00    2.540931e+00
  1.321829e+00    2.555192e+00
  1.337705e+00    2.613493e+00
  1.353580e+00    2.608416e+00
  1.369456e+00    2.659129e+00
  1.385331e+00    2.684824e+00
  1.401207e+00    2.695524e+00
  1.417082e+00    2.637146e+00
  1.432958e+00    2.729331e+00
  1.448834e+00    2.809681e+00
  1.464709e+00    2.888865e+00
  1.480585e+00    2.839820e+00
  1.496460e+00    2.971692e+00
  1.512336e+00    3.176360e+00
  1.528211e+00    3.285375e+00
  1.544087e+00    3.196777e+00
  1.559963e+00    3.058346e+00
  1.575838e+00    3.112266e+00
  1.591714e+00    3.043211e+00
  1.607589e+00    2.947288e+00
  1.623465e+00    3.076132e+00
  1.639340e+00    3.036166e+00
  1.655216e+00    2.995182e+00
  1.671092e+00    2.896709e+00
  1.686967e+00    2.845648e+00
  1.702843e+00    2.984377e+00
  1.718718e+00    2.888700e+00
  1.734594e+00    2.804766e+00
  1.750469e+00    2.847026e+00
  1.766345e+00    2.776942e+00
  1.782221e+00    2.835546e+00
  1.798096e+00    2.908844e+00
  1.813972e+00    2.764314e+00
  1.829847e+00    2.862889e+00
  1.845723e+00    2.780225e+00
  1.861598e+00    2.807057e+00
  1.877474e+00    2.982350e+00
  1.893350e+00    2.880697e+00
  1.909225e+00    2.758842e+00
  1.925101e+00    2.826395e+00
  1.940976e+00    2.876291e+00
  1.956852e+00    2.863808e+00
  1.972727e+00    2.895166e+00
  1.988603e+00    2.824867e+00
  2.004479e+00    2.809393e+00
  2.020354e+00    2.796912e+00
  2.036230e+00    2.810841e+00
  2.052105e+00    2.795689e+00
  2.067981e+00    2.870390e+00
  2.083856e+00    2.840166e+00
  2.099732e+00    2.813023e+00
  2.115608e+00    2.795108e+00
  2.131483e+00    2.886542e+00
  2.147359e+00    2.815100e+00
  2.163234e+00    2.809713e+00
  2.179110e+00    2.792729e+00
  2.194985e+00    2.798213e+00
  2.210861e+00    2.750482e+00
  2.226737e+00    2.791555e+00
  2.242612e+00    2.778529e+00
  2.258488e+00    2.780621e+00
  2.274363e+00    2.880048e+00
  2.290239e+00    2.746439e+00
  2.306115e+00    2.745502e+00
  2.321990e+00    2.868186e+00
  2.337866e+00    2.803164e+00
  2.353741e+00    2.832038e+00
  2.369617e+00    2.836140e+00
  2.385492e+00    2.802568e+00
  2.401368e+00    2.772468e+00
  2.417244e+00    2.833042e+00
  2.433119e+00    2.866034e+00
  2.448995e+00    2.728967e+00
  2.464870e+00    2.824325e+00
  2.480746e+00    2.905242e+00
  2.496621e+00    2.803082e+00
  2.512497e+00    2.801472e+00
  2.528373e+00    2.743100e+00
  2.544248e+00    2.953445e+00
  2.560124e+00    2.894321e+00
  2.575999e+00    2.924101e+00
  2.591875e+00    2.907687e+00
  2.607750e+00    2.942488e+00
  2.623626e+00    2.899620e+00
  2.639502e+00    2.812810e+00
  2.655377e+00    2.861248e+00
  2.671253e+00    2.893999e+00
  2.687128e+00    2.871175e+00
  2.703004e+00    2.900525e+00
  2.718879e+00    2.869488e+00
  2.734755e+00    2.874375e+00
  2.750631e+00    2.859707e+00
  2.766506e+00    2.890296e+00
  2.782382e+00    2.944829e+00
  2.798257e+00    2.856747e+00
  2.814133e+00    2.855109e+00
  2.830008e+00    2.882092e+00
  2.845884e+00    2.926843e+00
  2.861760e+00    2.985076e+00
  2.877635e+00    2.912894e+00
  2.893511e+00    2.904500e+00
  2.909386e+00    2.962845e+00
  2.925262e+00    2.871109e+00
  2.941137e+00    2.712379e+00
  2.957013e+00    2.812359e+00
  2.972889e+00    2.925461e+00
  2.988764e+00    2.941060e+00
  3.004640e+00    2.970742e+00
  3.020515e+00    2.958464e+00
  3.036391e+00    2.933100e+00
  3.052266e+00    2.922543e+00
  3.068142e+00    2.839072e+00
  3.084018e+00    2.878415e+00
  3.099893e+00    2.885319e+00
  3.115769e+00    2.933622e+00
  3.131644e+00    2.832548e+00
  3.147520e+00    2.882161e+00
  3.163395e+00    2.855101e+00
  3.179271e+00    2.943773e+00
  3.195147e+00    2.980594e+00
  3.211022e+00    2.970485e+00
  3.226898e+00    2.878910e+00
  3.242773e+00    2.923049e+00
  3.258649e+00    2.862955e+00
  3.274525e+00    2.878323e+00
  3.290400e+00    2.885424e+00
  3.306276e+00    2.882227e+00
  3.322151e+00    2.883931e+00
  3.338027e+00    2.914649e+00
  3.353902e+00    2.972625e+00
  3.369778e+00    2.951936e+00
  3.385654e+00    2.967105e+00
  3.401529e+00    3.009111e+00
  3.417405e+00    2.978539e+00
  3.433280e+00    2.984194e+00
  3.449156e+00    3.015547e+00
  3.465031e+00    3.031430e+00
  3.480907e+00    3.061844e+00
  3.496783e+00    3.074082e+00
  3.512658e+00    2.965223e+00
  3.528534e+00    3.026866e+00
  3.544409e+00    2.930896e+00
  3.560285e+00    3.014625e+00
  3.576160e+00    2.906584e+00
  3.592036e+00    2.831667e+00
  3.607912e+00    2.863537e+00
  3.623787e+00    2.939053e+00
  3.639663e+00    3.015161e+00
  3.655538e+00    3.047080e+00
  3.671414e+00    2.919429e+00
  3.687289e+00    2.928836e+00
  3.703165e+00    3.113141e+00
  3.719041e+00    3.124768e+00
  3.734916e+00    3.035731e+00
  3.750792e+00    2.990302e+00
  3.766667e+00    2.984795e+00
  3.782543e+00    3.007566e+00
  3.798418e+00    3.016362e+00
  3.814294e+00    3.018809e+00
  3.830170e+00    2.987477e+00
  3.846045e+00    3.009659e+00
  3.861921e+00    3.107919e+00
  3.877796e+00    2.972008e+00
  3.893672e+00    2.948782e+00
  3.909547e+00    3.033496e+00
  3.925423e+00    3.088487e+00
  3.941299e+00    3.020794e+00
  3.957174e+00    3.025537e+00
  3.973050e+00    3.012686e+00
  3.988925e+00    3.010460e+00
  4.004801e+00    3.049401e+00
  4.020676e+00    3.046421e+00
  4.036552e+00    2.982865e+00
  4.052428e+00    3.020556e+00
  4.068303e+00    3.097509e+00
  4.084179e+00    3.118117e+00
  4.100054e+00    3.032696e+00
  4.115930e+00    3.074607e+00
  4.131806e+00    3.079584e+00
  4.147681e+00    3.048001e+00
  4.163557e+00    3.052998e+00
  4.179432e+00    2.998609e+00
  4.195308e+00    3.030760e+00
  4.211183e+00    3.011446e+00
  4.227059e+00    2.994273e+00
  4.242935e+00    3.037004e+00
  4.258810e+00    3.043741e+00
  4.274686e+00    3.032580e+00
  4.290561e+00    3.087226e+00
  4.306437e+00    3.063663e+00
  4.322312e+00    3.073937e+00
  4.338188e+00    3.190013e+00
  4.354064e+00    3.140043e+00
  4.369939e+00    3.071959e+00
  4.385815e+00    3.083003e+00
  4.401690e+00    3.081144e+00
  4.417566e+00    3.061818e+00
  4.433441e+00    3.052709e+00
  4.449317e+00    3.082011e+00
  4.465193e+00    3.088621e+00
  4.481068e+00    3.103126e+00
  4.496944e+00    3.144648e+00
  4.512819e+00    2.995511e+00
  4.528695e+00    3.064679e+00
  4.544570e+00    3.089365e+00
  4.560446e+00    3.158894e+00
  4.576322e+00    3.080408e+00
  4.592197e+00    3.012237e+00
  4.608073e+00    3.094603e+00
  4.623948e+00    3.095731e+00
  4.639824e+00    2.992012e+00
  4.655699e+00    3.043077e+00
  4.671575e+00    3.184367e+00
  4.687451e+00    3.098895e+00
  4.703326e+00    3.123831e+00
  4.719202e+00    3.204494e+00
  4.735077e+00    3.073617e+00
  4.750953e+00    3.046912e+00
  4.766828e+00    3.096113e+00
  4.782704e+00    3.186948e+00
  4.798580e+00    3.189370e+00
  4.814455e+00    3.173936e+00
  4.830331e+00    3.222579e+00
  4.846206e+00    3.228500e+00
  4.862082e+00    3.262046e+00
  4.877957e+00    3.257987e+00
  4.893833e+00    3.154351e+00
  4.909709e+00    3.182726e+00
  4.925584e+00    3.111312e+00
  4.941460e+00    3.067428e+00
  4.957335e+00    3.142993e+00
  4.973211e+00    3.158407e+00
  4.989086e+00    3.100263e+00
  5.004962e+00    3.079845e+00
  5.020838e+00    3.145563e+00
  5.036713e+00    3.167205e+00
  5.052589e+00    3.189193e+00
  5.068464e+00    3.085716e+00
  5.084340e+00    3.007131e+00
  5.100216e+00    3.155885e+00
  5.116091e+00    3.160391e+00
  5.131967e+00    3.108487e+00
  5.147842e+00    3.156179e+00
  5.163718e+00    3.146724e+00
  5.179593e+00    3.143814e+00
  5.195469e+00    3.162570e+00
  5.211345e+00    3.161929e+00
  5.227220e+00    3.132900e+00
  5.243096e+00    3.174862e+00
  5.258971e+00    3.150111e+00
  5.274847e+00    3.191113e+00
  5.290722e+00    3.201331e+00
  5.306598e+00    3.142429e+00
  5.322474e+00    3.137423e+00
  5.338349e+00    3.116390e+00
  5.354225e+00    3.102691e+00
  5.370100e+00    3.137696e+00
  5.385976e+00    3.127583e+00
  5.401851e+00    3.131889e+00
  5.417727e+00    3.077970e+00
  5.433603e+00    3.095130e+00
  5.449478e+00    3.131069e+00
  5.465354e+00    3.122503e+00
  5.481229e+00    3.076506e+00
  5.497105e+00    3.028228e+00
  5.512980e+00    3.053551e+00
  5.528856e+00    3.072843e+00
  5.544732e+00    3.066309e+00
  5.560607e+00    3.067217e+00
  5.576483e+00    3.113107e+00
  5.592358e+00    3.085062e+00
  5.608234e+00    3.068684e+00
  5.624109e+00    3.079295e+00
  5.639985e+00    3.155465e+00
  5.655861e+00    3.132384e+00
  5.671736e+00    3.092095e+00
  5.687612e+00    3.093192e+00
  5.703487e+00    3.049333e+00
  5.719363e+00    3.095694e+00
  5.735238e+00    3.038040e+00
  5.751114e+00    3.004604e+00
  5.766990e+00    3.080013e+00
  5.782865e+00    3.049933e+00
  5.798741e+00    3.120466e+00
  5.814616e+00    3.084678e+00
  5.830492e+00    3.016965e+00
  5.846367e+00    3.028357e+00
  5.862243e+00    3.085867e+00
  5.878119e+00    3.064869e+00
  5.893994e+00    3.005838e+00
  5.909870e+00    3.021627e+00
  5.925745e+00    3.070343e+00
  5.941621e+00    3.076741e+00
  5.957497e+00    3.056271e+00
  5.973372e+00    2.959743e+00
  5.989248e+00    3.057784e+00
  6.005123e+00    3.011644e+00
  6.020999e+00    3.024660e+00
  6.036874e+00    2.974833e+00
  6.052750e+00    3.001070e+00
  6.068626e+00    3.060727e+00
  6.084501e+00    3.022101e+00
  6.100377e+00    3.068639e+00
  6.116252e+00    3.166523e+00
  6.132128e+00    3.153017e+00
  6.148003e+00    3.030226e+00
  6.163879e+00    3.068814e+00
  6.179755e+00    3.059662e+00
  6.195630e+00    3.002338e+00
  6.211506e+00    3.095352e+00
  6.227381e+00    3.085230e+00
  6.243257e+00    3.128768e+00
  6.259132e+00    2.991368e+00
  6.275008e+00    3.020812e+00
  6.290884e+00    3.070714e+00
  6.306759e+00    3.054327e+00
  6.322635e+00    3.063666e+00
  6.338510e+00    3.047454e+00
  6.354386e+00    2.959828e+00
  6.370261e+00    3.005453e+00
  6.386137e+00    3.074745e+00
  6.402013e+00    3.137551e+00
  6.417888e+00    3.048333e+00
  6.433764e+00    2.976110e+00
  6.449639e+00    2.988863e+00
  6.465515e+00    3.040599e+00
  6.481390e+00    3.033630e+00
  6.497266e+00    3.021905e+00
  6.513142e+00    3.026323e+00
  6.529017e+00    3.091488e+00
  6.544893e+00    3.104953e+00
  6.560768e+00    3.108358e+00
  6.576644e+00    3.082206e+00
  6.592519e+00    3.007261e+00
  6.608395e+00    3.046151e+00
  6.624271e+00    3.036572e+00
  6.640146e+00    3.031517e+00
  6.656022e+00    3.000343e+00
  6.671897e+00    3.087793e+00
  6.687773e+00    3.028561e+00
  6.703648e+00    2.998774e+00
  6.719524e+00    3.020185e+00
  6.735400e+00    3.048757e+00
  6.751275e+00    3.001932e+00
  6.767151e+00    2.995052e+00
  6.783026e+00    3.022589e+00
  6.798902e+00    3.041407e+00
  6.814777e+00    3.067256e+00
  6.830653e+00    3.089076e+00
  6.846529e+00    3.066549e+00
  6.862404e+00    3.067963e+00
  6.878280e+00    3.035309e+00
  6.894155e+00    2.975100e+00
  6.910031e+00    3.066525e+00
  6.925907e+00    3.094206e+00
  6.941782e+00    3.021922e+00
  6.957658e+00    3.014525e+00
  6.973533e+00    3.029843e+00
  6.989409e+00    3.071689e+00
  7.005284e+00    3.022972e+00
  7.021160e+00    3.048075e+00
  7.037036e+00    3.009880e+00
  7.052911e+00    3.029086e+00
  7.068787e+00    3.030176e+00
  7.084662e+00    3.079018e+00
  7.100538e+00    3.029297e+00
  7.116413e+00    2.992666e+00
  7.132289e+00    2.993006e+00
  7.148165e+00    2.989926e+00
  7.164040e+00    3.038512e+00
  7.179916e+00    3.095531e+00
  7.195791e+00    3.049380e+00
  7.211667e+00    3.040133e+00
  7.227542e+00    3.004114e+00
  7.243418e+00    2.980569e+00
  7.259294e+00    3.057387e+00
  7.275169e+00    3.079048e+00
  7.291045e+00    2.992300e+00
  7.306920e+00    2.976273e+00
  7.322796e+00    2.980136e+00
  7.338671e+00    3.078997e+00
  7.354547e+00    3.091156e+00
  7.370423e+00    3.005528e+00
  7.386298e+00    2.935261e+00
  7.402174e+00    2.962554e+00
  7.418049e+00    2.980196e+00
  7.433925e+00    3.027938e+00
  7.449800e+00    3.007149e+00
  7.465676e+00    3.022092e+00
  7.481552e+00    3.044704e+00
  7.497427e+00    3.005169e+00
  7.513303e+00    2.999983e+00
  7.529178e+00    3.020378e+00
  7.545054e+00    3.026305e+00
  7.560929e+00    3.001588e+00
  7.576805e+00    2.967190e+00
  7.592681e+00    2.951689e+00
  7.608556e+00    3.008082e+00
  7.624432e+00    2.925070e+00
  7.640307e+00    2.930356e+00
  7.656183e+00    2.987854e+00
  7.672058e+00    2.973556e+00
  7.687934e+00    2.952438e+00
  7.703810e+00    2.970008e+00
  7.719685e+00    3.014693e+00
  7.735561e+00    2.952631e+00
  7.751436e+00    2.935465e+00
  7.767312e+00    2.961386e+00
  7.783187e+00    2.945925e+00
  7.799063e+00    2.930147e+00
  7.814939e+00    2.912381e+00
  7.830814e+00    2.936931e+00
  7.846690e+00    2.947748e+00
  7.862565e+00    2.915231e+00
  7.878441e+00    2.897530e+00
  7.894317e+00    2.909705e+00
  7.910192e+00    2.962550e+00
  7.926068e+00    3.016570e+00
  7.941943e+00    2.997458e+00
  7.957819e+00    2.950046e+00
  7.973694e+00    2.898730e+00
  7.989570e+00    2.883737e+00
  8.005446e+00    2.917139e+00
  8.021321e+00    2.924275e+00
  8.037197e+00    3.008758e+00
  8.053072e+00    2.945210e+00
  8.068948e+00    2.912183e+00
  8.084823e+00    2.938883e+00
  8.100699e+00    2.947453e+00
  8.116575e+00    2.971417e+00
  8.132450e+00    2.954815e+00
  8.148326e+00    3.042725e+00
  8.164201e+00    3.000978e+00
  8.180077e+00    2.937928e+00
  8.195952e+00    2.926178e+00
  8.211828e+00    2.980857e+00
  8.227704e+00    2.998199e+00
  8.243579e+00    2.973069e+00
  8.259455e+00    2.915412e+00
  8.275330e+00    2.968513e+00
  8.291206e+00    3.008164e+00
  8.307081e+00    2.899231e+00
  8.322957e+00    2.915058e+00
  8.338833e+00    2.939974e+00
  8.354708e+00    2.893753e+00
  8.370584e+00    2.901786e+00
  8.386459e+00    2.911989e+00
  8.402335e+00    2.898460e+00
  8.418210e+00    2.905833e+00
  8.434086e+00    2.921993e+00
  8.449962e+00    2.975764e+00
  8.465837e+00    2.937003e+00
  8.481713e+00    2.882021e+00
  8.497588e+00    2.910870e+00
  8.513464e+00    2.814230e+00
  8.529339e+00    2.851078e+00
  8.545215e+00    2.897197e+00
  8.561091e+00    2.912266e+00
  8.576966e+00    2.900138e+00
  8.592842e+00    2.832975e+00
  8.608717e+00    2.794643e+00
  8.624593e+00    2.863445e+00
  8.640468e+00    2.889938e+00
  8.656344e+00    2.916150e+00
  8.672220e+00    2.877891e+00
  8.688095e+00    2.911582e+00
  8.703971e+00    2.923679e+00
  8.719846e+00    2.852246e+00
  8.735722e+00    2.832979e+00
  8.751598e+00    2.844448e+00
  8.767473e+00    2.886718e+00
  8.783349e+00    2.890057e+00
  8.799224e+00    2.824622e+00
  8.815100e+00    2.847307e+00
  8.830975e+00    2.820190e+00
  8.846851e+00    2.816476e+00
  8.862727e+00    2.882880e+00
  8.878602e+00    2.871146e+00
  8.894478e+00    2.886883e+00
  8.910353e+00    2.914747e+00
  8.926229e+00    2.874552e+00
  8.942104e+00    2.805473e+00
  8.957980e+00    2.816211e+00
  8.973856e+00    2.791315e+00
  8.989731e+00    2.813596e+00
  9.005607e+00    2.886623e+00
  9.021482e+00    2.869709e+00
  9.037358e+00    2.860554e+00
  9.053233e+00    2.861703e+00
  9.069109e+00    2.807150e+00
  9.084985e+00    2.816492e+00
  9.100860e+00    2.821929e+00
  9.116736e+00    2.856921e+00
  9.132611e+00    2.859687e+00
  9.148487e+00    2.817315e+00
  9.164362e+00    2.838613e+00
  9.180238e+00    2.822681e+00
  9.196114e+00    2.803442e+00
  9.211989e+00    2.790298e+00
  9.227865e+00    2.812562e+00
  9.243740e+00    2.776963e+00
  9.259616e+00    2.811668e+00
  9.275491e+00    2.847907e+00
  9.291367e+00    2.849601e+00
  9.307243e+00    2.828693e+00
  9.323118e+00    2.757708e+00
  9.338994e+00    2.745159e+00
  9.354869e+00    2.782242e+00
  9.370745e+00    2.786008e+00
  9.386620e+00    2.785650e+00
  9.402496e+00    2.806019e+00
  9.418372e+00    2.738196e+00
  9.434247e+00    2.765952e+00
  9.450123e+00    2.857851e+00
  9.465998e+00    2.833495e+00
  9.481874e+00    2.819668e+00
  9.497749e+00    2.775263e+00
  9.513625e+00    2.809253e+00
  9.529501e+00    2.822075e+00
  9.545376e+00    2.793471e+00
  9.561252e+00    2.798215e+00
  9.577127e+00    2.734777e+00
  9.593003e+00    2.731978e+00
  9.608878e+00    2.767663e+00
  9.624754e+00    2.733771e+00
  9.640630e+00    2.749325e+00
  9.656505e+00    2.788478e+00
  9.672381e+00    2.747129e+00
  9.688256e+00    2.730714e+00
  9.704132e+00    2.741486e+00
  9.720008e+00    2.744976e+00
  9.735883e+00    2.765520e+00
  9.751759e+00    2.714400e+00
  9.767634e+00    2.685176e+00
  9.783510e+00    2.716745e+00
  9.799385e+00    2.728983e+00
  9.815261e+00    2.673908e+00
  9.831137e+00    2.681089e+00
  9.847012e+00    2.713642e+00
  9.862888e+00    2.694589e+00
  9.878763e+00    2.681387e+00
  9.894639e+00    2.688685e+00
  9.910514e+00    2.716282e+00
  9.926390e+00    2.767905e+00
  9.942266e+00    2.705351e+00
  9.958141e+00    2.683279e+00
  9.974017e+00    2.693920e+00
  9.989892e+00    2.685352e+00
  1.000577e+01    2.656313e+00
  1.002164e+01    2.690185e+00
  1.003752e+01    2.735017e+00
  1.005339e+01    2.719695e+00
  1.006927e+01    2.654540e+00
  1.008515e+01    2.682301e+00
  1.010102e+01    2.717450e+00
  1.011690e+01    2.679209e+00
  1.013277e+01    2.651076e+00
  1.014865e+01    2.671306e+00
  1.016452e+01    2.646188e+00
  1.018040e+01    2.643897e+00
  1.019627e+01    2.638398e+00
  1.021215e+01    2.632857e+00
  1.022803e+01    2.664526e+00
  1.024390e+01    2.678396e+00
  1.025978e+01    2.612489e+00
  1.027565e+01    2.621552e+00
  1.029153e+01    2.607990e+00
  1.030740e+01    2.628848e+00
  1.032328e+01    2.644978e+00
  1.033915e+01    2.663763e+00
  1.035503e+01    2.655575e+00
  1.037091e+01    2.648986e+00
  1.038678e+01    2.614659e+00
  1.040266e+01    2.646052e+00
  1.041853e+01    2.678692e+00
  1.043441e+01    2.647061e+00
  1.045028e+01    2.618372e+00
  1.046616e+01    2.603016e+00
  1.048204e+01    2.618279e+00
  1.049791e+01    2.624300e+00
  1.051379e+01    2.567008e+00
  1.052966e+01    2.558310e+00
  1.054554e+01    2.579154e+00
  1.056141e+01    2.610637e+00
  1.057729e+01    2.617116e+00
  1.059316e+01    2.645116e+00
  1.060904e+01    2.622872e+00
  1.062492e+01    2.612166e+00
  1.064079e+01    2.605291e+00
  1.065667e+01    2.590610e+00
  1.067254e+01    2.534230e+00
  1.068842e+01    2.562540e+00
  1.070429e+01    2.585057e+00
  1.072017e+01    2.572406e+00
  1.073604e+01    2.558306e+00
  1.075192e+01    2.564139e+00
  1.076780e+01    2.600217e+00
  1.078367e+01    2.603657e+00
  1.079955e+01    2.565741e+00
  1.081542e+01    2.570831e+00
  1.083130e+01    2.555813e+00
  1.084717e+01    2.538249e+00
  1.086305e+01    2.527883e+00
  1.087892e+01    2.564824e+00
  1.089480e+01    2.551526e+00
  1.091068e+01    2.504458e+00
  1.092655e+01    2.529533e+00
  1.094243e+01    2.523831e+00
  1.095830e+01    2.519214e+00
  1.097418e+01    2.551926e+00
  1.099005e+01    2.543334e+00
  1.100593e+01    2.499892e+00
  1.102180e+01    2.514174e+00
  1.103768e+01    2.491816e+00
  1.105356e+01    2.518915e+00
  1.106943e+01    2.519240e+00
  1.108531e+01    2.517775e+00
  1.110118e+01    2.497880e+00
  1.111706e+01    2.496052e+00
  1.113293e+01    2.471999e+00
  1.114881e+01    2.476218e+00
  1.116468e+01    2.472315e+00
  1.118056e+01    2.468872e+00
  1.119644e+01    2.448608e+00
  1.121231e+01    2.461731e+00
  1.122819e+01    2.462084e+00
  1.124406e+01    2.439882e+00
  1.125994e+01    2.409678e+00
  1.127581e+01    2.435274e+00
  1.129169e+01    2.472622e+00
  1.130756e+01    2.428778e+00
  1.132344e+01    2.459794e+00
  1.133932e+01    2.445338e+00
  1.135519e+01    2.463188e+00
  1.137107e+01    2.441214e+00
  1.138694e+01    2.414862e+00
  1.140282e+01    2.354843e+00
  1.141869e+01    2.408310e+00
  1.143457e+01    2.431524e+00
  1.145045e+01    2.441472e+00
  1.146632e+01    2.436995e+00
  1.148220e+01    2.390875e+00
  1.149807e+01    2.399721e+00
  1.151395e+01    2.406868e+00
  1.152982e+01    2.407029e+00
  1.154570e+01    2.432665e+00
  1.156157e+01    2.406327e+00
  1.157745e+01    2.408736e+00
  1.159333e+01    2.462529e+00
  1.160920e+01    2.429203e+00
  1.162508e+01    2.403929e+00
  1.164095e+01    2.376437e+00
  1.165683e+01    2.397396e+00
  1.167270e+01    2.398122e+00
  1.168858e+01    2.363155e+00
  1.170445e+01    2.365972e+00
  1.172033e+01    2.358250e+00
  1.173621e+01    2.399155e+00
  1.175208e+01    2.412718e+00
  1.176796e+01    2.382075e+00
  1.178383e+01    2.400770e+00
  1.179971e+01    2.403945e+00
  1.181558e+01    2.411942e+00
  1.183146e+01    2.375867e+00
  1.184733e+01    2.383099e+00
  1.186321e+01    2.397055e+00
  1.187909e+01    2.386770e+00
  1.189496e+01    2.359407e+00
  1.191084e+01    2.380647e+00
  1.192671e+01    2.369326e+00
  1.194259e+01    2.357377e+00
  1.195846e+01    2.312201e+00
  1.197434e+01    2.347217e+00
  1.199021e+01    2.327829e+00
  1.200609e+01    2.316528e+00
  1.202197e+01    2.326559e+00
  1.203784e+01    2.311037e+00
  1.205372e+01    2.320980e+00
  1.206959e+01    2.383997e+00
  1.208547e+01    2.357234e+00
  1.210134e+01    2.327049e+00
  1.211722e+01    2.319066e+00
  1.213309e+01    2.342209e+00
  1.214897e+01    2.313372e+00
  1.216485e+01    2.333636e+00
  1.218072e+01    2.357974e+00
  1.219660e+01    2.347772e+00
  1.221247e+01    2.300875e+00
  1.222835e+01    2.380713e+00
  1.224422e+01    2.369765e+00
  1.226010e+01    2.395475e+00
  1.227597e+01    2.354236e+00
  1.229185e+01    2.343689e+00
  1.230773e+01    2.316816e+00
  1.232360e+01    2.373983e+00
  1.233948e+01    2.347681e+00
  1.235535e+01    2.352093e+00
  1.237123e+01    2.352644e+00
  1.238710e+01    2.333291e+00
  1.240298e+01    2.352557e+00
  1.241886e+01    2.339576e+00
  1.243473e+01    2.379574e+00
  1.245061e+01    2.388758e+00
  1.246648e+01    2.360962e+00
  1.248236e+01    2.378479e+00
  1.249823e+01    2.374079e+00
  1.251411e+01    2.374331e+00
  1.252998e+01    2.403511e+00
  1.254586e+01    2.413604e+00
  1.256174e+01    2.419634e+00
  1.257761e+01    2.413398e+00
  1.259349e+01    2.412467e+00
  1.260936e+01    2.438372e+00
  1.262524e+01    2.441914e+00
  1.264111e+01    2.443600e+00
  1.265699e+01    2.455519e+00
  1.267286e+01    2.472107e+00
  1.268874e+01    2.527429e+00
  1.270462e+01    2.501886e+00
  1.272049e+01    2.534390e+00
  1.273637e+01    2.566910e+00
  1.275224e+01    2.552349e+00
  1.276812e+01    2.581534e+00
  1.278399e+01    2.617173e+00
  1.279987e+01    2.682128e+00
  1.281574e+01    2.690909e+00
  1.283162e+01    2.737015e+00
  1.284750e+01    2.866611e+00
  1.286337e+01    2.943655e+00
  1.287925e+01    3.066849e+00
  1.289512e+01    3.209620e+00
  1.291100e+01    3.302327e+00
  1.292687e+01    3.477387e+00
  1.294275e+01    3.710759e+00
  1.295862e+01    3.955470e+00
  1.297450e+01    4.302678e+00
  1.299038e+01    4.672971e+00
  1.300625e+01    5.161041e+00
  1.302213e+01    5.883276e+00
  1.303800e+01    6.672987e+00
  1.305388e+01    7.689068e+00
  1.306975e+01    9.004290e+00
  1.308563e+01    1.047634e+01
  1.310150e+01    1.217300e+01
  1.311738e+01    1.357932e+01
  1.313326e+01    1.499195e+01
  1.314913e+01    1.650762e+01
  1.316501e+01    1.802088e+01
  1.318088e+01    1.904618e+01
  1.319676e+01    1.979304e+01
  1.321263e+01    1.961301e+01
  1.322851e+01    1.821439e+01
  1.324438e+01    1.616895e+01
  1.326026e+01    1.391456e+01
  1.327614e+01    1.165361e+01
  1.329201e+01    9.703027e+00
  1.330789e+01    8.155580e+00
  1.332376e+01    7.011290e+00
  1.333964e+01    6.102519e+00
  1.335551e+01    5.397716e+00
  1.337139e+01    4.905450e+00
  1.338727e+01    4.423166e+00
  1.340314e+01    4.096691e+00
  1.341902e+01    3.805055e+00
  1.343489e+01    3.548387e+00
  1.345077e+01    3.299430e+00
  1.346664e+01    3.149839e+00
  1.348252e+01    3.059922e+00
  1.349839e+01    2.945474e+00
  1.351427e+01    2.840268e+00
  1.353015e+01    2.773724e+00
  1.354602e+01    2.675194e+00
  1.356190e+01    2.616390e+00
  1.357777e+01    2.586885e+00
  1.359365e+01    2.531828e+00
  1.360952e+01    2.480008e+00
  1.362540e+01    2.459796e+00
  1.364127e+01    2.453193e+00
  1.365715e+01    2.382543e+00
  1.367303e+01    2.322731e+00
  1.368890e+01    2.319030e+00
  1.370478e+01    2.345384e+00
  1.372065e+01    2.288914e+00
  1.373653e+01    2.283064e+00
  1.375240e+01    2.258964e+00
  1.376828e+01    2.268604e+00
  1.378415e+01    2.242708e+00
  1.380003e+01    2.247607e+00
  1.381591e+01    2.244384e+00
  1.383178e+01    2.174418e+00
  1.384766e+01    2.130675e+00
  1.386353e+01    2.144175e+00
  1.387941e+01    2.125436e+00
  1.389528e+01    2.136387e+00
  1.391116e+01    2.121356e+00
  1.392703e+01    2.106428e+00
  1.394291e+01    2.091021e+00
  1.395879e+01    2.087640e+00
  1.397466e+01    2.068709e+00
  1.399054e+01    2.081764e+00
  1.400641e+01    2.103128e+00
  1.402229e+01    2.109900e+00
  1.403816e+01    2.108889e+00
  1.405404e+01    2.073954e+00
  1.406991e+01    2.040053e+00
  1.408579e+01    2.045448e+00
  1.410167e+01    2.052952e+00
  1.411754e+01    2.067413e+00
  1.413342e+01    2.077995e+00
  1.414929e+01    2.040851e+00
  1.416517e+01    2.039202e+00
  1.418104e+01    2.053230e+00
  1.419692e+01    2.046421e+00
  1.421279e+01    2.028627e+00
  1.422867e+01    2.009347e+00
  1.424455e+01    2.017578e+00
  1.426042e+01    1.987935e+00
  1.427630e+01    1.994044e+00
  1.429217e+01    1.986506e+00
  1.430805e+01    1.968052e+00
  1.432392e+01    1.955537e+00
  1.433980e+01    1.994129e+00
  1.435568e+01    1.978261e+00
  1.437155e+01    1.973940e+00
  1.438743e+01    1.981580e+00
  1.440330e+01    1.963180e+00
  1.441918e+01    1.921677e+00
  1.443505e+01    1.949979e+00
  1.445093e+01    1.958281e+00
  1.446680e+01    1.952998e+00
  1.448268e+01    1.938561e+00
  1.449856e+01    1.934228e+00
  1.451443e+01    1.947362e+00
  1.453031e+01    1.890951e+00
  1.454618e+01    1.921917e+00
  1.456206e+01    1.951427e+00
  1.457793e+01    1.891332e+00
  1.459381e+01    1.895377e+00
  1.460968e+01    1.895515e+00
  1.462556e+01    1.909267e+00
  1.464144e+01    1.938125e+00
  1.465731e+01    1.942579e+00
  1.467319e+01    1.928151e+00
  1.468906e+01    1.908159e+00
  1.470494e+01    1.895723e+00
  1.472081e+01    1.935052e+00
  1.473669e+01    1.924943e+00
  1.475256e+01    1.927099e+00
  1.476844e+01    1.919671e+00
  1.478432e+01    1.935624e+00
  1.480019e+01    1.883033e+00
  1.481607e+01    1.928123e+00
  1.483194e+01    1.963227e+00
  1.484782e+01    1.991895e+00
  1.486369e+01    1.942886e+00
  1.487957e+01    1.956741e+00
  1.489544e+01    1.975708e+00
  1.491132e+01    1.939105e+00
  1.492720e+01    1.979021e+00
  1.494307e+01    2.053974e+00
  1.495895e+01    2.087097e+00
  1.497482e+01    2.093169e+00
  1.499070e+01    2.094359e+00
  1.500657e+01    2.162354e+00
  1.502245e+01    2.192176e+00
  1.503832e+01    2.244597e+00
  1.505420e+01    2.318290e+00
  1.507008e+01    2.470291e+00
  1.508595e+01    2.565204e+00
  1.510183e+01    2.764586e+00
  1.511770e+01    2.986446e+00
  1.513358e+01    3.216411e+00
  1.514945e+01    3.609946e+00
  1.516533e+01    4.057208e+00
  1.518120e+01    4.488241e+00
  1.519708e+01    4.870556e+00
  1.521296e+01    5.299843e+00
  1.522883e+01    5.679260e+00
  1.524471e+01    5.955463e+00
  1.526058e+01    6.259905e+00
  1.527646e+01    6.512952e+00
  1.529233e+01    6.593656e+00
  1.530821e+01    6.550504e+00
  1.532409e+01    6.248055e+00
  1.533996e+01    5.612788e+00
  1.535584e+01    4.911590e+00
  1.537171e+01    4.390255e+00
  1.538759e+01    3.904611e+00
  1.540346e+01    3.442027e+00
  1.541934e+01    3.108398e+00
  1.543521e+01    2.870338e+00
  1.545109e+01    2.622896e+00
  1.546697e+01    2.458881e+00
  1.548284e+01    2.366578e+00
  1.549872e+01    2.239941e+00
  1.551459e+01    2.167476e+00
  1.553047e+01    2.119396e+00
  1.554634e+01    2.038293e+00
  1.556222e+01    1.997976e+00
  1.557809e+01    1.968703e+00
  1.559397e+01    1.934905e+00
  1.560985e+01    1.916086e+00
  1.562572e+01    1.894578e+00
  1.564160e+01    1.871311e+00
  1.565747e+01    1.871408e+00
  1.567335e+01    1.816515e+00
  1.568922e+01    1.774494e+00
  1.570510e+01    1.762224e+00
  1.572097e+01    1.768071e+00
  1.573685e+01    1.747334e+00
  1.575273e+01    1.721712e+00
  1.576860e+01    1.700787e+00
  1.578448e+01    1.731575e+00
  1.580035e+01    1.704858e+00
  1.581623e+01    1.694179e+00
  1.583210e+01    1.693029e+00
  1.584798e+01    1.696215e+00
  1.586385e+01    1.665052e+00
  1.587973e+01    1.673956e+00
  1.589561e+01    1.636584e+00
  1.591148e+01    1.644845e+00
  1.592736e+01    1.679540e+00
  1.594323e+01    1.654225e+00
  1.595911e+01    1.645482e+00
  1.597498e+01    1.657689e+00
  1.599086e+01    1.653567e+00
  1.600673e+01    1.660783e+00
  1.602261e+01    1.671638e+00
  1.603849e+01    1.649508e+00
  1.605436e+01    1.633293e+00
  1.607024e+01    1.621271e+00
  1.608611e+01    1.617686e+00
  1.610199e+01    1.601824e+00
  1.611786e+01    1.636463e+00
  1.613374e+01    1.598555e+00
  1.614961e+01    1.572490e+00
  1.616549e+01    1.578891e+00
  1.618137e+01    1.614655e+00
  1.619724e+01    1.582757e+00
  1.621312e+01    1.539810e+00
  1.622899e+01    1.577452e+00
  1.624487e+01    1.597468e+00
  1.626074e+01    1.584176e+00
  1.627662e+01    1.584929e+00
  1.629250e+01    1.568669e+00
  1.630837e+01    1.549191e+00
  1.632425e+01    1.562951e+00
  1.634012e+01    1.573998e+00
  1.635600e+01    1.575713e+00
  1.637187e+01    1.542190e+00
  1.638775e+01    1.544528e+00
  1.640362e+01    1.559653e+00
  1.641950e+01    1.555093e+00
  1.643538e+01    1.560474e+00
  1.645125e+01    1.547228e+00
  1.646713e+01    1.534639e+00
  1.648300e+01    1.533454e+00
  1.649888e+01    1.549152e+00
  1.651475e+01    1.550392e+00
  1.653063e+01    1.532248e+00
  1.654650e+01    1.532960e+00
  1.656238e+01    1.531682e+00
  1.657826e+01    1.527274e+00
  1.659413e+01    1.531238e+00
  1.661001e+01    1.512908e+00
  1.662588e+01    1.482094e+00
  1.664176e+01    1.485016e+00
  1.665763e+01    1.502206e+00
  1.667351e+01    1.522666e+00
  1.668938e+01    1.539483e+00
  1.670526e+01    1.526311e+00
  1.672114e+01    1.479077e+00
  1.673701e+01    1.475233e+00
  1.675289e+01    1.483825e+00
  1.676876e+01    1.474092e+00
  1.678464e+01    1.473843e+00
  1.680051e+01    1.502917e+00
  1.681639e+01    1.496694e+00
  1.683226e+01    1.472105e+00
  1.684814e+01    1.478799e+00
  1.686402e+01    1.499153e+00
  1.687989e+01    1.473294e+00
  1.689577e+01    1.471742e+00
  1.691164e+01    1.465913e+00
  1.692752e+01    1.444688e+00
  1.694339e+01    1.448241e+00
  1.695927e+01    1.446397e+00
  1.697514e+01    1.461349e+00
  1.699102e+01    1.471548e+00
  1.700690e+01    1.438637e+00
  1.702277e+01    1.466414e+00
  1.703865e+01    1.459862e+00
  1.705452e+01    1.441382e+00
  1.707040e+01    1.435301e+00
  1.708627e+01    1.468860e+00
  1.710215e+01    1.476417e+00
  1.711802e+01    1.439789e+00
  1.713390e+01    1.426668e+00
  1.714978e+01    1.446381e+00
  1.716565e+01    1.459102e+00
  1.718153e+01    1.454833e+00
  1.719740e+01    1.397377e+00
  1.721328e+01    1.396813e+00
  1.722915e+01    1.367978e+00
  1.724503e+01    1.397827e+00
  1.726091e+01    1.404635e+00
  1.727678e+01    1.404909e+00
  1.729266e+01    1.401775e+00
  1.730853e+01    1.431742e+00
  1.732441e+01    1.425492e+00
  1.734028e+01    1.417702e+00
  1.735616e+01    1.404568e+00
  1.737203e+01    1.409955e+00
  1.738791e+01    1.409314e+00
  1.740379e+01    1.406035e+00
  1.741966e+01    1.390317e+00
  1.743554e+01    1.402200e+00
  1.745141e+01    1.383162e+00
  1.746729e+01    1.392210e+00
  1.748316e+01    1.372946e+00
  1.749904e+01    1.387969e+00
  1.751491e+01    1.404402e+00
  1.753079e+01    1.394393e+00
  1.754667e+01    1.367078e+00
  1.756254e+01    1.356751e+00
  1.757842e+01    1.356097e+00
  1.759429e+01    1.364676e+00
  1.761017e+01    1.333046e+00
  1.762604e+01    1.359297e+00
  1.764192e+01    1.358706e+00
  1.765779e+01    1.362717e+00
  1.767367e+01    1.391162e+00
  1.768955e+01    1.378134e+00
  1.770542e+01    1.360170e+00
  1.772130e+01    1.352816e+00
  1.773717e+01    1.367079e+00
  1.775305e+01    1.338321e+00
  1.776892e+01    1.333391e+00
  1.778480e+01    1.321138e+00
  1.780067e+01    1.343111e+00
  1.781655e+01    1.332054e+00
  1.783243e+01    1.359114e+00
  1.784830e+01    1.339288e+00
  1.786418e+01    1.327657e+00
  1.788005e+01    1.327544e+00
  1.789593e+01    1.324077e+00
  1.791180e+01    1.361370e+00
  1.792768e+01    1.338390e+00
  1.794355e+01    1.309463e+00
  1.795943e+01    1.331800e+00
  1.797531e+01    1.347731e+00
  1.799118e+01    1.315237e+00
  1.800706e+01    1.338753e+00
  1.802293e+01    1.333371e+00
  1.803881e+01    1.324568e+00
  1.805468e+01    1.319617e+00
  1.807056e+01    1.303032e+00
  1.808643e+01    1.323917e+00
  1.810231e+01    1.317795e+00
  1.811819e+01    1.314010e+00
  1.813406e+01    1.304432e+00
  1.814994e+01    1.324660e+00
  1.816581e+01    1.297239e+00
  1.818169e+01    1.302151e+00
  1.819756e+01    1.288051e+00
  1.821344e+01    1.308957e+00
  1.822932e+01    1.313786e+00
  1.824519e+01    1.300734e+00
  1.826107e+01    1.288742e+00
  1.827694e+01    1.263535e+00
  1.829282e+01    1.286935e+00
  1.830869e+01    1.265037e+00
  1.832457e+01    1.287417e+00
  1.834044e+01    1.290177e+00
  1.835632e+01    1.269910e+00
  1.837220e+01    1.279224e+00
  1.838807e+01    1.262925e+00
  1.840395e+01    1.275493e+00
  1.841982e+01    1.293728e+00
  1.843570e+01    1.276166e+00
  1.845157e+01    1.290885e+00
  1.846745e+01    1.281291e+00
  1.848332e+01    1.294344e+00
  1.849920e+01    1.262454e+00
  1.851508e+01    1.230401e+00
  1.853095e+01    1.254986e+00
  1.854683e+01    1.266593e+00
  1.856270e+01    1.253489e+00
  1.857858e+01    1.255058e+00
  1.859445e+01    1.263643e+00
  1.861033e+01    1.260059e+00
  1.862620e+01    1.269446e+00
  1.864208e+01    1.259827e+00
  1.865796e+01    1.248784e+00
  1.867383e+01    1.245674e+00
  1.868971e+01    1.249827e+00
  1.870558e+01    1.240607e+00
  1.872146e+01    1.221880e+00
  1.873733e+01    1.242344e+00
  1.875321e+01    1.221845e+00
  1.876908e+01    1.224858e+00
  1.878496e+01    1.239021e+00
  1.880084e+01    1.243886e+00
  1.881671e+01    1.219710e+00
  1.883259e+01    1.220425e+00
  1.884846e+01    1.238753e+00
  1.886434e+01    1.245339e+00
  1.888021e+01    1.240779e+00
  1.889609e+01    1.231145e+00
  1.891196e+01    1.239323e+00
  1.892784e+01    1.239724e+00
  1.894372e+01    1.230075e+00
  1.895959e+01    1.186941e+00
  1.897547e+01    1.216661e+00
  1.899134e+01    1.231039e+00
  1.900722e+01    1.207855e+00
  1.902309e+01    1.206930e+00
  1.903897e+01    1.213606e+00
  1.905484e+01    1.195886e+00
  1.907072e+01    1.198697e+00
  1.908660e+01    1.205545e+00
  1.910247e+01    1.215725e+00
  1.911835e+01    1.211376e+00
  1.913422e+01    1.179316e+00
  1.915010e+01    1.202035e+00
  1.916597e+01    1.203759e+00
  1.918185e+01    1.189659e+00
  1.919773e+01    1.211292e+00
  1.921360e+01    1.217569e+00
  1.922948e+01    1.205320e+00
  1.924535e+01    1.220412e+00
  1.926123e+01    1.214124e+00
  1.927710e+01    1.190677e+00
  1.929298e+01    1.184287e+00
  1.930885e+01    1.208226e+00
  1.932473e+01    1.192924e+00
  1.934061e+01    1.189477e+00
  1.935648e+01    1.182449e+00
  1.937236e+01    1.187008e+00
  1.938823e+01    1.205610e+00
  1.940411e+01    1.196130e+00
  1.941998e+01    1.173265e+00
  1.943586e+01    1.175682e+00
  1.945173e+01    1.208269e+00
  1.946761e+01    1.206132e+00
  1.948349e+01    1.180443e+00
  1.949936e+01    1.179813e+00
  1.951524e+01    1.180269e+00
  1.953111e+01    1.188638e+00
  1.954699e+01    1.174951e+00
  1.956286e+01    1.186203e+00
  1.957874e+01    1.173434e+00
  1.959461e+01    1.165820e+00
  1.961049e+01    1.165483e+00
  1.962637e+01    1.164618e+00
  1.964224e+01    1.166957e+00
  1.965812e+01    1.171981e+00
  1.967399e+01    1.174687e+00
  1.968987e+01    1.177894e+00
  1.970574e+01    1.172236e+00
  1.972162e+01    1.157294e+00
  1.973749e+01    1.151442e+00
  1.975337e+01    1.159682e+00
  1.976925e+01    1.190456e+00
  1.978512e+01    1.157093e+00
  1.980100e+01    1.134946e+00
  1.981687e+01    1.156734e+00
  1.983275e+01    1.162138e+00
  1.984862e+01    1.142415e+00
  1.986450e+01    1.136669e+00
  1.988037e+01    1.150593e+00
  1.989625e+01    1.117432e+00
  1.991213e+01    1.125593e+00
  1.992800e+01    1.142717e+00
  1.994388e+01    1.154439e+00
  1.995975e+01    1.135764e+00
  1.997563e+01    1.150693e+00
  1.999150e+01    1.128776e+00
  2.000738e+01    1.112606e+00
  2.002325e+01    1.123011e+00
  2.003913e+01    1.131671e+00
  2.005501e+01    1.118158e+00
  2.007088e+01    1.135098e+00
  2.008676e+01    1.145834e+00
  2.010263e+01    1.137735e+00
  2.011851e+01    1.142028e+00
  2.013438e+01    1.126800e+00
  2.015026e+01    1.135123e+00
  2.016614e+01    1.132306e+00
  2.018201e+01    1.122635e+00
  2.019789e+01    1.128333e+00
  2.021376e+01    1.120896e+00
  2.022964e+01    1.120799e+00
  2.024551e+01    1.126375e+00
  2.026139e+01    1.113268e+00
  2.027726e+01    1.112586e+00
  2.029314e+01    1.106718e+00
  2.030902e+01    1.109730e+00
  2.032489e+01    1.136956e+00
  2.034077e+01    1.126232e+00
  2.035664e+01    1.098813e+00
  2.037252e+01    1.105139e+00
  2.038839e+01    1.120044e+00
  2.040427e+01    1.101266e+00
  2.042014e+01    1.100610e+00
  2.043602e+01    1.093763e+00
  2.045190e+01    1.114630e+00
  2.046777e+01    1.122284e+00
  2.048365e+01    1.122527e+00
  2.049952e+01    1.116528e+00
  2.051540e+01    1.103530e+00
  2.053127e+01    1.112721e+00
  2.054715e+01    1.109313e+00
  2.056302e+01    1.100583e+00
  2.057890e+01    1.097860e+00
  2.059478e+01    1.104275e+00
  2.061065e+01    1.089183e+00
  2.062653e+01    1.082723e+00
  2.064240e+01    1.106117e+00
  2.065828e+01    1.111075e+00
  2.067415e+01    1.101565e+00
  2.069003e+01    1.097118e+00
  2.070590e+01    1.085056e+00
  2.072178e+01    1.096643e+00
  2.073766e+01    1.093495e+00
  2.075353e+01    1.091120e+00
  2.076941e+01    1.097046e+00
  2.078528e+01    1.095932e+00
  2.080116e+01    1.092807e+00
  2.081703e+01    1.074242e+00
  2.083291e+01    1.093709e+00
  2.084878e+01    1.106273e+00
  2.086466e+01    1.089761e+00
  2.088054e+01    1.088562e+00
  2.089641e+01    1.104114e+00
  2.091229e+01    1.096974e+00
  2.092816e+01    1.079516e+00
  2.094404e+01    1.098118e+00
  2.095991e+01    1.099474e+00
  2.097579e+01    1.094642e+00
  2.099166e+01    1.105292e+00
  2.100754e+01    1.108072e+00
  2.102342e+01    1.109142e+00
  2.103929e+01    1.092338e+00
  2.105517e+01    1.090928e+00
  2.107104e+01    1.113071e+00
  2.108692e+01    1.113757e+00
  2.110279e+01    1.104338e+00
  2.111867e+01    1.120936e+00
  2.113455e+01    1.098860e+00
  2.115042e+01    1.113028e+00
  2.116630e+01    1.116966e+00
  2.118217e+01    1.112354e+00
  2.119805e+01    1.117672e+00
  2.121392e+01    1.122833e+00
  2.122980e+01    1.129432e+00
  2.124567e+01    1.141929e+00
  2.126155e+01    1.110667e+00
  2.127743e+01    1.129338e+00
  2.129330e+01    1.142924e+00
  2.130918e+01    1.140661e+00
  2.132505e+01    1.149529e+00
  2.134093e+01    1.159388e+00
  2.135680e+01    1.164363e+00
  2.137268e+01    1.171562e+00
  2.138855e+01    1.198477e+00
  2.140443e+01    1.208024e+00
  2.142031e+01    1.184599e+00
  2.143618e+01    1.216293e+00
  2.145206e+01    1.219384e+00
  2.146793e+01    1.245506e+00
  2.148381e+01    1.251123e+00
  2.149968e+01    1.279099e+00
  2.151556e+01    1.303106e+00
  2.153143e+01    1.324564e+00
  2.154731e+01    1.345814e+00
  2.156319e+01    1.373250e+00
  2.157906e+01    1.465331e+00
  2.159494e+01    1.524626e+00
  2.161081e+01    1.564943e+00
  2.162669e+01    1.632570e+00
  2.164256e+01    1.723875e+00
  2.165844e+01    1.852838e+00
  2.167431e+01    1.965077e+00
  2.169019e+01    2.114696e+00
  2.170607e+01    2.301090e+00
  2.172194e+01    2.559406e+00
  2.173782e+01    2.841721e+00
  2.175369e+01    3.210099e+00
  2.176957e+01    3.647668e+00
  2.178544e+01    4.124477e+00
  2.180132e+01    4.828888e+00
  2.181719e+01    5.586715e+00
  2.183307e+01    6.328834e+00
  2.184895e+01    7.169695e+00
  2.186482e+01    8.006006e+00
  2.188070e+01    8.919856e+00
  2.189657e+01    9.876126e+00
  2.191245e+01    1.055360e+01
  2.192832e+01    1.095795e+01
  2.194420e+01    1.096928e+01
  2.196007e+01    1.049464e+01
  2.197595e+01    9.571692e+00
  2.199183e+01    8.454397e+00
  2.200770e+01    7.217006e+00
  2.202358e+01    6.058921e+00
  2.203945e+01    5.134335e+00
  2.205533e+01    4.372136e+00
  2.207120e+01    3.732294e+00
  2.208708e+01    3.273440e+00
  2.210296e+01    2.888329e+00
  2.211883e+01    2.566567e+00
  2.213471e+01    2.340019e+00
  2.215058e+01    2.120043e+00
  2.216646e+01    1.949478e+00
  2.218233e+01    1.828914e+00
  2.219821e+01    1.709784e+00
  2.221408e+01    1.615751e+00
  2.222996e+01    1.552150e+00
  2.224584e+01    1.489817e+00
  2.226171e+01    1.421978e+00
  2.227759e+01    1.371013e+00
  2.229346e+01    1.337597e+00
  2.230934e+01    1.284867e+00
  2.232521e+01    1.254031e+00
  2.234109e+01    1.235844e+00
  2.235696e+01    1.200369e+00
  2.237284e+01    1.160397e+00
  2.238872e+01    1.172958e+00
  2.240459e+01    1.161707e+00
  2.242047e+01    1.124307e+00
  2.243634e+01    1.125084e+00
  2.245222e+01    1.087731e+00
  2.246809e+01    1.088516e+00
  2.248397e+01    1.073237e+00
  2.249984e+01    1.052788e+00
  2.251572e+01    1.044940e+00
  2.253160e+01    1.056885e+00
  2.254747e+01    1.037648e+00
  2.256335e+01    1.028306e+00
  2.257922e+01    1.014148e+00
  2.259510e+01    1.003407e+00
  2.261097e+01    1.000542e+00
  2.262685e+01    1.022973e+00
  2.264272e+01    1.011418e+00
  2.265860e+01    9.962825e-01
  2.267448e+01    9.613791e-01
  2.269035e+01    9.632645e-01
  2.270623e+01    9.746966e-01
  2.272210e+01    9.735334e-01
  2.273798e+01    9.875038e-01
  2.275385e+01    9.871660e-01
  2.276973e+01    9.936786e-01
  2.278560e+01    9.755586e-01
  2.280148e+01    9.533124e-01
  2.281736e+01    9.574694e-01
  2.283323e+01    9.607447e-01
  2.284911e+01    9.427456e-01
  2.286498e+01    9.250115e-01
  2.288086e+01    9.349023e-01
  2.289673e+01    9.505628e-01
  2.291261e+01    9.436940e-01
  2.292848e+01    9.342986e-01
  2.294436e+01    9.410834e-01
  2.296024e+01    9.285646e-01
  2.297611e+01    9.201181e-01
  2.299199e+01    9.275174e-01
  2.300786e+01    9.184950e-01
  2.302374e+01    9.117711e-01
  2.303961e+01    9.021693e-01
  2.305549e+01    9.085391e-01
  2.307137e+01    9.007603e-01
  2.308724e+01    8.876620e-01
  2.310312e+01    9.115084e-01
  2.311899e+01    9.070349e-01
  2.313487e+01    9.054934e-01
  2.315074e+01    8.898924e-01
  2.316662e+01    8.913603e-01
  2.318249e+01    8.940741e-01
  2.319837e+01    8.894192e-01
  2.321425e+01    8.723068e-01
  2.323012e+01    8.653495e-01
  2.324600e+01    8.903251e-01
  2.326187e+01    8.837910e-01
  2.327775e+01    8.749551e-01
  2.329362e+01    8.723036e-01
  2.330950e+01    8.716433e-01
  2.332537e+01    8.587769e-01
  2.334125e+01    8.737614e-01
  2.335713e+01    8.848748e-01
  2.337300e+01    8.902394e-01
  2.338888e+01    8.769211e-01
  2.340475e+01    8.823785e-01
  2.342063e+01    8.563725e-01
  2.343650e+01    8.575032e-01
  2.345238e+01    8.807359e-01
  2.346825e+01    8.870094e-01
  2.348413e+01    8.764184e-01
  2.350001e+01    8.453408e-01
  2.351588e+01    8.461891e-01
  2.353176e+01    8.574405e-01
  2.354763e+01    8.397340e-01
  2.356351e+01    8.541705e-01
  2.357938e+01    8.624325e-01
  2.359526e+01    8.470216e-01
  2.361113e+01    8.432793e-01
  2.362701e+01    8.491589e-01
  2.364289e+01    8.432711e-01
  2.365876e+01    8.534012e-01
  2.367464e+01    8.417934e-01
  2.369051e+01    8.557210e-01
  2.370639e+01    8.374951e-01
  2.372226e+01    8.154995e-01
  2.373814e+01    8.250808e-01
  2.375401e+01    8.232771e-01
  2.376989e+01    8.293868e-01
  2.378577e+01    8.060436e-01
  2.380164e+01    8.006512e-01
  2.381752e+01    8.207388e-01
  2.383339e+01    8.037275e-01
  2.384927e+01    8.201919e-01
  2.386514e+01    8.168439e-01
  2.388102e+01    8.180335e-01
  2.389689e+01    8.266579e-01
  2.391277e+01    8.314482e-01
  2.392865e+01    8.239378e-01
  2.394452e+01    8.319453e-01
  2.396040e+01    8.155050e-01
  2.397627e+01    8.138483e-01
  2.399215e+01    7.992889e-01
  2.400802e+01    7.858166e-01
  2.402390e+01    7.986544e-01
  2.403978e+01    7.973686e-01
  2.405565e+01    7.880611e-01
  2.407153e+01    7.920866e-01
  2.408740e+01    7.998658e-01
  2.410328e+01    8.095891e-01
  2.411915e+01    8.009419e-01
  2.413503e+01    8.054529e-01
  2.415090e+01    8.047616e-01
  2.416678e+01    8.114378e-01
  2.418266e+01    7.809433e-01
  2.419853e+01    7.665525e-01
  2.421441e+01    7.871115e-01
  2.423028e+01    7.668697e-01
  2.424616e+01    7.993891e-01
  2.426203e+01    8.226016e-01
  2.427791e+01    8.104064e-01
  2.429378e+01    7.895585e-01
  2.430966e+01    7.994055e-01
  2.432554e+01    8.190410e-01
  2.434141e+01    8.143525e-01
  2.435729e+01    8.017552e-01
  2.437316e+01    8.121644e-01
  2.438904e+01    7.984170e-01
  2.440491e+01    8.207612e-01
  2.442079e+01    8.093423e-01
  2.443666e+01    8.031930e-01
  2.445254e+01    7.968701e-01
  2.446842e+01    7.939521e-01
  2.448429e+01    8.069648e-01
  2.450017e+01    8.108561e-01
  2.451604e+01    7.994703e-01
  2.453192e+01    8.178289e-01
  2.454779e+01    8.106319e-01
  2.456367e+01    8.083252e-01
  2.457954e+01    8.158962e-01
  2.459542e+01    8.113468e-01
  2.461130e+01    7.991883e-01
  2.462717e+01    7.941824e-01
  2.464305e+01    7.958798e-01
  2.465892e+01    8.057142e-01
  2.467480e+01    8.168527e-01
  2.469067e+01    8.140413e-01
  2.470655e+01    7.983850e-01
  2.472242e+01    8.077053e-01
  2.473830e+01    8.078285e-01
  2.475418e+01    8.093776e-01
  2.477005e+01    7.895778e-01
  2.478593e+01    7.770028e-01
  2.480180e+01    7.935426e-01
  2.481768e+01    7.887717e-01
  2.483355e+01    7.989665e-01
  2.484943e+01    8.182237e-01
  2.486530e+01    8.033170e-01
  2.488118e+01    8.001602e-01
  2.489706e+01    7.939558e-01
  2.491293e+01    8.012857e-01
  2.492881e+01    8.181546e-01
  2.494468e+01    8.080884e-01
  2.496056e+01    8.163409e-01
  2.497643e+01    8.177865e-01
  2.499231e+01    8.112668e-01
  2.500819e+01    8.169809e-01
  2.502406e+01    8.356656e-01
  2.503994e+01    8.245904e-01
  2.505581e+01    8.177453e-01
  2.507169e+01    8.262628e-01
  2.508756e+01    8.298479e-01
  2.510344e+01    8.137473e-01
  2.511931e+01    8.202776e-01
  2.513519e+01    8.324444e-01
  2.515107e+01    8.397778e-01
  2.516694e+01    8.355888e-01
  2.518282e+01    8.556980e-01
  2.519869e+01    8.748679e-01
  2.521457e+01    8.643432e-01
  2.523044e+01    8.648973e-01
  2.524632e+01    8.710040e-01
  2.526219e+01    8.645296e-01
  2.527807e+01    8.548974e-01
  2.529395e+01    8.598877e-01
  2.530982e+01    8.849953e-01
  2.532570e+01    8.938524e-01
  2.534157e+01    8.784396e-01
  2.535745e+01    8.825368e-01
  2.537332e+01    8.889512e-01
  2.538920e+01    9.031380e-01
  2.540507e+01    9.464800e-01
  2.542095e+01    9.584637e-01
  2.543683e+01    9.331908e-01
  2.545270e+01    9.386587e-01
  2.546858e+01    9.556807e-01
  2.548445e+01    9.708014e-01
  2.550033e+01    9.636486e-01
  2.551620e+01    9.992802e-01
  2.553208e+01    1.016399e+00
  2.554795e+01    1.024814e+00
  2.556383e+01    1.050906e+00
  2.557971e+01    1.083953e+00
  2.559558e+01    1.079558e+00
  2.561146e+01    1.072386e+00
  2.562733e+01    1.129574e+00
  2.564321e+01    1.173264e+00
  2.565908e+01    1.209271e+00
  2.567496e+01    1.249479e+00
  2.569083e+01    1.338058e+00
  2.570671e+01    1.394322e+00
  2.572259e+01    1.470444e+00
  2.573846e+01    1.596759e+00
  2.575434e+01    1.701405e+00
  2.577021e+01    1.824921e+00
  2.578609e+01    1.986758e+00
  2.580196e+01    2.195505e+00
  2.581784e+01    2.441882e+00
  2.583371e+01    2.793922e+00
  2.584959e+01    3.212035e+00
  2.586547e+01    3.667256e+00
  2.588134e+01    4.198259e+00
  2.589722e+01    4.889194e+00
  2.591309e+01    5.606813e+00
  2.592897e+01    6.351542e+00
  2.594484e+01    7.157475e+00
  2.596072e+01    7.843520e+00
  2.597660e+01    8.577971e+00
  2.599247e+01    8.987836e+00
  2.600835e+01    9.091440e+00
  2.602422e+01    8.890980e+00
  2.604010e+01    8.337709e+00
  2.605597e+01    7.552906e+00
  2.607185e+01    6.625306e+00
  2.608772e+01    5.679792e+00
  2.610360e+01    4.843187e+00
  2.611948e+01    4.102222e+00
  2.613535e+01    3.571138e+00
  2.615123e+01    3.106071e+00
  2.616710e+01    2.714525e+00
  2.618298e+01    2.429708e+00
  2.619885e+01    2.174099e+00
  2.621473e+01    1.987276e+00
  2.623060e+01    1.839952e+00
  2.624648e+01    1.717467e+00
  2.626236e+01    1.593559e+00
  2.627823e+01    1.477933e+00
  2.629411e+01    1.403399e+00
  2.630998e+01    1.334008e+00
  2.632586e+01    1.261402e+00
  2.634173e+01    1.219382e+00
  2.635761e+01    1.172381e+00
  2.637348e+01    1.143361e+00
  2.638936e+01    1.137214e+00
  2.640524e+01    1.090114e+00
  2.642111e+01    1.072071e+00
  2.643699e+01    1.053626e+00
  2.645286e+01    1.040390e+00
  2.646874e+01    1.038336e+00
  2.648461e+01    1.024617e+00
  2.650049e+01    1.022697e+00
  2.651636e+01    9.933183e-01
  2.653224e+01    9.580076e-01
  2.654812e+01    9.495569e-01
  2.656399e+01    9.548935e-01
  2.657987e+01    9.747576e-01
  2.659574e+01    9.845996e-01
  2.661162e+01    9.587762e-01
  2.662749e+01    9.284364e-01
  2.664337e+01    9.310932e-01
  2.665924e+01    9.219621e-01
  2.667512e+01    9.186785e-01
  2.669100e+01    9.371247e-01
  2.670687e+01    9.329327e-01
  2.672275e+01    9.381000e-01
  2.673862e+01    9.316910e-01
  2.675450e+01    9.217749e-01
  2.677037e+01    9.271085e-01
  2.678625e+01    9.323873e-01
  2.680212e+01    9.295952e-01
  2.681800e+01    9.103661e-01
  2.683388e+01    9.270697e-01
  2.684975e+01    9.248019e-01
  2.686563e+01    9.374131e-01
  2.688150e+01    9.233666e-01
  2.689738e+01    9.221100e-01
  2.691325e+01    9.358362e-01
  2.692913e+01    9.393622e-01
  2.694501e+01    9.401658e-01
  2.696088e+01    9.708638e-01
  2.697676e+01    9.736768e-01
  2.699263e+01    9.944357e-01
  2.700851e+01    1.003121e+00
  2.702438e+01    1.029128e+00
  2.704026e+01    1.092961e+00
  2.705613e+01    1.097534e+00
  2.707201e+01    1.131221e+00
  2.708789e+01    1.202190e+00
  2.710376e+01    1.259482e+00
  2.711964e+01    1.350037e+00
  2.713551e+01    1.460172e+00
  2.715139e+01    1.556257e+00
  2.716726e+01    1.684838e+00
  2.718314e+01    1.872875e+00
  2.719901e+01    2.058107e+00
  2.721489e+01    2.232997e+00
  2.723077e+01    2.392206e+00
  2.724664e+01    2.567289e+00
  2.726252e+01    2.622215e+00
  2.727839e+01    2.572255e+00
  2.729427e+01    2.496948e+00
  2.731014e+01    2.340432e+00
  2.732602e+01    2.150791e+00
  2.734189e+01    1.940334e+00
  2.735777e+01    1.771437e+00
  2.737365e+01    1.654462e+00
  2.738952e+01    1.512217e+00
  2.740540e+01    1.399417e+00
  2.742127e+01    1.291105e+00
  2.743715e+01    1.238771e+00
  2.745302e+01    1.177983e+00
  2.746890e+01    1.118488e+00
  2.748477e+01    1.052165e+00
  2.750065e+01    1.017566e+00
  2.751653e+01    9.802415e-01
  2.753240e+01    9.731542e-01
  2.754828e+01    9.552429e-01
  2.756415e+01    9.317676e-01
  2.758003e+01    9.346869e-01
  2.759590e+01    9.272442e-01
  2.761178e+01    8.849770e-01
  2.762765e+01    8.703007e-01
  2.764353e+01    8.773047e-01
  2.765941e+01    8.823949e-01
  2.767528e+01    8.912382e-01
  2.769116e+01    8.596303e-01
  2.770703e+01    8.615692e-01
  2.772291e+01    8.665290e-01
  2.773878e+01    8.689592e-01
  2.775466e+01    8.624321e-01
  2.777054e+01    8.467062e-01
  2.778641e+01    8.511798e-01
  2.780229e+01    8.509468e-01
  2.781816e+01    8.219459e-01
  2.783404e+01    8.221944e-01
  2.784991e+01    8.173030e-01
  2.786579e+01    8.337055e-01
  2.788166e+01    8.274525e-01
  2.789754e+01    8.248050e-01
  2.791342e+01    8.152160e-01
  2.792929e+01    8.211866e-01
  2.794517e+01    8.292565e-01
  2.796104e+01    8.115376e-01
  2.797692e+01    8.331181e-01
  2.799279e+01    8.157535e-01
  2.800867e+01    8.073418e-01
  2.802454e+01    8.126903e-01
  2.804042e+01    7.991235e-01
  2.805630e+01    8.061821e-01
  2.807217e+01    8.062910e-01
  2.808805e+01    8.027456e-01
  2.810392e+01    8.258744e-01
  2.811980e+01    8.070692e-01
  2.813567e+01    7.891392e-01
  2.815155e+01    8.016587e-01
  2.816742e+01    8.138450e-01
  2.818330e+01    7.864475e-01
  2.819918e+01    8.112246e-01
  2.821505e+01    8.152976e-01
  2.823093e+01    8.091436e-01
  2.824680e+01    8.147604e-01
  2.826268e+01    8.090415e-01
  2.827855e+01    8.032373e-01
  2.829443e+01    8.131979e-01
  2.831030e+01    8.094847e-01
  2.832618e+01    7.801162e-01
  2.834206e+01    8.014367e-01
  2.835793e+01    8.067147e-01
  2.837381e+01    7.842919e-01
  2.838968e+01    7.723775e-01
  2.840556e+01    7.813224e-01
  2.842143e+01    7.733209e-01
  2.843731e+01    7.642791e-01
  2.845318e+01    7.878050e-01
  2.846906e+01    7.945694e-01
  2.848494e+01    7.649744e-01
  2.850081e+01    7.656470e-01
  2.851669e+01    7.565058e-01
  2.853256e+01    7.642649e-01
  2.854844e+01    7.708189e-01
  2.856431e+01    7.784809e-01
  2.858019e+01    7.979508e-01
  2.859606e+01    7.696370e-01
  2.861194e+01    7.667085e-01
  2.862782e+01    7.928055e-01
  2.864369e+01    7.827128e-01
  2.865957e+01    7.807808e-01
  2.867544e+01    7.563979e-01
  2.869132e+01    7.676807e-01
  2.870719e+01    7.771558e-01
  2.872307e+01    7.840484e-01
  2.873895e+01    7.615043e-01
  2.875482e+01    7.709163e-01
  2.877070e+01    7.648276e-01
  2.878657e+01    7.534747e-01
  2.880245e+01    7.558581e-01
  2.881832e+01    7.527635e-01
  2.883420e+01    7.777258e-01
  2.885007e+01    7.915624e-01
  2.886595e+01    7.462773e-01
  2.888183e+01    7.643266e-01
  2.889770e+01    7.556559e-01
  2.891358e+01    7.536743e-01
  2.892945e+01    7.670504e-01
  2.894533e+01    7.750396e-01
  2.896120e+01    7.642951e-01
  2.897708e+01    7.652599e-01
  2.899295e+01    7.665452e-01
  2.900883e+01    7.695025e-01
  2.902471e+01    7.406663e-01
  2.904058e+01    7.665622e-01
  2.905646e+01    7.648354e-01
  2.907233e+01    7.521973e-01
  2.908821e+01    7.597381e-01
  2.910408e+01    7.688788e-01
  2.911996e+01    7.695719e-01
  2.913583e+01    7.630916e-01
  2.915171e+01    7.520689e-01
  2.916759e+01    7.602459e-01
  2.918346e+01    7.343236e-01
  2.919934e+01    7.395453e-01
  2.921521e+01    7.444618e-01
  2.923109e+01    7.533716e-01
  2.924696e+01    7.393143e-01
  2.926284e+01    7.440814e-01
  2.927871e+01    7.442974e-01
  2.929459e+01    7.557052e-01
  2.931047e+01    7.524195e-01
  2.932634e+01    7.504447e-01
  2.934222e+01    7.499731e-01
  2.935809e+01    7.433661e-01
  2.937397e+01    7.690899e-01
  2.938984e+01    7.271954e-01
  2.940572e+01    7.247744e-01
  2.942159e+01    7.409266e-01
  2.943747e+01    7.304770e-01
  2.945335e+01    7.314308e-01
  2.946922e+01    7.334349e-01
  2.948510e+01    7.486774e-01
  2.950097e+01    7.227623e-01
  2.951685e+01    7.202906e-01
  2.953272e+01    7.418435e-01
  2.954860e+01    7.472665e-01
  2.956447e+01    7.217981e-01
  2.958035e+01    7.294802e-01
  2.959623e+01    7.338643e-01
  2.961210e+01    7.404809e-01
  2.962798e+01    7.309256e-01
  2.964385e+01    7.148078e-01
  2.965973e+01    7.303362e-01
  2.967560e+01    7.246970e-01
  2.969148e+01    7.270156e-01
  2.970736e+01    7.326522e-01
  2.972323e+01    7.162081e-01
  2.973911e+01    7.328997e-01
  2.975498e+01    7.506214e-01
  2.977086e+01    7.198386e-01
  2.978673e+01    7.305879e-01
  2.980261e+01    7.350547e-01
  2.981848e+01    7.387189e-01
  2.983436e+01    7.398257e-01
  2.985024e+01    7.550027e-01
  2.986611e+01    7.471952e-01
  2.988199e+01    7.311369e-01
  2.989786e+01    7.446485e-01
  2.991374e+01    7.350826e-01
  2.992961e+01    7.112974e-01
  2.994549e+01    7.069697e-01
  2.996136e+01    7.111180e-01
  2.997724e+01    7.380524e-01
  2.999312e+01    7.273738e-01
  3.000899e+01    7.319244e-01
  3.002487e+01    7.374292e-01
  3.004074e+01    7.491627e-01
  3.005662e+01    7.309702e-01
  3.007249e+01    7.342027e-01
  3.008837e+01    7.422072e-01
  3.010424e+01    7.267919e-01
  3.012012e+01    7.556023e-01
  3.013600e+01    7.337744e-01
  3.015187e+01    7.235752e-01
  3.016775e+01    7.285928e-01
  3.018362e+01    7.317395e-01
  3.019950e+01    7.311296e-01
  3.021537e+01    7.389017e-01
  3.023125e+01    7.427747e-01
  3.024712e+01    7.327925e-01
  3.026300e+01    7.150401e-01
  3.027888e+01    7.475716e-01
  3.029475e+01    7.328817e-01
  3.031063e+01    7.155287e-01
  3.032650e+01    7.538669e-01
  3.034238e+01    7.293144e-01
  3.035825e+01    7.297650e-01
  3.037413e+01    7.412516e-01
  3.039000e+01    7.182978e-01
  3.040588e+01    7.136562e-01
  3.042176e+01    7.234740e-01
  3.043763e+01    7.195632e-01
  3.045351e+01    7.335851e-01
  3.046938e+01    7.383875e-01
  3.048526e+01    7.279178e-01
  3.050113e+01    7.224151e-01
  3.051701e+01    7.281185e-01
  3.053288e+01    7.413172e-01
  3.054876e+01    7.453508e-01
  3.056464e+01    7.356712e-01
  3.058051e+01    7.223246e-01
  3.059639e+01    7.281818e-01
  3.061226e+01    7.213684e-01
  3.062814e+01    7.371098e-01
  3.064401e+01    7.359959e-01
  3.065989e+01    7.408235e-01
  3.067577e+01    7.355762e-01
  3.069164e+01    7.383624e-01
  3.070752e+01    7.156608e-01
  3.072339e+01    7.341402e-01
  3.073927e+01    7.235492e-01
  3.075514e+01    7.424797e-01
  3.077102e+01    7.282380e-01
  3.078689e+01    7.401555e-01
  3.080277e+01    7.554643e-01
  3.081865e+01    7.182664e-01
  3.083452e+01    7.303249e-01
  3.085040e+01    7.157484e-01
  3.086627e+01    7.127272e-01
  3.088215e+01    7.336785e-01
  3.089802e+01    7.417519e-01
  3.091390e+01    7.235073e-01
  3.092977e+01    7.184625e-01
  3.094565e+01    7.290018e-01
  3.096153e+01    7.190642e-01
  3.097740e+01    7.205948e-01
  3.099328e+01    7.044581e-01
  3.100915e+01    7.304558e-01
  3.102503e+01    7.336135e-01
  3.104090e+01    7.500985e-01
  3.105678e+01    7.617453e-01
  3.107265e+01    7.486680e-01
  3.108853e+01    7.370651e-01
  3.110441e+01    7.112072e-01
  3.112028e+01    7.273644e-01
  3.113616e+01    7.257640e-01
  3.115203e+01    7.236520e-01
  3.116791e+01    7.454416e-01
  3.118378e+01    7.173474e-01
  3.119966e+01    7.378498e-01
  3.121553e+01    7.397015e-01
  3.123141e+01    7.287919e-01
  3.124729e+01    7.402229e-01
  3.126316e+01    7.351331e-01
  3.127904e+01    7.394647e-01
  3.129491e+01    7.574041e-01
  3.131079e+01    7.506446e-01
  3.132666e+01    7.429045e-01
  3.134254e+01    7.441426e-01
  3.135841e+01    7.412214e-01
  3.137429e+01    7.596713e-01
  3.139017e+01    7.488481e-01
  3.140604e+01    7.582343e-01
  3.142192e+01    7.702892e-01
  3.143779e+01    7.707384e-01
  3.145367e+01    7.540084e-01
  3.146954e+01    7.582777e-01
  3.148542e+01    7.668021e-01
  3.150129e+01    7.732251e-01
  3.151717e+01    7.846299e-01
  3.153305e+01    8.037270e-01
  3.154892e+01    7.908497e-01
  3.156480e+01    7.848033e-01
  3.158067e+01    8.056110e-01
  3.159655e+01    7.976143e-01
  3.161242e+01    8.108165e-01
  3.162830e+01    8.291773e-01
  3.164418e+01    8.385625e-01
  3.166005e+01    8.546987e-01
  3.167593e+01    9.095772e-01
  3.169180e+01    9.125211e-01
  3.170768e+01    9.020253e-01
  3.172355e+01    9.131854e-01
  3.173943e+01    9.753297e-01
  3.175530e+01    1.010702e+00
  3.177118e+01    1.057473e+00
  3.178706e+01    1.128763e+00
  3.180293e+01    1.202054e+00
  3.181881e+01    1.296683e+00
  3.183468e+01    1.428346e+00
  3.185056e+01    1.542467e+00
  3.186643e+01    1.685153e+00
  3.188231e+01    1.846769e+00
  3.189818e+01    2.023004e+00
  3.191406e+01    2.236876e+00
  3.192994e+01    2.425857e+00
  3.194581e+01    2.546810e+00
  3.196169e+01    2.637131e+00
  3.197756e+01    2.577862e+00
  3.199344e+01    2.447160e+00
  3.200931e+01    2.319377e+00
  3.202519e+01    2.129819e+00
  3.204106e+01    1.978058e+00
  3.205694e+01    1.738903e+00
  3.207282e+01    1.548067e+00
  3.208869e+01    1.414137e+00
  3.210457e+01    1.297799e+00
  3.212044e+01    1.196060e+00
  3.213632e+01    1.118399e+00
  3.215219e+01    1.037628e+00
  3.216807e+01    1.001941e+00
  3.218394e+01    9.635339e-01
  3.219982e+01    9.440826e-01
  3.221570e+01    9.075508e-01
  3.223157e+01    8.929127e-01
  3.224745e+01    8.634275e-01
  3.226332e+01    8.372117e-01
  3.227920e+01    8.121020e-01
  3.229507e+01    8.160271e-01
  3.231095e+01    8.096497e-01
  3.232682e+01    7.904658e-01
  3.234270e+01    7.894959e-01
  3.235858e+01    7.683882e-01
  3.237445e+01    7.619343e-01
  3.239033e+01    7.771385e-01
  3.240620e+01    8.097864e-01
  3.242208e+01    7.770580e-01
  3.243795e+01    7.608888e-01
  3.245383e+01    7.658435e-01
  3.246970e+01    7.595485e-01
  3.248558e+01    7.488033e-01
  3.250146e+01    7.262771e-01
  3.251733e+01    7.330297e-01
  3.253321e+01    7.651193e-01
  3.254908e+01    7.469566e-01
