# == pyFAI calibration ==
# Distance Sample to Detector: 0.3999999939076516 m
# PONI: 9.750e-02, 1.135e-01 m
# Rotations: -0.000175 0.000000 -0.000000 rad
# 
# == Fit2d calibration ==
# Distance Sample-beamCenter: 400.000 mm
# Center: x=1514.000, y=1300.000 pix
# Tilt: 0.010 deg  TiltPlanRot: 0.010 deg
# 
# Detector Detector	 Spline= None	 PixelSize= 7.500e-05, 7.500e-05 m
#    Detector has a mask: False 
#    Detector has a dark current: False 
#    detector has a flat field: False 
# 
# Wavelength: 6.888e-11 m
# Mask applied: user provided
# Dark current applied: False
# Flat field applied: False
# Polarization factor: 0.99
# Normalization factor: 1.0
# --> /home/myspot/data/2024_07_Rosario/Ru-CGO-ex/2024-07-27_002_Ru-CGO-ex_Activtation_ramp_000002_data_000059.dat
#       q_nm^-1             I 
  2.003187e-02    0.000000e+00
  3.590745e-02    0.000000e+00
  5.178302e-02    0.000000e+00
  6.765859e-02    5.235185e-02
  8.353417e-02    1.032867e-01
  9.940974e-02    7.886928e-02
  1.152853e-01    9.524145e-02
  1.311609e-01    7.790959e-02
  1.470365e-01    7.443251e-02
  1.629120e-01    4.616783e-02
  1.787876e-01    3.071125e-02
  1.946632e-01    3.261720e-02
  2.105388e-01    2.169819e-02
  2.264143e-01    2.561842e-02
  2.422899e-01    3.003633e-02
  2.581655e-01    5.501413e-02
  2.740411e-01    5.891678e-02
  2.899166e-01    2.628678e-02
  3.057922e-01    2.543910e-02
  3.216678e-01    3.847612e-02
  3.375433e-01    1.874702e-02
  3.534189e-01    1.284399e-02
  3.692945e-01    1.107341e-02
  3.851701e-01    4.221372e-02
  4.010456e-01    5.515947e-02
  4.169212e-01    5.823527e-02
  4.327968e-01    7.696947e-02
  4.486724e-01    5.001532e-02
  4.645479e-01    3.492050e-02
  4.804235e-01    3.901064e-02
  4.962991e-01    4.571449e-02
  5.121747e-01    3.064670e-02
  5.280502e-01    3.439886e-02
  5.439258e-01    2.443003e-02
  5.598014e-01    4.742280e-02
  5.756770e-01    2.527740e-02
  5.915525e-01    3.931972e-02
  6.074281e-01    5.748230e-02
  6.233037e-01    2.370350e-02
  6.391793e-01    4.353545e-02
  6.550548e-01    3.997872e-02
  6.709304e-01    4.740315e-02
  6.868060e-01    4.024059e-02
  7.026815e-01    1.595931e-02
  7.185571e-01    2.218646e-02
  7.344327e-01    3.609000e-02
  7.503083e-01    6.436140e-02
  7.661838e-01    8.966123e-02
  7.820594e-01    1.210621e-01
  7.979350e-01    1.602050e-01
  8.138106e-01    2.209276e-01
  8.296861e-01    2.353055e-01
  8.455617e-01    2.706052e-01
  8.614373e-01    3.405522e-01
  8.773129e-01    3.745943e-01
  8.931884e-01    4.962021e-01
  9.090640e-01    5.758380e-01
  9.249396e-01    6.572115e-01
  9.408152e-01    7.533367e-01
  9.566907e-01    8.475212e-01
  9.725663e-01    9.529067e-01
  9.884419e-01    9.553927e-01
  1.004317e+00    9.719347e-01
  1.020193e+00    1.026789e+00
  1.036069e+00    1.046942e+00
  1.051944e+00    1.182368e+00
  1.067820e+00    1.315879e+00
  1.083695e+00    1.320353e+00
  1.099571e+00    1.346595e+00
  1.115446e+00    1.472615e+00
  1.131322e+00    1.519633e+00
  1.147198e+00    1.447991e+00
  1.163073e+00    1.520122e+00
  1.178949e+00    1.543041e+00
  1.194824e+00    1.585760e+00
  1.210700e+00    1.831256e+00
  1.226575e+00    2.170607e+00
  1.242451e+00    2.298741e+00
  1.258327e+00    2.419240e+00
  1.274202e+00    2.512010e+00
  1.290078e+00    2.551715e+00
  1.305953e+00    2.545045e+00
  1.321829e+00    2.473507e+00
  1.337705e+00    2.605722e+00
  1.353580e+00    2.617602e+00
  1.369456e+00    2.616068e+00
  1.385331e+00    2.766084e+00
  1.401207e+00    2.751066e+00
  1.417082e+00    2.686590e+00
  1.432958e+00    2.818759e+00
  1.448834e+00    2.755627e+00
  1.464709e+00    2.810898e+00
  1.480585e+00    2.827613e+00
  1.496460e+00    2.896641e+00
  1.512336e+00    2.987336e+00
  1.528211e+00    2.973577e+00
  1.544087e+00    3.066733e+00
  1.559963e+00    3.029211e+00
  1.575838e+00    2.954042e+00
  1.591714e+00    3.006157e+00
  1.607589e+00    3.021505e+00
  1.623465e+00    3.063247e+00
  1.639340e+00    2.947471e+00
  1.655216e+00    2.882752e+00
  1.671092e+00    2.923688e+00
  1.686967e+00    2.858309e+00
  1.702843e+00    2.836739e+00
  1.718718e+00    2.892170e+00
  1.734594e+00    2.901190e+00
  1.750469e+00    2.862213e+00
  1.766345e+00    2.778118e+00
  1.782221e+00    2.727057e+00
  1.798096e+00    2.764751e+00
  1.813972e+00    2.698030e+00
  1.829847e+00    2.721648e+00
  1.845723e+00    2.789782e+00
  1.861598e+00    2.812604e+00
  1.877474e+00    2.811728e+00
  1.893350e+00    2.799244e+00
  1.909225e+00    2.818495e+00
  1.925101e+00    2.934976e+00
  1.940976e+00    2.870256e+00
  1.956852e+00    2.790146e+00
  1.972727e+00    2.730907e+00
  1.988603e+00    2.831674e+00
  2.004479e+00    2.837358e+00
  2.020354e+00    2.796784e+00
  2.036230e+00    2.797005e+00
  2.052105e+00    2.831216e+00
  2.067981e+00    2.799802e+00
  2.083856e+00    2.715248e+00
  2.099732e+00    2.708181e+00
  2.115608e+00    2.833757e+00
  2.131483e+00    2.782705e+00
  2.147359e+00    2.706974e+00
  2.163234e+00    2.718906e+00
  2.179110e+00    2.726021e+00
  2.194985e+00    2.809320e+00
  2.210861e+00    2.778609e+00
  2.226737e+00    2.692853e+00
  2.242612e+00    2.807763e+00
  2.258488e+00    2.871381e+00
  2.274363e+00    2.864462e+00
  2.290239e+00    2.822143e+00
  2.306115e+00    2.838924e+00
  2.321990e+00    2.933722e+00
  2.337866e+00    2.966643e+00
  2.353741e+00    2.839774e+00
  2.369617e+00    2.849773e+00
  2.385492e+00    2.722286e+00
  2.401368e+00    2.700469e+00
  2.417244e+00    2.817391e+00
  2.433119e+00    2.756998e+00
  2.448995e+00    2.617384e+00
  2.464870e+00    2.730951e+00
  2.480746e+00    2.810094e+00
  2.496621e+00    2.723824e+00
  2.512497e+00    2.769302e+00
  2.528373e+00    2.835629e+00
  2.544248e+00    2.784339e+00
  2.560124e+00    2.782081e+00
  2.575999e+00    2.759864e+00
  2.591875e+00    2.731475e+00
  2.607750e+00    2.736392e+00
  2.623626e+00    2.860579e+00
  2.639502e+00    2.881023e+00
  2.655377e+00    2.814112e+00
  2.671253e+00    2.783062e+00
  2.687128e+00    2.745815e+00
  2.703004e+00    2.778850e+00
  2.718879e+00    2.800672e+00
  2.734755e+00    2.905199e+00
  2.750631e+00    2.953291e+00
  2.766506e+00    2.897810e+00
  2.782382e+00    2.875708e+00
  2.798257e+00    2.861871e+00
  2.814133e+00    2.904467e+00
  2.830008e+00    2.907861e+00
  2.845884e+00    2.900941e+00
  2.861760e+00    2.952190e+00
  2.877635e+00    2.875784e+00
  2.893511e+00    2.858783e+00
  2.909386e+00    2.819340e+00
  2.925262e+00    2.878783e+00
  2.941137e+00    2.900785e+00
  2.957013e+00    2.841684e+00
  2.972889e+00    2.836510e+00
  2.988764e+00    2.828616e+00
  3.004640e+00    2.772629e+00
  3.020515e+00    2.871803e+00
  3.036391e+00    2.871747e+00
  3.052266e+00    2.854476e+00
  3.068142e+00    2.831424e+00
  3.084018e+00    2.791075e+00
  3.099893e+00    2.920817e+00
  3.115769e+00    2.951636e+00
  3.131644e+00    2.865967e+00
  3.147520e+00    2.930500e+00
  3.163395e+00    2.974730e+00
  3.179271e+00    2.952793e+00
  3.195147e+00    2.976171e+00
  3.211022e+00    2.879652e+00
  3.226898e+00    2.855891e+00
  3.242773e+00    2.927594e+00
  3.258649e+00    2.876625e+00
  3.274525e+00    2.888048e+00
  3.290400e+00    2.947280e+00
  3.306276e+00    3.010679e+00
  3.322151e+00    2.949202e+00
  3.338027e+00    2.854298e+00
  3.353902e+00    3.030160e+00
  3.369778e+00    2.955459e+00
  3.385654e+00    2.944785e+00
  3.401529e+00    2.928870e+00
  3.417405e+00    2.932109e+00
  3.433280e+00    2.899060e+00
  3.449156e+00    2.835073e+00
  3.465031e+00    2.891876e+00
  3.480907e+00    3.016383e+00
  3.496783e+00    2.956610e+00
  3.512658e+00    3.020012e+00
  3.528534e+00    2.917843e+00
  3.544409e+00    2.917523e+00
  3.560285e+00    2.937668e+00
  3.576160e+00    2.914376e+00
  3.592036e+00    2.914556e+00
  3.607912e+00    2.969714e+00
  3.623787e+00    2.969760e+00
  3.639663e+00    2.963162e+00
  3.655538e+00    2.954657e+00
  3.671414e+00    2.982082e+00
  3.687289e+00    3.075197e+00
  3.703165e+00    3.011966e+00
  3.719041e+00    2.915384e+00
  3.734916e+00    3.009088e+00
  3.750792e+00    2.956820e+00
  3.766667e+00    2.931155e+00
  3.782543e+00    3.013965e+00
  3.798418e+00    2.987630e+00
  3.814294e+00    2.996089e+00
  3.830170e+00    3.012009e+00
  3.846045e+00    2.988461e+00
  3.861921e+00    3.011540e+00
  3.877796e+00    2.910406e+00
  3.893672e+00    3.012277e+00
  3.909547e+00    3.046102e+00
  3.925423e+00    2.967203e+00
  3.941299e+00    3.043710e+00
  3.957174e+00    3.002789e+00
  3.973050e+00    3.014361e+00
  3.988925e+00    3.026915e+00
  4.004801e+00    3.055938e+00
  4.020676e+00    3.003487e+00
  4.036552e+00    3.032761e+00
  4.052428e+00    3.103856e+00
  4.068303e+00    3.032512e+00
  4.084179e+00    3.031178e+00
  4.100054e+00    3.007850e+00
  4.115930e+00    3.049392e+00
  4.131806e+00    3.061960e+00
  4.147681e+00    2.973788e+00
  4.163557e+00    2.996491e+00
  4.179432e+00    3.003912e+00
  4.195308e+00    2.984444e+00
  4.211183e+00    3.032768e+00
  4.227059e+00    3.138515e+00
  4.242935e+00    3.106055e+00
  4.258810e+00    3.060124e+00
  4.274686e+00    3.119377e+00
  4.290561e+00    3.109174e+00
  4.306437e+00    3.043994e+00
  4.322312e+00    3.096901e+00
  4.338188e+00    2.993312e+00
  4.354064e+00    3.054861e+00
  4.369939e+00    3.054594e+00
  4.385815e+00    3.031789e+00
  4.401690e+00    3.078893e+00
  4.417566e+00    2.999065e+00
  4.433441e+00    3.087812e+00
  4.449317e+00    3.178525e+00
  4.465193e+00    3.115741e+00
  4.481068e+00    3.118807e+00
  4.496944e+00    3.075404e+00
  4.512819e+00    3.155844e+00
  4.528695e+00    3.058399e+00
  4.544570e+00    3.084956e+00
  4.560446e+00    3.112033e+00
  4.576322e+00    3.094864e+00
  4.592197e+00    3.125074e+00
  4.608073e+00    3.097596e+00
  4.623948e+00    3.083107e+00
  4.639824e+00    3.076322e+00
  4.655699e+00    3.124903e+00
  4.671575e+00    3.115098e+00
  4.687451e+00    3.087230e+00
  4.703326e+00    3.098023e+00
  4.719202e+00    3.116208e+00
  4.735077e+00    3.179911e+00
  4.750953e+00    3.145235e+00
  4.766828e+00    3.099820e+00
  4.782704e+00    3.085639e+00
  4.798580e+00    3.062951e+00
  4.814455e+00    3.011421e+00
  4.830331e+00    3.123158e+00
  4.846206e+00    3.214474e+00
  4.862082e+00    3.127584e+00
  4.877957e+00    3.071868e+00
  4.893833e+00    3.118796e+00
  4.909709e+00    3.112163e+00
  4.925584e+00    3.206203e+00
  4.941460e+00    3.249185e+00
  4.957335e+00    3.154854e+00
  4.973211e+00    3.123199e+00
  4.989086e+00    3.172804e+00
  5.004962e+00    3.161191e+00
  5.020838e+00    3.092883e+00
  5.036713e+00    3.115831e+00
  5.052589e+00    3.124209e+00
  5.068464e+00    3.127251e+00
  5.084340e+00    3.172265e+00
  5.100216e+00    3.150919e+00
  5.116091e+00    3.116951e+00
  5.131967e+00    3.213290e+00
  5.147842e+00    3.139110e+00
  5.163718e+00    3.077629e+00
  5.179593e+00    3.124090e+00
  5.195469e+00    3.143284e+00
  5.211345e+00    3.200025e+00
  5.227220e+00    3.149481e+00
  5.243096e+00    3.100519e+00
  5.258971e+00    3.105770e+00
  5.274847e+00    3.150891e+00
  5.290722e+00    3.088401e+00
  5.306598e+00    3.121468e+00
  5.322474e+00    3.190609e+00
  5.338349e+00    3.226351e+00
  5.354225e+00    3.191113e+00
  5.370100e+00    3.127207e+00
  5.385976e+00    3.088808e+00
  5.401851e+00    3.090628e+00
  5.417727e+00    3.138799e+00
  5.433603e+00    3.126946e+00
  5.449478e+00    3.128259e+00
  5.465354e+00    3.136153e+00
  5.481229e+00    3.075874e+00
  5.497105e+00    3.068729e+00
  5.512980e+00    3.098676e+00
  5.528856e+00    3.105417e+00
  5.544732e+00    3.075627e+00
  5.560607e+00    3.011074e+00
  5.576483e+00    3.020194e+00
  5.592358e+00    3.055763e+00
  5.608234e+00    3.079170e+00
  5.624109e+00    3.094942e+00
  5.639985e+00    3.155706e+00
  5.655861e+00    3.149129e+00
  5.671736e+00    3.059284e+00
  5.687612e+00    3.121904e+00
  5.703487e+00    3.086668e+00
  5.719363e+00    3.004678e+00
  5.735238e+00    3.050549e+00
  5.751114e+00    3.081655e+00
  5.766990e+00    3.047176e+00
  5.782865e+00    3.031193e+00
  5.798741e+00    2.989606e+00
  5.814616e+00    3.053694e+00
  5.830492e+00    3.078959e+00
  5.846367e+00    3.136526e+00
  5.862243e+00    3.143042e+00
  5.878119e+00    3.059841e+00
  5.893994e+00    3.125342e+00
  5.909870e+00    3.102458e+00
  5.925745e+00    3.028619e+00
  5.941621e+00    3.015353e+00
  5.957497e+00    3.004735e+00
  5.973372e+00    2.990864e+00
  5.989248e+00    2.991702e+00
  6.005123e+00    3.052482e+00
  6.020999e+00    2.984586e+00
  6.036874e+00    2.993428e+00
  6.052750e+00    2.991912e+00
  6.068626e+00    3.027269e+00
  6.084501e+00    3.057525e+00
  6.100377e+00    3.027016e+00
  6.116252e+00    3.047067e+00
  6.132128e+00    3.102894e+00
  6.148003e+00    3.065459e+00
  6.163879e+00    3.032068e+00
  6.179755e+00    3.035146e+00
  6.195630e+00    3.070731e+00
  6.211506e+00    3.079275e+00
  6.227381e+00    3.062013e+00
  6.243257e+00    3.106684e+00
  6.259132e+00    3.040530e+00
  6.275008e+00    2.994631e+00
  6.290884e+00    2.971475e+00
  6.306759e+00    3.034124e+00
  6.322635e+00    3.015635e+00
  6.338510e+00    3.054111e+00
  6.354386e+00    3.047013e+00
  6.370261e+00    3.059439e+00
  6.386137e+00    3.048532e+00
  6.402013e+00    3.010604e+00
  6.417888e+00    3.081343e+00
  6.433764e+00    3.067398e+00
  6.449639e+00    3.095746e+00
  6.465515e+00    3.042218e+00
  6.481390e+00    3.004381e+00
  6.497266e+00    3.054965e+00
  6.513142e+00    3.137364e+00
  6.529017e+00    3.031687e+00
  6.544893e+00    3.083199e+00
  6.560768e+00    3.040524e+00
  6.576644e+00    3.042291e+00
  6.592519e+00    3.014823e+00
  6.608395e+00    3.019187e+00
  6.624271e+00    3.040296e+00
  6.640146e+00    3.075045e+00
  6.656022e+00    3.077721e+00
  6.671897e+00    3.041644e+00
  6.687773e+00    3.055635e+00
  6.703648e+00    3.082516e+00
  6.719524e+00    2.987168e+00
  6.735400e+00    3.010706e+00
  6.751275e+00    3.034989e+00
  6.767151e+00    3.002285e+00
  6.783026e+00    2.969408e+00
  6.798902e+00    2.995543e+00
  6.814777e+00    2.983836e+00
  6.830653e+00    2.993903e+00
  6.846529e+00    3.012879e+00
  6.862404e+00    2.980347e+00
  6.878280e+00    3.079413e+00
  6.894155e+00    3.092839e+00
  6.910031e+00    3.064937e+00
  6.925907e+00    3.002443e+00
  6.941782e+00    3.008815e+00
  6.957658e+00    3.048632e+00
  6.973533e+00    3.014355e+00
  6.989409e+00    2.973388e+00
  7.005284e+00    2.945976e+00
  7.021160e+00    2.948186e+00
  7.037036e+00    2.928428e+00
  7.052911e+00    3.029093e+00
  7.068787e+00    3.006235e+00
  7.084662e+00    3.038548e+00
  7.100538e+00    3.033877e+00
  7.116413e+00    2.996875e+00
  7.132289e+00    2.957601e+00
  7.148165e+00    2.957449e+00
  7.164040e+00    2.975955e+00
  7.179916e+00    2.979248e+00
  7.195791e+00    2.982598e+00
  7.211667e+00    3.030638e+00
  7.227542e+00    2.994645e+00
  7.243418e+00    3.001042e+00
  7.259294e+00    2.998644e+00
  7.275169e+00    3.002823e+00
  7.291045e+00    2.996880e+00
  7.306920e+00    3.046474e+00
  7.322796e+00    3.032888e+00
  7.338671e+00    2.992653e+00
  7.354547e+00    3.013964e+00
  7.370423e+00    2.997597e+00
  7.386298e+00    2.972293e+00
  7.402174e+00    2.977805e+00
  7.418049e+00    3.057909e+00
  7.433925e+00    3.003610e+00
  7.449800e+00    2.982509e+00
  7.465676e+00    2.963449e+00
  7.481552e+00    2.979113e+00
  7.497427e+00    3.044454e+00
  7.513303e+00    3.047671e+00
  7.529178e+00    2.978325e+00
  7.545054e+00    3.044879e+00
  7.560929e+00    2.996848e+00
  7.576805e+00    2.967574e+00
  7.592681e+00    2.967641e+00
  7.608556e+00    2.954607e+00
  7.624432e+00    2.983574e+00
  7.640307e+00    2.927220e+00
  7.656183e+00    2.917687e+00
  7.672058e+00    2.984483e+00
  7.687934e+00    2.992067e+00
  7.703810e+00    2.959598e+00
  7.719685e+00    2.971518e+00
  7.735561e+00    2.942608e+00
  7.751436e+00    2.924946e+00
  7.767312e+00    2.946225e+00
  7.783187e+00    2.965417e+00
  7.799063e+00    2.991663e+00
  7.814939e+00    2.990133e+00
  7.830814e+00    2.898281e+00
  7.846690e+00    2.901353e+00
  7.862565e+00    2.952680e+00
  7.878441e+00    2.947393e+00
  7.894317e+00    2.948071e+00
  7.910192e+00    3.001011e+00
  7.926068e+00    2.935278e+00
  7.941943e+00    2.904555e+00
  7.957819e+00    2.953185e+00
  7.973694e+00    2.945241e+00
  7.989570e+00    2.985902e+00
  8.005446e+00    2.936975e+00
  8.021321e+00    2.919624e+00
  8.037197e+00    2.973632e+00
  8.053072e+00    2.973640e+00
  8.068948e+00    2.915409e+00
  8.084823e+00    2.924839e+00
  8.100699e+00    2.994527e+00
  8.116575e+00    2.955008e+00
  8.132450e+00    2.931216e+00
  8.148326e+00    2.887487e+00
  8.164201e+00    2.975461e+00
  8.180077e+00    3.028211e+00
  8.195952e+00    2.993391e+00
  8.211828e+00    2.966238e+00
  8.227704e+00    2.913905e+00
  8.243579e+00    2.934505e+00
  8.259455e+00    2.952157e+00
  8.275330e+00    2.922516e+00
  8.291206e+00    2.900868e+00
  8.307081e+00    2.938359e+00
  8.322957e+00    2.884037e+00
  8.338833e+00    2.857105e+00
  8.354708e+00    2.900291e+00
  8.370584e+00    2.939682e+00
  8.386459e+00    2.846627e+00
  8.402335e+00    2.882099e+00
  8.418210e+00    2.866040e+00
  8.434086e+00    2.794134e+00
  8.449962e+00    2.854207e+00
  8.465837e+00    2.883639e+00
  8.481713e+00    2.910963e+00
  8.497588e+00    2.870983e+00
  8.513464e+00    2.905521e+00
  8.529339e+00    2.891510e+00
  8.545215e+00    2.855075e+00
  8.561091e+00    2.873351e+00
  8.576966e+00    2.922415e+00
  8.592842e+00    2.884947e+00
  8.608717e+00    2.896782e+00
  8.624593e+00    2.879908e+00
  8.640468e+00    2.856812e+00
  8.656344e+00    2.879919e+00
  8.672220e+00    2.913317e+00
  8.688095e+00    2.956546e+00
  8.703971e+00    2.922145e+00
  8.719846e+00    2.904002e+00
  8.735722e+00    2.926533e+00
  8.751598e+00    2.881139e+00
  8.767473e+00    2.865880e+00
  8.783349e+00    2.853380e+00
  8.799224e+00    2.844473e+00
  8.815100e+00    2.844530e+00
  8.830975e+00    2.861197e+00
  8.846851e+00    2.889520e+00
  8.862727e+00    2.857513e+00
  8.878602e+00    2.825248e+00
  8.894478e+00    2.888502e+00
  8.910353e+00    2.843226e+00
  8.926229e+00    2.824571e+00
  8.942104e+00    2.831642e+00
  8.957980e+00    2.832746e+00
  8.973856e+00    2.807311e+00
  8.989731e+00    2.812915e+00
  9.005607e+00    2.822018e+00
  9.021482e+00    2.853123e+00
  9.037358e+00    2.861790e+00
  9.053233e+00    2.833476e+00
  9.069109e+00    2.810724e+00
  9.084985e+00    2.796174e+00
  9.100860e+00    2.790967e+00
  9.116736e+00    2.808118e+00
  9.132611e+00    2.854953e+00
  9.148487e+00    2.837179e+00
  9.164362e+00    2.778597e+00
  9.180238e+00    2.803059e+00
  9.196114e+00    2.724201e+00
  9.211989e+00    2.737498e+00
  9.227865e+00    2.798963e+00
  9.243740e+00    2.816164e+00
  9.259616e+00    2.809235e+00
  9.275491e+00    2.786117e+00
  9.291367e+00    2.770756e+00
  9.307243e+00    2.753850e+00
  9.323118e+00    2.766210e+00
  9.338994e+00    2.764960e+00
  9.354869e+00    2.826045e+00
  9.370745e+00    2.764909e+00
  9.386620e+00    2.794095e+00
  9.402496e+00    2.758593e+00
  9.418372e+00    2.769646e+00
  9.434247e+00    2.843819e+00
  9.450123e+00    2.849420e+00
  9.465998e+00    2.748990e+00
  9.481874e+00    2.765133e+00
  9.497749e+00    2.779670e+00
  9.513625e+00    2.799072e+00
  9.529501e+00    2.766993e+00
  9.545376e+00    2.729363e+00
  9.561252e+00    2.789605e+00
  9.577127e+00    2.739333e+00
  9.593003e+00    2.761919e+00
  9.608878e+00    2.776437e+00
  9.624754e+00    2.799380e+00
  9.640630e+00    2.821035e+00
  9.656505e+00    2.750402e+00
  9.672381e+00    2.691577e+00
  9.688256e+00    2.710207e+00
  9.704132e+00    2.756954e+00
  9.720008e+00    2.780602e+00
  9.735883e+00    2.761212e+00
  9.751759e+00    2.799347e+00
  9.767634e+00    2.753930e+00
  9.783510e+00    2.771466e+00
  9.799385e+00    2.779982e+00
  9.815261e+00    2.762738e+00
  9.831137e+00    2.727167e+00
  9.847012e+00    2.671391e+00
  9.862888e+00    2.686670e+00
  9.878763e+00    2.714031e+00
  9.894639e+00    2.692055e+00
  9.910514e+00    2.700727e+00
  9.926390e+00    2.708665e+00
  9.942266e+00    2.723072e+00
  9.958141e+00    2.742368e+00
  9.974017e+00    2.700105e+00
  9.989892e+00    2.691445e+00
  1.000577e+01    2.676469e+00
  1.002164e+01    2.654368e+00
  1.003752e+01    2.658436e+00
  1.005339e+01    2.658983e+00
  1.006927e+01    2.628999e+00
  1.008515e+01    2.659313e+00
  1.010102e+01    2.668843e+00
  1.011690e+01    2.629598e+00
  1.013277e+01    2.660852e+00
  1.014865e+01    2.661973e+00
  1.016452e+01    2.621032e+00
  1.018040e+01    2.680392e+00
  1.019627e+01    2.618206e+00
  1.021215e+01    2.635175e+00
  1.022803e+01    2.676406e+00
  1.024390e+01    2.656711e+00
  1.025978e+01    2.618684e+00
  1.027565e+01    2.611139e+00
  1.029153e+01    2.649500e+00
  1.030740e+01    2.690251e+00
  1.032328e+01    2.680927e+00
  1.033915e+01    2.662140e+00
  1.035503e+01    2.658688e+00
  1.037091e+01    2.630900e+00
  1.038678e+01    2.565506e+00
  1.040266e+01    2.617386e+00
  1.041853e+01    2.655420e+00
  1.043441e+01    2.642947e+00
  1.045028e+01    2.612752e+00
  1.046616e+01    2.589680e+00
  1.048204e+01    2.613064e+00
  1.049791e+01    2.614672e+00
  1.051379e+01    2.583500e+00
  1.052966e+01    2.585584e+00
  1.054554e+01    2.599544e+00
  1.056141e+01    2.580092e+00
  1.057729e+01    2.608071e+00
  1.059316e+01    2.620340e+00
  1.060904e+01    2.586381e+00
  1.062492e+01    2.594532e+00
  1.064079e+01    2.585053e+00
  1.065667e+01    2.604782e+00
  1.067254e+01    2.603117e+00
  1.068842e+01    2.579803e+00
  1.070429e+01    2.562768e+00
  1.072017e+01    2.549938e+00
  1.073604e+01    2.506294e+00
  1.075192e+01    2.572528e+00
  1.076780e+01    2.551523e+00
  1.078367e+01    2.533317e+00
  1.079955e+01    2.598422e+00
  1.081542e+01    2.564348e+00
  1.083130e+01    2.548470e+00
  1.084717e+01    2.543197e+00
  1.086305e+01    2.475285e+00
  1.087892e+01    2.540053e+00
  1.089480e+01    2.539247e+00
  1.091068e+01    2.564531e+00
  1.092655e+01    2.551954e+00
  1.094243e+01    2.498308e+00
  1.095830e+01    2.449585e+00
  1.097418e+01    2.485178e+00
  1.099005e+01    2.501686e+00
  1.100593e+01    2.488410e+00
  1.102180e+01    2.493386e+00
  1.103768e+01    2.474500e+00
  1.105356e+01    2.488359e+00
  1.106943e+01    2.551256e+00
  1.108531e+01    2.519123e+00
  1.110118e+01    2.489922e+00
  1.111706e+01    2.477276e+00
  1.113293e+01    2.486710e+00
  1.114881e+01    2.441785e+00
  1.116468e+01    2.426998e+00
  1.118056e+01    2.474781e+00
  1.119644e+01    2.430435e+00
  1.121231e+01    2.456546e+00
  1.122819e+01    2.485546e+00
  1.124406e+01    2.436283e+00
  1.125994e+01    2.440782e+00
  1.127581e+01    2.490413e+00
  1.129169e+01    2.485861e+00
  1.130756e+01    2.443838e+00
  1.132344e+01    2.433715e+00
  1.133932e+01    2.459162e+00
  1.135519e+01    2.454090e+00
  1.137107e+01    2.447554e+00
  1.138694e+01    2.417168e+00
  1.140282e+01    2.416468e+00
  1.141869e+01    2.463622e+00
  1.143457e+01    2.425529e+00
  1.145045e+01    2.459847e+00
  1.146632e+01    2.453075e+00
  1.148220e+01    2.422419e+00
  1.149807e+01    2.385627e+00
  1.151395e+01    2.403825e+00
  1.152982e+01    2.406317e+00
  1.154570e+01    2.382100e+00
  1.156157e+01    2.381633e+00
  1.157745e+01    2.400896e+00
  1.159333e+01    2.416017e+00
  1.160920e+01    2.396826e+00
  1.162508e+01    2.404134e+00
  1.164095e+01    2.396478e+00
  1.165683e+01    2.353175e+00
  1.167270e+01    2.332923e+00
  1.168858e+01    2.409529e+00
  1.170445e+01    2.378343e+00
  1.172033e+01    2.390655e+00
  1.173621e+01    2.376638e+00
  1.175208e+01    2.326051e+00
  1.176796e+01    2.356379e+00
  1.178383e+01    2.377090e+00
  1.179971e+01    2.367061e+00
  1.181558e+01    2.344818e+00
  1.183146e+01    2.364956e+00
  1.184733e+01    2.321765e+00
  1.186321e+01    2.319909e+00
  1.187909e+01    2.365672e+00
  1.189496e+01    2.349282e+00
  1.191084e+01    2.378205e+00
  1.192671e+01    2.368163e+00
  1.194259e+01    2.394435e+00
  1.195846e+01    2.352459e+00
  1.197434e+01    2.333386e+00
  1.199021e+01    2.361724e+00
  1.200609e+01    2.375277e+00
  1.202197e+01    2.323853e+00
  1.203784e+01    2.298873e+00
  1.205372e+01    2.336232e+00
  1.206959e+01    2.373474e+00
  1.208547e+01    2.352637e+00
  1.210134e+01    2.318300e+00
  1.211722e+01    2.356801e+00
  1.213309e+01    2.328415e+00
  1.214897e+01    2.298708e+00
  1.216485e+01    2.307082e+00
  1.218072e+01    2.278290e+00
  1.219660e+01    2.310260e+00
  1.221247e+01    2.346687e+00
  1.222835e+01    2.363987e+00
  1.224422e+01    2.368928e+00
  1.226010e+01    2.346362e+00
  1.227597e+01    2.313007e+00
  1.229185e+01    2.353271e+00
  1.230773e+01    2.364784e+00
  1.232360e+01    2.349967e+00
  1.233948e+01    2.345285e+00
  1.235535e+01    2.336768e+00
  1.237123e+01    2.344271e+00
  1.238710e+01    2.368090e+00
  1.240298e+01    2.378214e+00
  1.241886e+01    2.389292e+00
  1.243473e+01    2.374553e+00
  1.245061e+01    2.391475e+00
  1.246648e+01    2.372192e+00
  1.248236e+01    2.364079e+00
  1.249823e+01    2.337473e+00
  1.251411e+01    2.367077e+00
  1.252998e+01    2.347649e+00
  1.254586e+01    2.353169e+00
  1.256174e+01    2.361401e+00
  1.257761e+01    2.369266e+00
  1.259349e+01    2.368505e+00
  1.260936e+01    2.390856e+00
  1.262524e+01    2.416445e+00
  1.264111e+01    2.442271e+00
  1.265699e+01    2.461422e+00
  1.267286e+01    2.489932e+00
  1.268874e+01    2.496111e+00
  1.270462e+01    2.525513e+00
  1.272049e+01    2.539397e+00
  1.273637e+01    2.551290e+00
  1.275224e+01    2.561944e+00
  1.276812e+01    2.623463e+00
  1.278399e+01    2.689670e+00
  1.279987e+01    2.688926e+00
  1.281574e+01    2.728293e+00
  1.283162e+01    2.745772e+00
  1.284750e+01    2.826222e+00
  1.286337e+01    2.923419e+00
  1.287925e+01    3.011539e+00
  1.289512e+01    3.185440e+00
  1.291100e+01    3.339928e+00
  1.292687e+01    3.523000e+00
  1.294275e+01    3.726753e+00
  1.295862e+01    4.018042e+00
  1.297450e+01    4.323352e+00
  1.299038e+01    4.755400e+00
  1.300625e+01    5.384079e+00
  1.302213e+01    6.062232e+00
  1.303800e+01    6.935663e+00
  1.305388e+01    7.947093e+00
  1.306975e+01    9.259029e+00
  1.308563e+01    1.070117e+01
  1.310150e+01    1.225268e+01
  1.311738e+01    1.373257e+01
  1.313326e+01    1.507450e+01
  1.314913e+01    1.642732e+01
  1.316501e+01    1.770427e+01
  1.318088e+01    1.872025e+01
  1.319676e+01    1.915857e+01
  1.321263e+01    1.842355e+01
  1.322851e+01    1.690832e+01
  1.324438e+01    1.461212e+01
  1.326026e+01    1.235741e+01
  1.327614e+01    1.038161e+01
  1.329201e+01    8.711064e+00
  1.330789e+01    7.482613e+00
  1.332376e+01    6.437476e+00
  1.333964e+01    5.659210e+00
  1.335551e+01    5.001800e+00
  1.337139e+01    4.508503e+00
  1.338727e+01    4.169814e+00
  1.340314e+01    3.909947e+00
  1.341902e+01    3.648344e+00
  1.343489e+01    3.440170e+00
  1.345077e+01    3.229901e+00
  1.346664e+01    3.059539e+00
  1.348252e+01    2.980376e+00
  1.349839e+01    2.889903e+00
  1.351427e+01    2.784634e+00
  1.353015e+01    2.698398e+00
  1.354602e+01    2.613169e+00
  1.356190e+01    2.611975e+00
  1.357777e+01    2.564264e+00
  1.359365e+01    2.528069e+00
  1.360952e+01    2.442295e+00
  1.362540e+01    2.394514e+00
  1.364127e+01    2.372223e+00
  1.365715e+01    2.315978e+00
  1.367303e+01    2.340948e+00
  1.368890e+01    2.322300e+00
  1.370478e+01    2.279503e+00
  1.372065e+01    2.253219e+00
  1.373653e+01    2.258683e+00
  1.375240e+01    2.241341e+00
  1.376828e+01    2.203030e+00
  1.378415e+01    2.181070e+00
  1.380003e+01    2.173959e+00
  1.381591e+01    2.175332e+00
  1.383178e+01    2.147013e+00
  1.384766e+01    2.124239e+00
  1.386353e+01    2.123340e+00
  1.387941e+01    2.120170e+00
  1.389528e+01    2.111683e+00
  1.391116e+01    2.108499e+00
  1.392703e+01    2.094813e+00
  1.394291e+01    2.093181e+00
  1.395879e+01    2.118238e+00
  1.397466e+01    2.096202e+00
  1.399054e+01    2.092788e+00
  1.400641e+01    2.084035e+00
  1.402229e+01    2.115088e+00
  1.403816e+01    2.095795e+00
  1.405404e+01    2.052010e+00
  1.406991e+01    2.025162e+00
  1.408579e+01    2.057037e+00
  1.410167e+01    2.061391e+00
  1.411754e+01    2.050508e+00
  1.413342e+01    2.046350e+00
  1.414929e+01    2.041818e+00
  1.416517e+01    2.032424e+00
  1.418104e+01    2.025972e+00
  1.419692e+01    2.022019e+00
  1.421279e+01    2.033335e+00
  1.422867e+01    1.997608e+00
  1.424455e+01    1.998605e+00
  1.426042e+01    1.989556e+00
  1.427630e+01    1.956390e+00
  1.429217e+01    1.976331e+00
  1.430805e+01    1.993581e+00
  1.432392e+01    1.982965e+00
  1.433980e+01    1.962705e+00
  1.435568e+01    1.943281e+00
  1.437155e+01    1.967338e+00
  1.438743e+01    1.952967e+00
  1.440330e+01    1.959679e+00
  1.441918e+01    1.946290e+00
  1.443505e+01    1.958778e+00
  1.445093e+01    1.958962e+00
  1.446680e+01    1.965225e+00
  1.448268e+01    1.980787e+00
  1.449856e+01    1.944945e+00
  1.451443e+01    1.911787e+00
  1.453031e+01    1.883409e+00
  1.454618e+01    1.904471e+00
  1.456206e+01    1.925809e+00
  1.457793e+01    1.934860e+00
  1.459381e+01    1.938651e+00
  1.460968e+01    1.946676e+00
  1.462556e+01    1.918888e+00
  1.464144e+01    1.932357e+00
  1.465731e+01    1.941523e+00
  1.467319e+01    1.927325e+00
  1.468906e+01    1.935695e+00
  1.470494e+01    1.898349e+00
  1.472081e+01    1.896705e+00
  1.473669e+01    1.921659e+00
  1.475256e+01    1.937991e+00
  1.476844e+01    1.904599e+00
  1.478432e+01    1.955105e+00
  1.480019e+01    1.894786e+00
  1.481607e+01    1.912621e+00
  1.483194e+01    1.882908e+00
  1.484782e+01    1.884911e+00
  1.486369e+01    1.928595e+00
  1.487957e+01    1.949340e+00
  1.489544e+01    1.923839e+00
  1.491132e+01    1.948900e+00
  1.492720e+01    2.000830e+00
  1.494307e+01    2.054336e+00
  1.495895e+01    2.065638e+00
  1.497482e+01    2.108204e+00
  1.499070e+01    2.098599e+00
  1.500657e+01    2.104733e+00
  1.502245e+01    2.171757e+00
  1.503832e+01    2.296438e+00
  1.505420e+01    2.353136e+00
  1.507008e+01    2.434196e+00
  1.508595e+01    2.579517e+00
  1.510183e+01    2.757817e+00
  1.511770e+01    2.994392e+00
  1.513358e+01    3.271456e+00
  1.514945e+01    3.693350e+00
  1.516533e+01    4.103078e+00
  1.518120e+01    4.497686e+00
  1.519708e+01    4.946079e+00
  1.521296e+01    5.313160e+00
  1.522883e+01    5.630515e+00
  1.524471e+01    6.002942e+00
  1.526058e+01    6.186021e+00
  1.527646e+01    6.294010e+00
  1.529233e+01    6.300268e+00
  1.530821e+01    6.166684e+00
  1.532409e+01    5.736815e+00
  1.533996e+01    5.172101e+00
  1.535584e+01    4.547476e+00
  1.537171e+01    4.002833e+00
  1.538759e+01    3.528124e+00
  1.540346e+01    3.193451e+00
  1.541934e+01    2.880800e+00
  1.543521e+01    2.711696e+00
  1.545109e+01    2.558278e+00
  1.546697e+01    2.431168e+00
  1.548284e+01    2.279553e+00
  1.549872e+01    2.190018e+00
  1.551459e+01    2.105135e+00
  1.553047e+01    2.022326e+00
  1.554634e+01    1.960188e+00
  1.556222e+01    1.977880e+00
  1.557809e+01    1.958485e+00
  1.559397e+01    1.897534e+00
  1.560985e+01    1.883809e+00
  1.562572e+01    1.865649e+00
  1.564160e+01    1.867905e+00
  1.565747e+01    1.825500e+00
  1.567335e+01    1.787484e+00
  1.568922e+01    1.775853e+00
  1.570510e+01    1.760673e+00
  1.572097e+01    1.744853e+00
  1.573685e+01    1.760993e+00
  1.575273e+01    1.731075e+00
  1.576860e+01    1.707549e+00
  1.578448e+01    1.724380e+00
  1.580035e+01    1.731366e+00
  1.581623e+01    1.722079e+00
  1.583210e+01    1.724425e+00
  1.584798e+01    1.675174e+00
  1.586385e+01    1.657876e+00
  1.587973e+01    1.663718e+00
  1.589561e+01    1.672183e+00
  1.591148e+01    1.667271e+00
  1.592736e+01    1.652976e+00
  1.594323e+01    1.651564e+00
  1.595911e+01    1.679024e+00
  1.597498e+01    1.630815e+00
  1.599086e+01    1.636971e+00
  1.600673e+01    1.646523e+00
  1.602261e+01    1.622224e+00
  1.603849e+01    1.626236e+00
  1.605436e+01    1.616030e+00
  1.607024e+01    1.607064e+00
  1.608611e+01    1.621983e+00
  1.610199e+01    1.611764e+00
  1.611786e+01    1.584492e+00
  1.613374e+01    1.569879e+00
  1.614961e+01    1.578884e+00
  1.616549e+01    1.567567e+00
  1.618137e+01    1.584169e+00
  1.619724e+01    1.576130e+00
  1.621312e+01    1.565942e+00
  1.622899e+01    1.566313e+00
  1.624487e+01    1.592196e+00
  1.626074e+01    1.582549e+00
  1.627662e+01    1.561152e+00
  1.629250e+01    1.543780e+00
  1.630837e+01    1.564995e+00
  1.632425e+01    1.562806e+00
  1.634012e+01    1.584122e+00
  1.635600e+01    1.539369e+00
  1.637187e+01    1.526975e+00
  1.638775e+01    1.506282e+00
  1.640362e+01    1.523216e+00
  1.641950e+01    1.514679e+00
  1.643538e+01    1.528724e+00
  1.645125e+01    1.558076e+00
  1.646713e+01    1.558396e+00
  1.648300e+01    1.530838e+00
  1.649888e+01    1.528297e+00
  1.651475e+01    1.531648e+00
  1.653063e+01    1.554772e+00
  1.654650e+01    1.503866e+00
  1.656238e+01    1.538728e+00
  1.657826e+01    1.522166e+00
  1.659413e+01    1.473809e+00
  1.661001e+01    1.500915e+00
  1.662588e+01    1.509946e+00
  1.664176e+01    1.500842e+00
  1.665763e+01    1.458911e+00
  1.667351e+01    1.480843e+00
  1.668938e+01    1.486122e+00
  1.670526e+01    1.480112e+00
  1.672114e+01    1.479470e+00
  1.673701e+01    1.486976e+00
  1.675289e+01    1.487095e+00
  1.676876e+01    1.494906e+00
  1.678464e+01    1.506817e+00
  1.680051e+01    1.476491e+00
  1.681639e+01    1.472733e+00
  1.683226e+01    1.481738e+00
  1.684814e+01    1.480022e+00
  1.686402e+01    1.469364e+00
  1.687989e+01    1.473571e+00
  1.689577e+01    1.460544e+00
  1.691164e+01    1.452882e+00
  1.692752e+01    1.448249e+00
  1.694339e+01    1.461327e+00
  1.695927e+01    1.467676e+00
  1.697514e+01    1.436410e+00
  1.699102e+01    1.415035e+00
  1.700690e+01    1.448396e+00
  1.702277e+01    1.433020e+00
  1.703865e+01    1.411293e+00
  1.705452e+01    1.408804e+00
  1.707040e+01    1.403337e+00
  1.708627e+01    1.408836e+00
  1.710215e+01    1.446330e+00
  1.711802e+01    1.436776e+00
  1.713390e+01    1.419649e+00
  1.714978e+01    1.378774e+00
  1.716565e+01    1.401377e+00
  1.718153e+01    1.423540e+00
  1.719740e+01    1.410560e+00
  1.721328e+01    1.418609e+00
  1.722915e+01    1.408929e+00
  1.724503e+01    1.360660e+00
  1.726091e+01    1.368978e+00
  1.727678e+01    1.395912e+00
  1.729266e+01    1.387153e+00
  1.730853e+01    1.386082e+00
  1.732441e+01    1.389430e+00
  1.734028e+01    1.368186e+00
  1.735616e+01    1.398249e+00
  1.737203e+01    1.413207e+00
  1.738791e+01    1.407713e+00
  1.740379e+01    1.393434e+00
  1.741966e+01    1.400229e+00
  1.743554e+01    1.378948e+00
  1.745141e+01    1.401167e+00
  1.746729e+01    1.412554e+00
  1.748316e+01    1.403232e+00
  1.749904e+01    1.388327e+00
  1.751491e+01    1.378014e+00
  1.753079e+01    1.362423e+00
  1.754667e+01    1.386587e+00
  1.756254e+01    1.366332e+00
  1.757842e+01    1.385571e+00
  1.759429e+01    1.395859e+00
  1.761017e+01    1.358179e+00
  1.762604e+01    1.380121e+00
  1.764192e+01    1.346583e+00
  1.765779e+01    1.329556e+00
  1.767367e+01    1.363497e+00
  1.768955e+01    1.360565e+00
  1.770542e+01    1.335487e+00
  1.772130e+01    1.323303e+00
  1.773717e+01    1.330144e+00
  1.775305e+01    1.363319e+00
  1.776892e+01    1.339592e+00
  1.778480e+01    1.328960e+00
  1.780067e+01    1.326693e+00
  1.781655e+01    1.354587e+00
  1.783243e+01    1.356415e+00
  1.784830e+01    1.346464e+00
  1.786418e+01    1.308606e+00
  1.788005e+01    1.306721e+00
  1.789593e+01    1.304944e+00
  1.791180e+01    1.318562e+00
  1.792768e+01    1.317437e+00
  1.794355e+01    1.284758e+00
  1.795943e+01    1.311431e+00
  1.797531e+01    1.309345e+00
  1.799118e+01    1.319537e+00
  1.800706e+01    1.324654e+00
  1.802293e+01    1.300664e+00
  1.803881e+01    1.313769e+00
  1.805468e+01    1.313817e+00
  1.807056e+01    1.315110e+00
  1.808643e+01    1.330842e+00
  1.810231e+01    1.303006e+00
  1.811819e+01    1.272707e+00
  1.813406e+01    1.271955e+00
  1.814994e+01    1.280453e+00
  1.816581e+01    1.300370e+00
  1.818169e+01    1.290038e+00
  1.819756e+01    1.307987e+00
  1.821344e+01    1.307255e+00
  1.822932e+01    1.302487e+00
  1.824519e+01    1.297741e+00
  1.826107e+01    1.270319e+00
  1.827694e+01    1.282329e+00
  1.829282e+01    1.319665e+00
  1.830869e+01    1.275545e+00
  1.832457e+01    1.270820e+00
  1.834044e+01    1.285727e+00
  1.835632e+01    1.281265e+00
  1.837220e+01    1.256312e+00
  1.838807e+01    1.287675e+00
  1.840395e+01    1.275646e+00
  1.841982e+01    1.285493e+00
  1.843570e+01    1.265305e+00
  1.845157e+01    1.284641e+00
  1.846745e+01    1.255991e+00
  1.848332e+01    1.270384e+00
  1.849920e+01    1.262159e+00
  1.851508e+01    1.243664e+00
  1.853095e+01    1.274532e+00
  1.854683e+01    1.252513e+00
  1.856270e+01    1.238564e+00
  1.857858e+01    1.250313e+00
  1.859445e+01    1.249056e+00
  1.861033e+01    1.257319e+00
  1.862620e+01    1.264907e+00
  1.864208e+01    1.255454e+00
  1.865796e+01    1.256826e+00
  1.867383e+01    1.218278e+00
  1.868971e+01    1.221809e+00
  1.870558e+01    1.222141e+00
  1.872146e+01    1.244792e+00
  1.873733e+01    1.255740e+00
  1.875321e+01    1.242141e+00
  1.876908e+01    1.228550e+00
  1.878496e+01    1.221336e+00
  1.880084e+01    1.225433e+00
  1.881671e+01    1.225909e+00
  1.883259e+01    1.219801e+00
  1.884846e+01    1.209102e+00
  1.886434e+01    1.211875e+00
  1.888021e+01    1.238724e+00
  1.889609e+01    1.235543e+00
  1.891196e+01    1.232230e+00
  1.892784e+01    1.230830e+00
  1.894372e+01    1.208297e+00
  1.895959e+01    1.217719e+00
  1.897547e+01    1.236698e+00
  1.899134e+01    1.205991e+00
  1.900722e+01    1.207368e+00
  1.902309e+01    1.198638e+00
  1.903897e+01    1.217777e+00
  1.905484e+01    1.208470e+00
  1.907072e+01    1.204312e+00
  1.908660e+01    1.190079e+00
  1.910247e+01    1.200402e+00
  1.911835e+01    1.179358e+00
  1.913422e+01    1.191690e+00
  1.915010e+01    1.210609e+00
  1.916597e+01    1.217925e+00
  1.918185e+01    1.191792e+00
  1.919773e+01    1.175517e+00
  1.921360e+01    1.194579e+00
  1.922948e+01    1.201536e+00
  1.924535e+01    1.207348e+00
  1.926123e+01    1.187784e+00
  1.927710e+01    1.179682e+00
  1.929298e+01    1.182190e+00
  1.930885e+01    1.196521e+00
  1.932473e+01    1.190173e+00
  1.934061e+01    1.173282e+00
  1.935648e+01    1.182260e+00
  1.937236e+01    1.177333e+00
  1.938823e+01    1.161801e+00
  1.940411e+01    1.181094e+00
  1.941998e+01    1.174290e+00
  1.943586e+01    1.182417e+00
  1.945173e+01    1.182711e+00
  1.946761e+01    1.182702e+00
  1.948349e+01    1.168963e+00
  1.949936e+01    1.174700e+00
  1.951524e+01    1.170358e+00
  1.953111e+01    1.191054e+00
  1.954699e+01    1.186507e+00
  1.956286e+01    1.164329e+00
  1.957874e+01    1.176860e+00
  1.959461e+01    1.173619e+00
  1.961049e+01    1.178660e+00
  1.962637e+01    1.172581e+00
  1.964224e+01    1.163909e+00
  1.965812e+01    1.157682e+00
  1.967399e+01    1.159866e+00
  1.968987e+01    1.131520e+00
  1.970574e+01    1.119422e+00
  1.972162e+01    1.165143e+00
  1.973749e+01    1.160160e+00
  1.975337e+01    1.159871e+00
  1.976925e+01    1.152147e+00
  1.978512e+01    1.167052e+00
  1.980100e+01    1.153299e+00
  1.981687e+01    1.150718e+00
  1.983275e+01    1.155569e+00
  1.984862e+01    1.135806e+00
  1.986450e+01    1.147658e+00
  1.988037e+01    1.144044e+00
  1.989625e+01    1.163945e+00
  1.991213e+01    1.139868e+00
  1.992800e+01    1.114549e+00
  1.994388e+01    1.129997e+00
  1.995975e+01    1.140136e+00
  1.997563e+01    1.121321e+00
  1.999150e+01    1.113053e+00
  2.000738e+01    1.115406e+00
  2.002325e+01    1.130431e+00
  2.003913e+01    1.138631e+00
  2.005501e+01    1.114158e+00
  2.007088e+01    1.122170e+00
  2.008676e+01    1.118849e+00
  2.010263e+01    1.126823e+00
  2.011851e+01    1.120578e+00
  2.013438e+01    1.117805e+00
  2.015026e+01    1.117714e+00
  2.016614e+01    1.123413e+00
  2.018201e+01    1.133696e+00
  2.019789e+01    1.131227e+00
  2.021376e+01    1.108182e+00
  2.022964e+01    1.104805e+00
  2.024551e+01    1.106169e+00
  2.026139e+01    1.135041e+00
  2.027726e+01    1.137169e+00
  2.029314e+01    1.112377e+00
  2.030902e+01    1.094470e+00
  2.032489e+01    1.088772e+00
  2.034077e+01    1.082358e+00
  2.035664e+01    1.101727e+00
  2.037252e+01    1.107272e+00
  2.038839e+01    1.096008e+00
  2.040427e+01    1.095777e+00
  2.042014e+01    1.092927e+00
  2.043602e+01    1.092602e+00
  2.045190e+01    1.084096e+00
  2.046777e+01    1.091626e+00
  2.048365e+01    1.092846e+00
  2.049952e+01    1.104169e+00
  2.051540e+01    1.113273e+00
  2.053127e+01    1.119520e+00
  2.054715e+01    1.107690e+00
  2.056302e+01    1.096586e+00
  2.057890e+01    1.086371e+00
  2.059478e+01    1.067129e+00
  2.061065e+01    1.085514e+00
  2.062653e+01    1.080179e+00
  2.064240e+01    1.093215e+00
  2.065828e+01    1.075364e+00
  2.067415e+01    1.088780e+00
  2.069003e+01    1.097135e+00
  2.070590e+01    1.089786e+00
  2.072178e+01    1.065857e+00
  2.073766e+01    1.053670e+00
  2.075353e+01    1.090094e+00
  2.076941e+01    1.089856e+00
  2.078528e+01    1.079176e+00
  2.080116e+01    1.087050e+00
  2.081703e+01    1.069323e+00
  2.083291e+01    1.046293e+00
  2.084878e+01    1.062222e+00
  2.086466e+01    1.102911e+00
  2.088054e+01    1.108354e+00
  2.089641e+01    1.090075e+00
  2.091229e+01    1.096574e+00
  2.092816e+01    1.075442e+00
  2.094404e+01    1.062019e+00
  2.095991e+01    1.096531e+00
  2.097579e+01    1.136316e+00
  2.099166e+01    1.103599e+00
  2.100754e+01    1.088876e+00
  2.102342e+01    1.083606e+00
  2.103929e+01    1.083201e+00
  2.105517e+01    1.088489e+00
  2.107104e+01    1.072446e+00
  2.108692e+01    1.069343e+00
  2.110279e+01    1.078550e+00
  2.111867e+01    1.100585e+00
  2.113455e+01    1.098991e+00
  2.115042e+01    1.096000e+00
  2.116630e+01    1.097420e+00
  2.118217e+01    1.108209e+00
  2.119805e+01    1.093305e+00
  2.121392e+01    1.097382e+00
  2.122980e+01    1.103164e+00
  2.124567e+01    1.127438e+00
  2.126155e+01    1.117249e+00
  2.127743e+01    1.139775e+00
  2.129330e+01    1.138358e+00
  2.130918e+01    1.110311e+00
  2.132505e+01    1.125485e+00
  2.134093e+01    1.141701e+00
  2.135680e+01    1.131669e+00
  2.137268e+01    1.159952e+00
  2.138855e+01    1.163479e+00
  2.140443e+01    1.184286e+00
  2.142031e+01    1.181200e+00
  2.143618e+01    1.204331e+00
  2.145206e+01    1.209783e+00
  2.146793e+01    1.216436e+00
  2.148381e+01    1.257601e+00
  2.149968e+01    1.278881e+00
  2.151556e+01    1.303736e+00
  2.153143e+01    1.349086e+00
  2.154731e+01    1.386550e+00
  2.156319e+01    1.425031e+00
  2.157906e+01    1.440943e+00
  2.159494e+01    1.505695e+00
  2.161081e+01    1.579956e+00
  2.162669e+01    1.670560e+00
  2.164256e+01    1.760134e+00
  2.165844e+01    1.865451e+00
  2.167431e+01    1.994901e+00
  2.169019e+01    2.213651e+00
  2.170607e+01    2.429187e+00
  2.172194e+01    2.652041e+00
  2.173782e+01    2.987108e+00
  2.175369e+01    3.339176e+00
  2.176957e+01    3.834395e+00
  2.178544e+01    4.457838e+00
  2.180132e+01    5.104846e+00
  2.181719e+01    5.834078e+00
  2.183307e+01    6.610567e+00
  2.184895e+01    7.467944e+00
  2.186482e+01    8.310208e+00
  2.188070e+01    9.104787e+00
  2.189657e+01    9.862700e+00
  2.191245e+01    1.038614e+01
  2.192832e+01    1.048916e+01
  2.194420e+01    1.019713e+01
  2.196007e+01    9.419599e+00
  2.197595e+01    8.403732e+00
  2.199183e+01    7.265620e+00
  2.200770e+01    6.152144e+00
  2.202358e+01    5.233656e+00
  2.203945e+01    4.422690e+00
  2.205533e+01    3.786791e+00
  2.207120e+01    3.270643e+00
  2.208708e+01    2.880106e+00
  2.210296e+01    2.571056e+00
  2.211883e+01    2.341219e+00
  2.213471e+01    2.140030e+00
  2.215058e+01    1.961435e+00
  2.216646e+01    1.814904e+00
  2.218233e+01    1.711806e+00
  2.219821e+01    1.627094e+00
  2.221408e+01    1.557634e+00
  2.222996e+01    1.489472e+00
  2.224584e+01    1.397185e+00
  2.226171e+01    1.356919e+00
  2.227759e+01    1.330852e+00
  2.229346e+01    1.282543e+00
  2.230934e+01    1.276885e+00
  2.232521e+01    1.233104e+00
  2.234109e+01    1.190570e+00
  2.235696e+01    1.173316e+00
  2.237284e+01    1.143535e+00
  2.238872e+01    1.133883e+00
  2.240459e+01    1.118550e+00
  2.242047e+01    1.122046e+00
  2.243634e+01    1.113923e+00
  2.245222e+01    1.087479e+00
  2.246809e+01    1.068301e+00
  2.248397e+01    1.053831e+00
  2.249984e+01    1.040126e+00
  2.251572e+01    1.070750e+00
  2.253160e+01    1.039549e+00
  2.254747e+01    1.040718e+00
  2.256335e+01    1.037837e+00
  2.257922e+01    1.013957e+00
  2.259510e+01    1.002904e+00
  2.261097e+01    9.867648e-01
  2.262685e+01    9.927003e-01
  2.264272e+01    9.890245e-01
  2.265860e+01    9.695054e-01
  2.267448e+01    9.476048e-01
  2.269035e+01    9.654626e-01
  2.270623e+01    9.750638e-01
  2.272210e+01    9.782670e-01
  2.273798e+01    9.717689e-01
  2.275385e+01    9.460361e-01
  2.276973e+01    9.394318e-01
  2.278560e+01    9.355760e-01
  2.280148e+01    9.430521e-01
  2.281736e+01    9.580703e-01
  2.283323e+01    9.477339e-01
  2.284911e+01    9.284272e-01
  2.286498e+01    9.449340e-01
  2.288086e+01    9.295399e-01
  2.289673e+01    9.263067e-01
  2.291261e+01    9.276419e-01
  2.292848e+01    9.261668e-01
  2.294436e+01    9.045272e-01
  2.296024e+01    9.098299e-01
  2.297611e+01    9.389335e-01
  2.299199e+01    9.262781e-01
  2.300786e+01    9.011078e-01
  2.302374e+01    9.162593e-01
  2.303961e+01    9.075304e-01
  2.305549e+01    9.045858e-01
  2.307137e+01    9.060974e-01
  2.308724e+01    9.133776e-01
  2.310312e+01    9.030752e-01
  2.311899e+01    8.888994e-01
  2.313487e+01    8.895891e-01
  2.315074e+01    8.821437e-01
  2.316662e+01    8.983625e-01
  2.318249e+01    8.977873e-01
  2.319837e+01    8.941945e-01
  2.321425e+01    8.849238e-01
  2.323012e+01    8.798997e-01
  2.324600e+01    8.784636e-01
  2.326187e+01    8.789069e-01
  2.327775e+01    8.822715e-01
  2.329362e+01    8.887674e-01
  2.330950e+01    8.817608e-01
  2.332537e+01    8.887373e-01
  2.334125e+01    8.558592e-01
  2.335713e+01    8.666398e-01
  2.337300e+01    8.672977e-01
  2.338888e+01    8.902656e-01
  2.340475e+01    8.725118e-01
  2.342063e+01    8.629187e-01
  2.343650e+01    8.759644e-01
  2.345238e+01    8.667004e-01
  2.346825e+01    8.611571e-01
  2.348413e+01    8.533908e-01
  2.350001e+01    8.608915e-01
  2.351588e+01    8.540564e-01
  2.353176e+01    8.442885e-01
  2.354763e+01    8.684060e-01
  2.356351e+01    8.569843e-01
  2.357938e+01    8.513077e-01
  2.359526e+01    8.612147e-01
  2.361113e+01    8.551648e-01
  2.362701e+01    8.485603e-01
  2.364289e+01    8.373836e-01
  2.365876e+01    8.489744e-01
  2.367464e+01    8.481399e-01
  2.369051e+01    8.287881e-01
  2.370639e+01    8.418362e-01
  2.372226e+01    8.388399e-01
  2.373814e+01    8.241270e-01
  2.375401e+01    8.177723e-01
  2.376989e+01    8.041188e-01
  2.378577e+01    8.142138e-01
  2.380164e+01    8.116719e-01
  2.381752e+01    8.188671e-01
  2.383339e+01    8.085038e-01
  2.384927e+01    8.200687e-01
  2.386514e+01    8.255359e-01
  2.388102e+01    8.179553e-01
  2.389689e+01    8.046216e-01
  2.391277e+01    7.970168e-01
  2.392865e+01    7.998358e-01
  2.394452e+01    8.014688e-01
  2.396040e+01    8.124213e-01
  2.397627e+01    8.030161e-01
  2.399215e+01    7.889166e-01
  2.400802e+01    7.852828e-01
  2.402390e+01    7.812589e-01
  2.403978e+01    7.974449e-01
  2.405565e+01    8.089963e-01
  2.407153e+01    8.234608e-01
  2.408740e+01    7.970586e-01
  2.410328e+01    7.828024e-01
  2.411915e+01    7.959671e-01
  2.413503e+01    7.828386e-01
  2.415090e+01    7.679791e-01
  2.416678e+01    7.859892e-01
  2.418266e+01    7.697768e-01
  2.419853e+01    7.729486e-01
  2.421441e+01    8.024752e-01
  2.423028e+01    7.819506e-01
  2.424616e+01    7.832782e-01
  2.426203e+01    7.911224e-01
  2.427791e+01    7.855630e-01
  2.429378e+01    7.937399e-01
  2.430966e+01    7.971834e-01
  2.432554e+01    8.080238e-01
  2.434141e+01    8.013587e-01
  2.435729e+01    7.995711e-01
  2.437316e+01    8.293006e-01
  2.438904e+01    8.159202e-01
  2.440491e+01    7.941788e-01
  2.442079e+01    7.945685e-01
  2.443666e+01    8.067405e-01
  2.445254e+01    8.145500e-01
  2.446842e+01    8.075575e-01
  2.448429e+01    8.017903e-01
  2.450017e+01    7.894349e-01
  2.451604e+01    7.996740e-01
  2.453192e+01    8.094694e-01
  2.454779e+01    7.950051e-01
  2.456367e+01    7.870559e-01
  2.457954e+01    7.891596e-01
  2.459542e+01    7.984715e-01
  2.461130e+01    7.804102e-01
  2.462717e+01    7.830907e-01
  2.464305e+01    7.855318e-01
  2.465892e+01    7.997431e-01
  2.467480e+01    7.960682e-01
  2.469067e+01    8.181643e-01
  2.470655e+01    8.292131e-01
  2.472242e+01    8.137947e-01
  2.473830e+01    8.127781e-01
  2.475418e+01    8.037661e-01
  2.477005e+01    7.840142e-01
  2.478593e+01    7.979707e-01
  2.480180e+01    7.848693e-01
  2.481768e+01    8.091756e-01
  2.483355e+01    8.129463e-01
  2.484943e+01    7.943309e-01
  2.486530e+01    7.905415e-01
  2.488118e+01    8.087040e-01
  2.489706e+01    8.159242e-01
  2.491293e+01    8.113477e-01
  2.492881e+01    8.158399e-01
  2.494468e+01    8.253652e-01
  2.496056e+01    8.152766e-01
  2.497643e+01    8.092665e-01
  2.499231e+01    7.830383e-01
  2.500819e+01    8.050745e-01
  2.502406e+01    8.097477e-01
  2.503994e+01    7.886108e-01
  2.505581e+01    7.936274e-01
  2.507169e+01    7.993192e-01
  2.508756e+01    8.021462e-01
  2.510344e+01    7.941935e-01
  2.511931e+01    8.052654e-01
  2.513519e+01    8.293641e-01
  2.515107e+01    8.551851e-01
  2.516694e+01    8.493934e-01
  2.518282e+01    8.363054e-01
  2.519869e+01    8.569570e-01
  2.521457e+01    8.762999e-01
  2.523044e+01    8.482655e-01
  2.524632e+01    8.511766e-01
  2.526219e+01    8.601782e-01
  2.527807e+01    8.656190e-01
  2.529395e+01    8.683659e-01
  2.530982e+01    8.714089e-01
  2.532570e+01    8.880330e-01
  2.534157e+01    8.921174e-01
  2.535745e+01    8.946139e-01
  2.537332e+01    8.909888e-01
  2.538920e+01    8.898917e-01
  2.540507e+01    8.983957e-01
  2.542095e+01    9.236847e-01
  2.543683e+01    9.499906e-01
  2.545270e+01    9.503736e-01
  2.546858e+01    9.396511e-01
  2.548445e+01    9.606850e-01
  2.550033e+01    9.992509e-01
  2.551620e+01    9.829096e-01
  2.553208e+01    1.007761e+00
  2.554795e+01    1.026080e+00
  2.556383e+01    1.046911e+00
  2.557971e+01    1.077253e+00
  2.559558e+01    1.085634e+00
  2.561146e+01    1.103844e+00
  2.562733e+01    1.159355e+00
  2.564321e+01    1.201207e+00
  2.565908e+01    1.233007e+00
  2.567496e+01    1.300803e+00
  2.569083e+01    1.380697e+00
  2.570671e+01    1.454713e+00
  2.572259e+01    1.523998e+00
  2.573846e+01    1.601301e+00
  2.575434e+01    1.770040e+00
  2.577021e+01    1.920737e+00
  2.578609e+01    2.103868e+00
  2.580196e+01    2.357914e+00
  2.581784e+01    2.632843e+00
  2.583371e+01    2.989078e+00
  2.584959e+01    3.424481e+00
  2.586547e+01    3.924138e+00
  2.588134e+01    4.542964e+00
  2.589722e+01    5.183325e+00
  2.591309e+01    5.873862e+00
  2.592897e+01    6.723755e+00
  2.594484e+01    7.431883e+00
  2.596072e+01    8.000360e+00
  2.597660e+01    8.530867e+00
  2.599247e+01    8.753073e+00
  2.600835e+01    8.554533e+00
  2.602422e+01    8.082044e+00
  2.604010e+01    7.341425e+00
  2.605597e+01    6.491877e+00
  2.607185e+01    5.563447e+00
  2.608772e+01    4.759195e+00
  2.610360e+01    4.047853e+00
  2.611948e+01    3.450577e+00
  2.613535e+01    3.035220e+00
  2.615123e+01    2.657872e+00
  2.616710e+01    2.394694e+00
  2.618298e+01    2.160336e+00
  2.619885e+01    1.971835e+00
  2.621473e+01    1.796666e+00
  2.623060e+01    1.626578e+00
  2.624648e+01    1.572491e+00
  2.626236e+01    1.501374e+00
  2.627823e+01    1.380241e+00
  2.629411e+01    1.300201e+00
  2.630998e+01    1.271603e+00
  2.632586e+01    1.233060e+00
  2.634173e+01    1.178833e+00
  2.635761e+01    1.152511e+00
  2.637348e+01    1.124652e+00
  2.638936e+01    1.097560e+00
  2.640524e+01    1.067512e+00
  2.642111e+01    1.048730e+00
  2.643699e+01    1.024472e+00
  2.645286e+01    9.885957e-01
  2.646874e+01    9.911354e-01
  2.648461e+01    9.851471e-01
  2.650049e+01    9.805919e-01
  2.651636e+01    9.641432e-01
  2.653224e+01    9.485645e-01
  2.654812e+01    9.705670e-01
  2.656399e+01    9.773998e-01
  2.657987e+01    9.401110e-01
  2.659574e+01    9.004807e-01
  2.661162e+01    9.215394e-01
  2.662749e+01    9.287062e-01
  2.664337e+01    9.223602e-01
  2.665924e+01    9.294073e-01
  2.667512e+01    9.274327e-01
  2.669100e+01    9.407379e-01
  2.670687e+01    9.344578e-01
  2.672275e+01    9.128028e-01
  2.673862e+01    9.322606e-01
  2.675450e+01    9.393883e-01
  2.677037e+01    9.246342e-01
  2.678625e+01    9.014584e-01
  2.680212e+01    9.093558e-01
  2.681800e+01    9.357617e-01
  2.683388e+01    9.357380e-01
  2.684975e+01    9.311544e-01
  2.686563e+01    9.395437e-01
  2.688150e+01    9.501632e-01
  2.689738e+01    9.451255e-01
  2.691325e+01    9.124473e-01
  2.692913e+01    9.153292e-01
  2.694501e+01    9.577820e-01
  2.696088e+01    9.576005e-01
  2.697676e+01    9.700633e-01
  2.699263e+01    9.902322e-01
  2.700851e+01    1.001657e+00
  2.702438e+01    1.064051e+00
  2.704026e+01    1.084440e+00
  2.705613e+01    1.116211e+00
  2.707201e+01    1.134530e+00
  2.708789e+01    1.218795e+00
  2.710376e+01    1.305785e+00
  2.711964e+01    1.400582e+00
  2.713551e+01    1.493402e+00
  2.715139e+01    1.638559e+00
  2.716726e+01    1.795161e+00
  2.718314e+01    1.961566e+00
  2.719901e+01    2.117665e+00
  2.721489e+01    2.300698e+00
  2.723077e+01    2.427114e+00
  2.724664e+01    2.468727e+00
  2.726252e+01    2.493660e+00
  2.727839e+01    2.442691e+00
  2.729427e+01    2.288209e+00
  2.731014e+01    2.142722e+00
  2.732602e+01    1.884425e+00
  2.734189e+01    1.731098e+00
  2.735777e+01    1.602386e+00
  2.737365e+01    1.471384e+00
  2.738952e+01    1.342403e+00
  2.740540e+01    1.268742e+00
  2.742127e+01    1.201574e+00
  2.743715e+01    1.127684e+00
  2.745302e+01    1.091028e+00
  2.746890e+01    1.024081e+00
  2.748477e+01    1.014053e+00
  2.750065e+01    1.022516e+00
  2.751653e+01    9.772245e-01
  2.753240e+01    9.466092e-01
  2.754828e+01    9.176338e-01
  2.756415e+01    9.069018e-01
  2.758003e+01    9.030222e-01
  2.759590e+01    9.093631e-01
  2.761178e+01    8.865646e-01
  2.762765e+01    8.647127e-01
  2.764353e+01    8.516606e-01
  2.765941e+01    8.515887e-01
  2.767528e+01    8.395279e-01
  2.769116e+01    8.454208e-01
  2.770703e+01    8.447214e-01
  2.772291e+01    8.374648e-01
  2.773878e+01    8.306653e-01
  2.775466e+01    8.418761e-01
  2.777054e+01    8.171148e-01
  2.778641e+01    8.126380e-01
  2.780229e+01    8.451660e-01
  2.781816e+01    8.464373e-01
  2.783404e+01    8.352673e-01
  2.784991e+01    8.234372e-01
  2.786579e+01    8.370342e-01
  2.788166e+01    8.255256e-01
  2.789754e+01    8.087403e-01
  2.791342e+01    8.083930e-01
  2.792929e+01    8.344897e-01
  2.794517e+01    8.076271e-01
  2.796104e+01    7.878251e-01
  2.797692e+01    8.080626e-01
  2.799279e+01    8.152268e-01
  2.800867e+01    7.795708e-01
  2.802454e+01    7.933645e-01
  2.804042e+01    7.917132e-01
  2.805630e+01    7.822771e-01
  2.807217e+01    7.820482e-01
  2.808805e+01    7.890730e-01
  2.810392e+01    7.811272e-01
  2.811980e+01    7.695220e-01
  2.813567e+01    7.849397e-01
  2.815155e+01    7.889981e-01
  2.816742e+01    7.935730e-01
  2.818330e+01    7.855967e-01
  2.819918e+01    8.034902e-01
  2.821505e+01    7.854126e-01
  2.823093e+01    7.802984e-01
  2.824680e+01    7.605872e-01
  2.826268e+01    7.719257e-01
  2.827855e+01    7.779351e-01
  2.829443e+01    7.847668e-01
  2.831030e+01    7.893792e-01
  2.832618e+01    7.718692e-01
  2.834206e+01    7.652318e-01
  2.835793e+01    7.790229e-01
  2.837381e+01    7.643260e-01
  2.838968e+01    7.865329e-01
  2.840556e+01    7.618263e-01
  2.842143e+01    7.622460e-01
  2.843731e+01    7.659812e-01
  2.845318e+01    7.870549e-01
  2.846906e+01    7.660102e-01
  2.848494e+01    7.876744e-01
  2.850081e+01    7.747338e-01
  2.851669e+01    7.722320e-01
  2.853256e+01    7.753422e-01
  2.854844e+01    7.574318e-01
  2.856431e+01    7.605559e-01
  2.858019e+01    7.629948e-01
  2.859606e+01    7.844851e-01
  2.861194e+01    7.601619e-01
  2.862782e+01    7.571275e-01
  2.864369e+01    7.489128e-01
  2.865957e+01    7.680442e-01
  2.867544e+01    7.526633e-01
  2.869132e+01    7.441335e-01
  2.870719e+01    7.663280e-01
  2.872307e+01    7.746564e-01
  2.873895e+01    7.463994e-01
  2.875482e+01    7.577910e-01
  2.877070e+01    7.704673e-01
  2.878657e+01    7.556288e-01
  2.880245e+01    7.600372e-01
  2.881832e+01    7.525589e-01
  2.883420e+01    7.420448e-01
  2.885007e+01    7.692286e-01
  2.886595e+01    7.674554e-01
  2.888183e+01    7.490820e-01
  2.889770e+01    7.426516e-01
  2.891358e+01    7.463794e-01
  2.892945e+01    7.638084e-01
  2.894533e+01    7.586823e-01
  2.896120e+01    7.532817e-01
  2.897708e+01    7.516045e-01
  2.899295e+01    7.510582e-01
  2.900883e+01    7.269534e-01
  2.902471e+01    7.516512e-01
  2.904058e+01    7.582577e-01
  2.905646e+01    7.350572e-01
  2.907233e+01    7.178535e-01
  2.908821e+01    7.207460e-01
  2.910408e+01    7.201052e-01
  2.911996e+01    7.263384e-01
  2.913583e+01    7.452376e-01
  2.915171e+01    7.624759e-01
  2.916759e+01    7.845110e-01
  2.918346e+01    7.466720e-01
  2.919934e+01    7.287579e-01
  2.921521e+01    7.328593e-01
  2.923109e+01    7.394057e-01
  2.924696e+01    7.420466e-01
  2.926284e+01    7.418216e-01
  2.927871e+01    7.456977e-01
  2.929459e+01    7.375481e-01
  2.931047e+01    7.537768e-01
  2.932634e+01    7.610121e-01
  2.934222e+01    7.368345e-01
  2.935809e+01    7.118208e-01
  2.937397e+01    7.278783e-01
  2.938984e+01    7.440648e-01
  2.940572e+01    7.507857e-01
  2.942159e+01    7.339711e-01
  2.943747e+01    7.339788e-01
  2.945335e+01    7.267720e-01
  2.946922e+01    7.347733e-01
  2.948510e+01    7.380173e-01
  2.950097e+01    7.326534e-01
  2.951685e+01    7.327272e-01
  2.953272e+01    7.457297e-01
  2.954860e+01    7.477393e-01
  2.956447e+01    7.355628e-01
  2.958035e+01    7.364257e-01
  2.959623e+01    7.250017e-01
  2.961210e+01    7.186547e-01
  2.962798e+01    7.332620e-01
  2.964385e+01    7.423795e-01
  2.965973e+01    7.186824e-01
  2.967560e+01    7.242413e-01
  2.969148e+01    7.308422e-01
  2.970736e+01    7.300914e-01
  2.972323e+01    7.355475e-01
  2.973911e+01    7.260865e-01
  2.975498e+01    7.403261e-01
  2.977086e+01    7.153641e-01
  2.978673e+01    7.301437e-01
  2.980261e+01    7.139179e-01
  2.981848e+01    7.225642e-01
  2.983436e+01    7.193146e-01
  2.985024e+01    7.360394e-01
  2.986611e+01    7.361966e-01
  2.988199e+01    7.403785e-01
  2.989786e+01    7.188399e-01
  2.991374e+01    7.249365e-01
  2.992961e+01    7.440287e-01
  2.994549e+01    7.295933e-01
  2.996136e+01    7.196571e-01
  2.997724e+01    7.529936e-01
  2.999312e+01    7.522538e-01
  3.000899e+01    7.363356e-01
  3.002487e+01    7.316691e-01
  3.004074e+01    7.473739e-01
  3.005662e+01    7.420230e-01
  3.007249e+01    7.605695e-01
  3.008837e+01    7.484189e-01
  3.010424e+01    7.521266e-01
  3.012012e+01    7.497192e-01
  3.013600e+01    7.347509e-01
  3.015187e+01    7.369421e-01
  3.016775e+01    7.333117e-01
  3.018362e+01    7.267745e-01
  3.019950e+01    7.506862e-01
  3.021537e+01    7.286493e-01
  3.023125e+01    7.137324e-01
  3.024712e+01    7.166528e-01
  3.026300e+01    7.136807e-01
  3.027888e+01    7.292513e-01
  3.029475e+01    7.165929e-01
  3.031063e+01    7.100149e-01
  3.032650e+01    7.174422e-01
  3.034238e+01    7.264585e-01
  3.035825e+01    7.263150e-01
  3.037413e+01    7.241215e-01
  3.039000e+01    7.208301e-01
  3.040588e+01    7.162524e-01
  3.042176e+01    7.357198e-01
  3.043763e+01    7.144975e-01
  3.045351e+01    7.033257e-01
  3.046938e+01    7.257788e-01
  3.048526e+01    7.135362e-01
  3.050113e+01    7.176025e-01
  3.051701e+01    7.169363e-01
  3.053288e+01    7.004009e-01
  3.054876e+01    6.996369e-01
  3.056464e+01    7.175537e-01
  3.058051e+01    7.240787e-01
  3.059639e+01    7.359106e-01
  3.061226e+01    7.246343e-01
  3.062814e+01    7.206720e-01
  3.064401e+01    7.381611e-01
  3.065989e+01    7.268685e-01
  3.067577e+01    7.330446e-01
  3.069164e+01    7.165776e-01
  3.070752e+01    7.195517e-01
  3.072339e+01    7.075589e-01
  3.073927e+01    7.177682e-01
  3.075514e+01    7.275552e-01
  3.077102e+01    7.364183e-01
  3.078689e+01    7.470998e-01
  3.080277e+01    7.322494e-01
  3.081865e+01    7.136227e-01
  3.083452e+01    7.066783e-01
  3.085040e+01    7.199917e-01
  3.086627e+01    7.354208e-01
  3.088215e+01    7.318463e-01
  3.089802e+01    7.341570e-01
  3.091390e+01    7.138034e-01
  3.092977e+01    7.018288e-01
  3.094565e+01    7.142900e-01
  3.096153e+01    7.173512e-01
  3.097740e+01    6.958493e-01
  3.099328e+01    7.114758e-01
  3.100915e+01    7.307190e-01
  3.102503e+01    7.567382e-01
  3.104090e+01    7.433532e-01
  3.105678e+01    7.349116e-01
  3.107265e+01    7.305032e-01
  3.108853e+01    7.342908e-01
  3.110441e+01    7.454959e-01
  3.112028e+01    7.358472e-01
  3.113616e+01    7.339348e-01
  3.115203e+01    7.190464e-01
  3.116791e+01    7.362056e-01
  3.118378e+01    7.346923e-01
  3.119966e+01    7.331523e-01
  3.121553e+01    7.321338e-01
  3.123141e+01    7.401181e-01
  3.124729e+01    7.382137e-01
  3.126316e+01    7.585629e-01
  3.127904e+01    7.514160e-01
  3.129491e+01    7.561180e-01
  3.131079e+01    7.350788e-01
  3.132666e+01    7.251580e-01
  3.134254e+01    7.396462e-01
  3.135841e+01    7.212996e-01
  3.137429e+01    7.373080e-01
  3.139017e+01    7.499980e-01
  3.140604e+01    7.688484e-01
  3.142192e+01    7.458989e-01
  3.143779e+01    7.509613e-01
  3.145367e+01    7.715262e-01
  3.146954e+01    7.744637e-01
  3.148542e+01    7.683747e-01
  3.150129e+01    7.622610e-01
  3.151717e+01    7.852030e-01
  3.153305e+01    8.219224e-01
  3.154892e+01    8.052703e-01
  3.156480e+01    7.774962e-01
  3.158067e+01    7.905983e-01
  3.159655e+01    7.904392e-01
  3.161242e+01    8.276161e-01
  3.162830e+01    8.518031e-01
  3.164418e+01    8.687426e-01
  3.166005e+01    8.451614e-01
  3.167593e+01    8.565246e-01
  3.169180e+01    8.817010e-01
  3.170768e+01    9.408179e-01
  3.172355e+01    9.752227e-01
  3.173943e+01    1.021073e+00
  3.175530e+01    1.072730e+00
  3.177118e+01    1.109404e+00
  3.178706e+01    1.165516e+00
  3.180293e+01    1.233284e+00
  3.181881e+01    1.371070e+00
  3.183468e+01    1.488080e+00
  3.185056e+01    1.623505e+00
  3.186643e+01    1.817364e+00
  3.188231e+01    2.004578e+00
  3.189818e+01    2.162700e+00
  3.191406e+01    2.292327e+00
  3.192994e+01    2.427245e+00
  3.194581e+01    2.521908e+00
  3.196169e+01    2.460455e+00
  3.197756e+01    2.339108e+00
  3.199344e+01    2.217429e+00
  3.200931e+01    2.017762e+00
  3.202519e+01    1.863401e+00
  3.204106e+01    1.698801e+00
  3.205694e+01    1.533446e+00
  3.207282e+01    1.373598e+00
  3.208869e+01    1.264913e+00
  3.210457e+01    1.181311e+00
  3.212044e+01    1.097973e+00
  3.213632e+01    1.050510e+00
  3.215219e+01    1.001119e+00
  3.216807e+01    9.734628e-01
  3.218394e+01    9.222046e-01
  3.219982e+01    8.946614e-01
  3.221570e+01    8.936273e-01
  3.223157e+01    8.528687e-01
  3.224745e+01    8.310357e-01
  3.226332e+01    8.062450e-01
  3.227920e+01    8.203625e-01
  3.229507e+01    8.198271e-01
  3.231095e+01    7.956239e-01
  3.232682e+01    8.028243e-01
  3.234270e+01    7.880712e-01
  3.235858e+01    7.645050e-01
  3.237445e+01    7.622578e-01
  3.239033e+01    7.677567e-01
  3.240620e+01    7.619853e-01
  3.242208e+01    7.536021e-01
  3.243795e+01    7.429490e-01
  3.245383e+01    7.510603e-01
  3.246970e+01    7.260856e-01
  3.248558e+01    7.342410e-01
  3.250146e+01    7.259202e-01
  3.251733e+01    7.134416e-01
  3.253321e+01    7.302782e-01
  3.254908e+01    7.488313e-01
