# == pyFAI calibration ==
# Distance Sample to Detector: 0.3999999939076516 m
# PONI: 9.750e-02, 1.135e-01 m
# Rotations: -0.000175 0.000000 -0.000000 rad
# 
# == Fit2d calibration ==
# Distance Sample-beamCenter: 400.000 mm
# Center: x=1514.000, y=1300.000 pix
# Tilt: 0.010 deg  TiltPlanRot: 0.010 deg
# 
# Detector Detector	 Spline= None	 PixelSize= 7.500e-05, 7.500e-05 m
#    Detector has a mask: False 
#    Detector has a dark current: False 
#    detector has a flat field: False 
# 
# Wavelength: 6.888e-11 m
# Mask applied: user provided
# Dark current applied: False
# Flat field applied: False
# Polarization factor: 0.99
# Normalization factor: 1.0
# --> /home/myspot/data/2024_07_Rosario/Ru-CGO-ex/2024-07-27_002_Ru-CGO-ex_Activtation_ramp_000002_data_000179.dat
#       q_nm^-1             I 
  2.003187e-02    0.000000e+00
  3.590745e-02    0.000000e+00
  5.178302e-02    1.006020e-01
  6.765859e-02    2.444475e-01
  8.353417e-02    2.818632e-01
  9.940974e-02    3.850427e-02
  1.152853e-01    0.000000e+00
  1.311609e-01    0.000000e+00
  1.470365e-01    2.548682e-02
  1.629120e-01    8.958505e-02
  1.787876e-01    5.683800e-02
  1.946632e-01    0.000000e+00
  2.105388e-01    4.495663e-02
  2.264143e-01    3.826791e-02
  2.422899e-01    3.009280e-02
  2.581655e-01    2.308686e-02
  2.740411e-01    2.082506e-02
  2.899166e-01    3.190034e-02
  3.057922e-01    7.278647e-02
  3.216678e-01    4.646235e-02
  3.375433e-01    3.755706e-02
  3.534189e-01    1.661496e-02
  3.692945e-01    5.168044e-03
  3.851701e-01    2.070940e-02
  4.010456e-01    5.429458e-02
  4.169212e-01    4.206368e-02
  4.327968e-01    3.567847e-02
  4.486724e-01    2.815032e-02
  4.645479e-01    3.047342e-02
  4.804235e-01    3.066270e-02
  4.962991e-01    5.615197e-02
  5.121747e-01    5.757553e-02
  5.280502e-01    4.376129e-02
  5.439258e-01    2.458620e-02
  5.598014e-01    3.208054e-02
  5.756770e-01    3.729355e-02
  5.915525e-01    2.379326e-02
  6.074281e-01    2.170752e-02
  6.233037e-01    1.393795e-02
  6.391793e-01    4.638389e-02
  6.550548e-01    3.448011e-02
  6.709304e-01    2.636402e-02
  6.868060e-01    4.430439e-02
  7.026815e-01    4.126258e-02
  7.185571e-01    5.374999e-02
  7.344327e-01    4.448382e-02
  7.503083e-01    3.092459e-02
  7.661838e-01    5.717389e-02
  7.820594e-01    8.151692e-02
  7.979350e-01    1.344566e-01
  8.138106e-01    2.223557e-01
  8.296861e-01    3.260061e-01
  8.455617e-01    3.272494e-01
  8.614373e-01    3.572004e-01
  8.773129e-01    4.136860e-01
  8.931884e-01    5.204969e-01
  9.090640e-01    5.771846e-01
  9.249396e-01    5.109113e-01
  9.408152e-01    6.876358e-01
  9.566907e-01    8.538608e-01
  9.725663e-01    8.057300e-01
  9.884419e-01    9.692786e-01
  1.004317e+00    1.011884e+00
  1.020193e+00    1.102514e+00
  1.036069e+00    1.196310e+00
  1.051944e+00    1.200036e+00
  1.067820e+00    1.248083e+00
  1.083695e+00    1.278688e+00
  1.099571e+00    1.358873e+00
  1.115446e+00    1.482882e+00
  1.131322e+00    1.386766e+00
  1.147198e+00    1.398452e+00
  1.163073e+00    1.441121e+00
  1.178949e+00    1.459976e+00
  1.194824e+00    1.562985e+00
  1.210700e+00    1.782468e+00
  1.226575e+00    2.049000e+00
  1.242451e+00    2.206314e+00
  1.258327e+00    2.361168e+00
  1.274202e+00    2.329399e+00
  1.290078e+00    2.364846e+00
  1.305953e+00    2.417234e+00
  1.321829e+00    2.460130e+00
  1.337705e+00    2.559884e+00
  1.353580e+00    2.605423e+00
  1.369456e+00    2.472489e+00
  1.385331e+00    2.525318e+00
  1.401207e+00    2.611645e+00
  1.417082e+00    2.624204e+00
  1.432958e+00    2.593650e+00
  1.448834e+00    2.698360e+00
  1.464709e+00    2.722783e+00
  1.480585e+00    2.642631e+00
  1.496460e+00    2.819531e+00
  1.512336e+00    2.845840e+00
  1.528211e+00    2.884095e+00
  1.544087e+00    3.013858e+00
  1.559963e+00    3.054703e+00
  1.575838e+00    2.815691e+00
  1.591714e+00    2.807004e+00
  1.607589e+00    2.855532e+00
  1.623465e+00    2.693142e+00
  1.639340e+00    2.693529e+00
  1.655216e+00    2.658963e+00
  1.671092e+00    2.711798e+00
  1.686967e+00    2.803831e+00
  1.702843e+00    2.743486e+00
  1.718718e+00    2.738048e+00
  1.734594e+00    2.717103e+00
  1.750469e+00    2.777754e+00
  1.766345e+00    2.756831e+00
  1.782221e+00    2.794596e+00
  1.798096e+00    2.911290e+00
  1.813972e+00    2.709857e+00
  1.829847e+00    2.699030e+00
  1.845723e+00    2.753749e+00
  1.861598e+00    2.767928e+00
  1.877474e+00    2.568053e+00
  1.893350e+00    2.633537e+00
  1.909225e+00    2.725377e+00
  1.925101e+00    2.746345e+00
  1.940976e+00    2.675320e+00
  1.956852e+00    2.767169e+00
  1.972727e+00    2.766068e+00
  1.988603e+00    2.681855e+00
  2.004479e+00    2.651137e+00
  2.020354e+00    2.716403e+00
  2.036230e+00    2.694812e+00
  2.052105e+00    2.669163e+00
  2.067981e+00    2.601560e+00
  2.083856e+00    2.705611e+00
  2.099732e+00    2.826650e+00
  2.115608e+00    2.736452e+00
  2.131483e+00    2.606576e+00
  2.147359e+00    2.737029e+00
  2.163234e+00    2.700395e+00
  2.179110e+00    2.717174e+00
  2.194985e+00    2.645779e+00
  2.210861e+00    2.668841e+00
  2.226737e+00    2.806265e+00
  2.242612e+00    2.885610e+00
  2.258488e+00    2.815192e+00
  2.274363e+00    2.861070e+00
  2.290239e+00    2.795342e+00
  2.306115e+00    2.871845e+00
  2.321990e+00    2.751836e+00
  2.337866e+00    2.722460e+00
  2.353741e+00    2.730317e+00
  2.369617e+00    2.785348e+00
  2.385492e+00    2.765247e+00
  2.401368e+00    2.824096e+00
  2.417244e+00    2.771621e+00
  2.433119e+00    2.784443e+00
  2.448995e+00    2.828531e+00
  2.464870e+00    2.845670e+00
  2.480746e+00    2.834462e+00
  2.496621e+00    2.774789e+00
  2.512497e+00    2.785780e+00
  2.528373e+00    2.788353e+00
  2.544248e+00    2.869392e+00
  2.560124e+00    2.846434e+00
  2.575999e+00    2.668617e+00
  2.591875e+00    2.670172e+00
  2.607750e+00    2.710599e+00
  2.623626e+00    2.799556e+00
  2.639502e+00    2.836736e+00
  2.655377e+00    2.775039e+00
  2.671253e+00    2.761991e+00
  2.687128e+00    2.862772e+00
  2.703004e+00    2.841442e+00
  2.718879e+00    2.812437e+00
  2.734755e+00    2.882401e+00
  2.750631e+00    2.871137e+00
  2.766506e+00    2.905253e+00
  2.782382e+00    2.869077e+00
  2.798257e+00    2.881473e+00
  2.814133e+00    2.820634e+00
  2.830008e+00    2.833586e+00
  2.845884e+00    2.905981e+00
  2.861760e+00    2.936297e+00
  2.877635e+00    2.979510e+00
  2.893511e+00    2.844823e+00
  2.909386e+00    2.785702e+00
  2.925262e+00    2.852050e+00
  2.941137e+00    2.882879e+00
  2.957013e+00    2.882539e+00
  2.972889e+00    2.774724e+00
  2.988764e+00    2.848757e+00
  3.004640e+00    2.954918e+00
  3.020515e+00    2.970659e+00
  3.036391e+00    2.868249e+00
  3.052266e+00    2.820124e+00
  3.068142e+00    2.846521e+00
  3.084018e+00    2.953713e+00
  3.099893e+00    2.858335e+00
  3.115769e+00    2.918221e+00
  3.131644e+00    2.924223e+00
  3.147520e+00    2.929934e+00
  3.163395e+00    2.866871e+00
  3.179271e+00    2.798890e+00
  3.195147e+00    2.882142e+00
  3.211022e+00    2.989851e+00
  3.226898e+00    2.966296e+00
  3.242773e+00    2.840156e+00
  3.258649e+00    2.952060e+00
  3.274525e+00    2.953847e+00
  3.290400e+00    2.884113e+00
  3.306276e+00    2.793314e+00
  3.322151e+00    2.774173e+00
  3.338027e+00    2.884345e+00
  3.353902e+00    2.930562e+00
  3.369778e+00    2.880650e+00
  3.385654e+00    2.896183e+00
  3.401529e+00    2.919637e+00
  3.417405e+00    2.985530e+00
  3.433280e+00    3.062368e+00
  3.449156e+00    2.977636e+00
  3.465031e+00    3.017902e+00
  3.480907e+00    3.017002e+00
  3.496783e+00    2.959463e+00
  3.512658e+00    3.051250e+00
  3.528534e+00    3.055712e+00
  3.544409e+00    2.923833e+00
  3.560285e+00    2.975124e+00
  3.576160e+00    3.019135e+00
  3.592036e+00    2.967737e+00
  3.607912e+00    2.941946e+00
  3.623787e+00    2.964649e+00
  3.639663e+00    3.011657e+00
  3.655538e+00    2.954309e+00
  3.671414e+00    3.008971e+00
  3.687289e+00    3.047134e+00
  3.703165e+00    2.995641e+00
  3.719041e+00    2.935183e+00
  3.734916e+00    2.990360e+00
  3.750792e+00    2.901967e+00
  3.766667e+00    2.897691e+00
  3.782543e+00    3.015558e+00
  3.798418e+00    2.942310e+00
  3.814294e+00    2.974712e+00
  3.830170e+00    2.962130e+00
  3.846045e+00    3.010123e+00
  3.861921e+00    3.011635e+00
  3.877796e+00    3.039459e+00
  3.893672e+00    3.065466e+00
  3.909547e+00    3.041635e+00
  3.925423e+00    3.025813e+00
  3.941299e+00    3.021752e+00
  3.957174e+00    3.031556e+00
  3.973050e+00    3.008380e+00
  3.988925e+00    3.002958e+00
  4.004801e+00    3.026211e+00
  4.020676e+00    3.129951e+00
  4.036552e+00    3.136947e+00
  4.052428e+00    3.079220e+00
  4.068303e+00    3.084626e+00
  4.084179e+00    3.051566e+00
  4.100054e+00    3.008145e+00
  4.115930e+00    3.010104e+00
  4.131806e+00    3.002176e+00
  4.147681e+00    3.132939e+00
  4.163557e+00    3.244601e+00
  4.179432e+00    3.129819e+00
  4.195308e+00    3.068430e+00
  4.211183e+00    3.079820e+00
  4.227059e+00    3.187356e+00
  4.242935e+00    3.106380e+00
  4.258810e+00    2.950500e+00
  4.274686e+00    3.003173e+00
  4.290561e+00    3.088526e+00
  4.306437e+00    3.048112e+00
  4.322312e+00    3.064723e+00
  4.338188e+00    3.083615e+00
  4.354064e+00    3.101319e+00
  4.369939e+00    3.107667e+00
  4.385815e+00    3.069622e+00
  4.401690e+00    3.082074e+00
  4.417566e+00    3.075166e+00
  4.433441e+00    3.076225e+00
  4.449317e+00    3.100222e+00
  4.465193e+00    3.021340e+00
  4.481068e+00    3.043195e+00
  4.496944e+00    3.085743e+00
  4.512819e+00    3.072374e+00
  4.528695e+00    3.053657e+00
  4.544570e+00    3.067799e+00
  4.560446e+00    3.068545e+00
  4.576322e+00    3.013253e+00
  4.592197e+00    3.063915e+00
  4.608073e+00    3.113075e+00
  4.623948e+00    3.152532e+00
  4.639824e+00    3.081544e+00
  4.655699e+00    3.003494e+00
  4.671575e+00    3.067692e+00
  4.687451e+00    3.105985e+00
  4.703326e+00    3.111892e+00
  4.719202e+00    3.068405e+00
  4.735077e+00    3.125336e+00
  4.750953e+00    3.102454e+00
  4.766828e+00    3.115861e+00
  4.782704e+00    3.078211e+00
  4.798580e+00    3.084169e+00
  4.814455e+00    3.180748e+00
  4.830331e+00    3.210686e+00
  4.846206e+00    3.154999e+00
  4.862082e+00    3.195002e+00
  4.877957e+00    3.162352e+00
  4.893833e+00    3.125680e+00
  4.909709e+00    3.142516e+00
  4.925584e+00    3.071785e+00
  4.941460e+00    3.108545e+00
  4.957335e+00    3.078059e+00
  4.973211e+00    3.123414e+00
  4.989086e+00    3.204548e+00
  5.004962e+00    3.180150e+00
  5.020838e+00    3.134995e+00
  5.036713e+00    3.153818e+00
  5.052589e+00    3.156245e+00
  5.068464e+00    3.130294e+00
  5.084340e+00    3.121964e+00
  5.100216e+00    3.168903e+00
  5.116091e+00    3.087450e+00
  5.131967e+00    3.127701e+00
  5.147842e+00    3.116931e+00
  5.163718e+00    3.104129e+00
  5.179593e+00    3.070635e+00
  5.195469e+00    3.117942e+00
  5.211345e+00    3.168721e+00
  5.227220e+00    3.167754e+00
  5.243096e+00    3.178182e+00
  5.258971e+00    3.157058e+00
  5.274847e+00    3.195582e+00
  5.290722e+00    3.155025e+00
  5.306598e+00    3.176159e+00
  5.322474e+00    3.205075e+00
  5.338349e+00    3.164258e+00
  5.354225e+00    3.173862e+00
  5.370100e+00    3.100749e+00
  5.385976e+00    3.116241e+00
  5.401851e+00    3.127354e+00
  5.417727e+00    3.135606e+00
  5.433603e+00    3.138053e+00
  5.449478e+00    3.111401e+00
  5.465354e+00    3.126047e+00
  5.481229e+00    3.094914e+00
  5.497105e+00    3.070636e+00
  5.512980e+00    3.086709e+00
  5.528856e+00    3.085762e+00
  5.544732e+00    3.132175e+00
  5.560607e+00    3.151793e+00
  5.576483e+00    3.167026e+00
  5.592358e+00    3.159628e+00
  5.608234e+00    3.079826e+00
  5.624109e+00    3.048634e+00
  5.639985e+00    2.990858e+00
  5.655861e+00    3.047162e+00
  5.671736e+00    3.029943e+00
  5.687612e+00    3.069649e+00
  5.703487e+00    3.050506e+00
  5.719363e+00    3.084147e+00
  5.735238e+00    3.135882e+00
  5.751114e+00    3.050922e+00
  5.766990e+00    3.148020e+00
  5.782865e+00    3.118137e+00
  5.798741e+00    3.094316e+00
  5.814616e+00    3.058169e+00
  5.830492e+00    3.009479e+00
  5.846367e+00    2.971794e+00
  5.862243e+00    3.056052e+00
  5.878119e+00    3.032483e+00
  5.893994e+00    2.995422e+00
  5.909870e+00    3.061515e+00
  5.925745e+00    3.148510e+00
  5.941621e+00    3.093500e+00
  5.957497e+00    2.967743e+00
  5.973372e+00    2.968374e+00
  5.989248e+00    3.004828e+00
  6.005123e+00    2.998588e+00
  6.020999e+00    2.993250e+00
  6.036874e+00    3.080333e+00
  6.052750e+00    3.089212e+00
  6.068626e+00    3.085288e+00
  6.084501e+00    3.067511e+00
  6.100377e+00    3.058044e+00
  6.116252e+00    3.076710e+00
  6.132128e+00    3.047174e+00
  6.148003e+00    3.125058e+00
  6.163879e+00    3.055307e+00
  6.179755e+00    3.006946e+00
  6.195630e+00    3.081856e+00
  6.211506e+00    3.135319e+00
  6.227381e+00    3.107289e+00
  6.243257e+00    3.099180e+00
  6.259132e+00    3.126836e+00
  6.275008e+00    3.127368e+00
  6.290884e+00    3.130338e+00
  6.306759e+00    3.043335e+00
  6.322635e+00    3.013597e+00
  6.338510e+00    3.035106e+00
  6.354386e+00    3.070782e+00
  6.370261e+00    3.101460e+00
  6.386137e+00    3.060374e+00
  6.402013e+00    3.014674e+00
  6.417888e+00    3.001201e+00
  6.433764e+00    3.082475e+00
  6.449639e+00    3.051708e+00
  6.465515e+00    3.058765e+00
  6.481390e+00    3.071275e+00
  6.497266e+00    3.170238e+00
  6.513142e+00    3.077428e+00
  6.529017e+00    3.098859e+00
  6.544893e+00    3.102979e+00
  6.560768e+00    3.089329e+00
  6.576644e+00    3.053753e+00
  6.592519e+00    3.082141e+00
  6.608395e+00    3.140280e+00
  6.624271e+00    3.092072e+00
  6.640146e+00    3.028549e+00
  6.656022e+00    3.061819e+00
  6.671897e+00    3.016753e+00
  6.687773e+00    3.103229e+00
  6.703648e+00    3.069854e+00
  6.719524e+00    3.041973e+00
  6.735400e+00    3.094388e+00
  6.751275e+00    3.036476e+00
  6.767151e+00    2.987411e+00
  6.783026e+00    3.009547e+00
  6.798902e+00    3.040391e+00
  6.814777e+00    3.006159e+00
  6.830653e+00    3.073071e+00
  6.846529e+00    3.045176e+00
  6.862404e+00    3.013195e+00
  6.878280e+00    3.024753e+00
  6.894155e+00    2.942827e+00
  6.910031e+00    3.008425e+00
  6.925907e+00    3.018683e+00
  6.941782e+00    2.998714e+00
  6.957658e+00    2.982323e+00
  6.973533e+00    3.028305e+00
  6.989409e+00    3.053184e+00
  7.005284e+00    3.080958e+00
  7.021160e+00    3.068414e+00
  7.037036e+00    3.067323e+00
  7.052911e+00    3.088385e+00
  7.068787e+00    2.968937e+00
  7.084662e+00    2.979928e+00
  7.100538e+00    3.011696e+00
  7.116413e+00    3.098283e+00
  7.132289e+00    3.041414e+00
  7.148165e+00    3.038553e+00
  7.164040e+00    3.074208e+00
  7.179916e+00    3.034902e+00
  7.195791e+00    3.010204e+00
  7.211667e+00    2.975762e+00
  7.227542e+00    2.987727e+00
  7.243418e+00    2.969169e+00
  7.259294e+00    2.957412e+00
  7.275169e+00    2.964506e+00
  7.291045e+00    2.993156e+00
  7.306920e+00    3.014308e+00
  7.322796e+00    2.995254e+00
  7.338671e+00    2.963611e+00
  7.354547e+00    2.966718e+00
  7.370423e+00    2.976139e+00
  7.386298e+00    3.002948e+00
  7.402174e+00    2.992620e+00
  7.418049e+00    2.955670e+00
  7.433925e+00    2.934033e+00
  7.449800e+00    2.966181e+00
  7.465676e+00    2.969145e+00
  7.481552e+00    3.031475e+00
  7.497427e+00    3.027799e+00
  7.513303e+00    2.933434e+00
  7.529178e+00    2.981415e+00
  7.545054e+00    3.021120e+00
  7.560929e+00    3.000297e+00
  7.576805e+00    2.986748e+00
  7.592681e+00    2.991082e+00
  7.608556e+00    3.003815e+00
  7.624432e+00    2.926099e+00
  7.640307e+00    2.958491e+00
  7.656183e+00    3.006866e+00
  7.672058e+00    2.975629e+00
  7.687934e+00    3.006511e+00
  7.703810e+00    3.038451e+00
  7.719685e+00    2.996299e+00
  7.735561e+00    2.981525e+00
  7.751436e+00    2.944828e+00
  7.767312e+00    2.951104e+00
  7.783187e+00    3.013098e+00
  7.799063e+00    2.960828e+00
  7.814939e+00    2.951744e+00
  7.830814e+00    2.940361e+00
  7.846690e+00    2.965012e+00
  7.862565e+00    2.963531e+00
  7.878441e+00    2.913273e+00
  7.894317e+00    2.900115e+00
  7.910192e+00    2.912435e+00
  7.926068e+00    2.943293e+00
  7.941943e+00    2.968989e+00
  7.957819e+00    3.031036e+00
  7.973694e+00    2.952301e+00
  7.989570e+00    2.989019e+00
  8.005446e+00    2.969775e+00
  8.021321e+00    2.962339e+00
  8.037197e+00    2.942644e+00
  8.053072e+00    2.952079e+00
  8.068948e+00    2.948562e+00
  8.084823e+00    2.927196e+00
  8.100699e+00    2.959382e+00
  8.116575e+00    2.973982e+00
  8.132450e+00    2.939572e+00
  8.148326e+00    3.009403e+00
  8.164201e+00    2.965785e+00
  8.180077e+00    2.915689e+00
  8.195952e+00    2.978819e+00
  8.211828e+00    2.987179e+00
  8.227704e+00    3.006641e+00
  8.243579e+00    3.028682e+00
  8.259455e+00    2.996633e+00
  8.275330e+00    2.942920e+00
  8.291206e+00    2.935887e+00
  8.307081e+00    2.905204e+00
  8.322957e+00    2.884569e+00
  8.338833e+00    2.917206e+00
  8.354708e+00    2.943288e+00
  8.370584e+00    2.924366e+00
  8.386459e+00    2.952947e+00
  8.402335e+00    2.936113e+00
  8.418210e+00    2.915474e+00
  8.434086e+00    2.882778e+00
  8.449962e+00    2.957490e+00
  8.465837e+00    2.871178e+00
  8.481713e+00    2.922573e+00
  8.497588e+00    2.887680e+00
  8.513464e+00    2.880949e+00
  8.529339e+00    2.971707e+00
  8.545215e+00    2.911035e+00
  8.561091e+00    2.901570e+00
  8.576966e+00    2.850884e+00
  8.592842e+00    2.899215e+00
  8.608717e+00    2.889888e+00
  8.624593e+00    2.898673e+00
  8.640468e+00    2.867985e+00
  8.656344e+00    2.889028e+00
  8.672220e+00    2.901098e+00
  8.688095e+00    2.912364e+00
  8.703971e+00    2.854141e+00
  8.719846e+00    2.827823e+00
  8.735722e+00    2.841853e+00
  8.751598e+00    2.813005e+00
  8.767473e+00    2.772488e+00
  8.783349e+00    2.906463e+00
  8.799224e+00    2.847310e+00
  8.815100e+00    2.886101e+00
  8.830975e+00    2.902535e+00
  8.846851e+00    2.867608e+00
  8.862727e+00    2.841107e+00
  8.878602e+00    2.875328e+00
  8.894478e+00    2.913122e+00
  8.910353e+00    2.854287e+00
  8.926229e+00    2.849130e+00
  8.942104e+00    2.842294e+00
  8.957980e+00    2.813962e+00
  8.973856e+00    2.799544e+00
  8.989731e+00    2.838103e+00
  9.005607e+00    2.864566e+00
  9.021482e+00    2.851608e+00
  9.037358e+00    2.835196e+00
  9.053233e+00    2.830938e+00
  9.069109e+00    2.863066e+00
  9.084985e+00    2.856366e+00
  9.100860e+00    2.846312e+00
  9.116736e+00    2.818613e+00
  9.132611e+00    2.835414e+00
  9.148487e+00    2.871976e+00
  9.164362e+00    2.860461e+00
  9.180238e+00    2.858331e+00
  9.196114e+00    2.811673e+00
  9.211989e+00    2.832799e+00
  9.227865e+00    2.822595e+00
  9.243740e+00    2.810604e+00
  9.259616e+00    2.771945e+00
  9.275491e+00    2.838325e+00
  9.291367e+00    2.819775e+00
  9.307243e+00    2.804825e+00
  9.323118e+00    2.835785e+00
  9.338994e+00    2.804701e+00
  9.354869e+00    2.768569e+00
  9.370745e+00    2.804528e+00
  9.386620e+00    2.779627e+00
  9.402496e+00    2.795953e+00
  9.418372e+00    2.794497e+00
  9.434247e+00    2.773478e+00
  9.450123e+00    2.774006e+00
  9.465998e+00    2.775522e+00
  9.481874e+00    2.782264e+00
  9.497749e+00    2.736310e+00
  9.513625e+00    2.734658e+00
  9.529501e+00    2.784386e+00
  9.545376e+00    2.826299e+00
  9.561252e+00    2.846365e+00
  9.577127e+00    2.779865e+00
  9.593003e+00    2.706249e+00
  9.608878e+00    2.730361e+00
  9.624754e+00    2.789715e+00
  9.640630e+00    2.837759e+00
  9.656505e+00    2.729276e+00
  9.672381e+00    2.722831e+00
  9.688256e+00    2.750787e+00
  9.704132e+00    2.742871e+00
  9.720008e+00    2.706127e+00
  9.735883e+00    2.727254e+00
  9.751759e+00    2.761274e+00
  9.767634e+00    2.729013e+00
  9.783510e+00    2.675496e+00
  9.799385e+00    2.650906e+00
  9.815261e+00    2.738669e+00
  9.831137e+00    2.693931e+00
  9.847012e+00    2.736843e+00
  9.862888e+00    2.725765e+00
  9.878763e+00    2.701707e+00
  9.894639e+00    2.669187e+00
  9.910514e+00    2.644827e+00
  9.926390e+00    2.680025e+00
  9.942266e+00    2.664468e+00
  9.958141e+00    2.680764e+00
  9.974017e+00    2.668155e+00
  9.989892e+00    2.658514e+00
  1.000577e+01    2.710328e+00
  1.002164e+01    2.696235e+00
  1.003752e+01    2.655076e+00
  1.005339e+01    2.718118e+00
  1.006927e+01    2.679220e+00
  1.008515e+01    2.697751e+00
  1.010102e+01    2.684882e+00
  1.011690e+01    2.672074e+00
  1.013277e+01    2.648345e+00
  1.014865e+01    2.712608e+00
  1.016452e+01    2.667035e+00
  1.018040e+01    2.652927e+00
  1.019627e+01    2.648644e+00
  1.021215e+01    2.636154e+00
  1.022803e+01    2.666187e+00
  1.024390e+01    2.702871e+00
  1.025978e+01    2.655594e+00
  1.027565e+01    2.617724e+00
  1.029153e+01    2.569627e+00
  1.030740e+01    2.594126e+00
  1.032328e+01    2.652160e+00
  1.033915e+01    2.669003e+00
  1.035503e+01    2.652745e+00
  1.037091e+01    2.601047e+00
  1.038678e+01    2.628454e+00
  1.040266e+01    2.620790e+00
  1.041853e+01    2.660218e+00
  1.043441e+01    2.616740e+00
  1.045028e+01    2.616129e+00
  1.046616e+01    2.715013e+00
  1.048204e+01    2.650551e+00
  1.049791e+01    2.648393e+00
  1.051379e+01    2.610189e+00
  1.052966e+01    2.611005e+00
  1.054554e+01    2.654291e+00
  1.056141e+01    2.591436e+00
  1.057729e+01    2.609420e+00
  1.059316e+01    2.602172e+00
  1.060904e+01    2.548081e+00
  1.062492e+01    2.548160e+00
  1.064079e+01    2.512406e+00
  1.065667e+01    2.551247e+00
  1.067254e+01    2.597569e+00
  1.068842e+01    2.640319e+00
  1.070429e+01    2.587829e+00
  1.072017e+01    2.552864e+00
  1.073604e+01    2.581462e+00
  1.075192e+01    2.615437e+00
  1.076780e+01    2.556619e+00
  1.078367e+01    2.536829e+00
  1.079955e+01    2.526724e+00
  1.081542e+01    2.537520e+00
  1.083130e+01    2.554096e+00
  1.084717e+01    2.593518e+00
  1.086305e+01    2.517387e+00
  1.087892e+01    2.484438e+00
  1.089480e+01    2.520911e+00
  1.091068e+01    2.546330e+00
  1.092655e+01    2.531959e+00
  1.094243e+01    2.521115e+00
  1.095830e+01    2.479583e+00
  1.097418e+01    2.503592e+00
  1.099005e+01    2.517072e+00
  1.100593e+01    2.516398e+00
  1.102180e+01    2.485969e+00
  1.103768e+01    2.491400e+00
  1.105356e+01    2.487025e+00
  1.106943e+01    2.437271e+00
  1.108531e+01    2.416483e+00
  1.110118e+01    2.485551e+00
  1.111706e+01    2.504303e+00
  1.113293e+01    2.517465e+00
  1.114881e+01    2.497956e+00
  1.116468e+01    2.443492e+00
  1.118056e+01    2.470088e+00
  1.119644e+01    2.493125e+00
  1.121231e+01    2.469095e+00
  1.122819e+01    2.468839e+00
  1.124406e+01    2.394893e+00
  1.125994e+01    2.425020e+00
  1.127581e+01    2.474929e+00
  1.129169e+01    2.513216e+00
  1.130756e+01    2.497268e+00
  1.132344e+01    2.444448e+00
  1.133932e+01    2.459728e+00
  1.135519e+01    2.445670e+00
  1.137107e+01    2.431806e+00
  1.138694e+01    2.434688e+00
  1.140282e+01    2.423253e+00
  1.141869e+01    2.448735e+00
  1.143457e+01    2.398777e+00
  1.145045e+01    2.418002e+00
  1.146632e+01    2.406514e+00
  1.148220e+01    2.408992e+00
  1.149807e+01    2.397620e+00
  1.151395e+01    2.441278e+00
  1.152982e+01    2.406657e+00
  1.154570e+01    2.325076e+00
  1.156157e+01    2.348894e+00
  1.157745e+01    2.383815e+00
  1.159333e+01    2.398844e+00
  1.160920e+01    2.401620e+00
  1.162508e+01    2.410598e+00
  1.164095e+01    2.409110e+00
  1.165683e+01    2.410503e+00
  1.167270e+01    2.403441e+00
  1.168858e+01    2.444662e+00
  1.170445e+01    2.461575e+00
  1.172033e+01    2.308936e+00
  1.173621e+01    2.295387e+00
  1.175208e+01    2.373534e+00
  1.176796e+01    2.398269e+00
  1.178383e+01    2.429296e+00
  1.179971e+01    2.422391e+00
  1.181558e+01    2.371617e+00
  1.183146e+01    2.369636e+00
  1.184733e+01    2.361718e+00
  1.186321e+01    2.338928e+00
  1.187909e+01    2.325256e+00
  1.189496e+01    2.335932e+00
  1.191084e+01    2.340688e+00
  1.192671e+01    2.401059e+00
  1.194259e+01    2.378617e+00
  1.195846e+01    2.360989e+00
  1.197434e+01    2.306270e+00
  1.199021e+01    2.343757e+00
  1.200609e+01    2.394938e+00
  1.202197e+01    2.339793e+00
  1.203784e+01    2.349349e+00
  1.205372e+01    2.376552e+00
  1.206959e+01    2.345233e+00
  1.208547e+01    2.340489e+00
  1.210134e+01    2.283173e+00
  1.211722e+01    2.341578e+00
  1.213309e+01    2.376042e+00
  1.214897e+01    2.350003e+00
  1.216485e+01    2.328515e+00
  1.218072e+01    2.306765e+00
  1.219660e+01    2.286994e+00
  1.221247e+01    2.318576e+00
  1.222835e+01    2.330229e+00
  1.224422e+01    2.295266e+00
  1.226010e+01    2.333577e+00
  1.227597e+01    2.372344e+00
  1.229185e+01    2.361600e+00
  1.230773e+01    2.346862e+00
  1.232360e+01    2.303991e+00
  1.233948e+01    2.313948e+00
  1.235535e+01    2.368098e+00
  1.237123e+01    2.337387e+00
  1.238710e+01    2.333883e+00
  1.240298e+01    2.324922e+00
  1.241886e+01    2.313468e+00
  1.243473e+01    2.370496e+00
  1.245061e+01    2.358295e+00
  1.246648e+01    2.370919e+00
  1.248236e+01    2.353578e+00
  1.249823e+01    2.350818e+00
  1.251411e+01    2.364249e+00
  1.252998e+01    2.316375e+00
  1.254586e+01    2.338928e+00
  1.256174e+01    2.346598e+00
  1.257761e+01    2.336493e+00
  1.259349e+01    2.387108e+00
  1.260936e+01    2.405000e+00
  1.262524e+01    2.382797e+00
  1.264111e+01    2.390663e+00
  1.265699e+01    2.395159e+00
  1.267286e+01    2.426934e+00
  1.268874e+01    2.479182e+00
  1.270462e+01    2.493058e+00
  1.272049e+01    2.476013e+00
  1.273637e+01    2.509698e+00
  1.275224e+01    2.551464e+00
  1.276812e+01    2.558568e+00
  1.278399e+01    2.606770e+00
  1.279987e+01    2.621716e+00
  1.281574e+01    2.627223e+00
  1.283162e+01    2.714865e+00
  1.284750e+01    2.819636e+00
  1.286337e+01    2.925179e+00
  1.287925e+01    3.009992e+00
  1.289512e+01    3.171100e+00
  1.291100e+01    3.307551e+00
  1.292687e+01    3.511486e+00
  1.294275e+01    3.740262e+00
  1.295862e+01    4.005469e+00
  1.297450e+01    4.343153e+00
  1.299038e+01    4.804935e+00
  1.300625e+01    5.396576e+00
  1.302213e+01    6.161826e+00
  1.303800e+01    7.119820e+00
  1.305388e+01    8.278901e+00
  1.306975e+01    9.438173e+00
  1.308563e+01    1.070584e+01
  1.310150e+01    1.179959e+01
  1.311738e+01    1.297923e+01
  1.313326e+01    1.408145e+01
  1.314913e+01    1.496929e+01
  1.316501e+01    1.566960e+01
  1.318088e+01    1.588117e+01
  1.319676e+01    1.550122e+01
  1.321263e+01    1.413029e+01
  1.322851e+01    1.230030e+01
  1.324438e+01    1.041169e+01
  1.326026e+01    8.861701e+00
  1.327614e+01    7.488597e+00
  1.329201e+01    6.375055e+00
  1.330789e+01    5.604231e+00
  1.332376e+01    4.937378e+00
  1.333964e+01    4.460629e+00
  1.335551e+01    4.150506e+00
  1.337139e+01    3.817977e+00
  1.338727e+01    3.521343e+00
  1.340314e+01    3.326617e+00
  1.341902e+01    3.182184e+00
  1.343489e+01    3.055434e+00
  1.345077e+01    2.930745e+00
  1.346664e+01    2.776122e+00
  1.348252e+01    2.678375e+00
  1.349839e+01    2.624802e+00
  1.351427e+01    2.585979e+00
  1.353015e+01    2.546645e+00
  1.354602e+01    2.452258e+00
  1.356190e+01    2.414520e+00
  1.357777e+01    2.388647e+00
  1.359365e+01    2.395452e+00
  1.360952e+01    2.414169e+00
  1.362540e+01    2.350394e+00
  1.364127e+01    2.286506e+00
  1.365715e+01    2.248757e+00
  1.367303e+01    2.249584e+00
  1.368890e+01    2.272147e+00
  1.370478e+01    2.297088e+00
  1.372065e+01    2.275781e+00
  1.373653e+01    2.270721e+00
  1.375240e+01    2.201854e+00
  1.376828e+01    2.162607e+00
  1.378415e+01    2.153436e+00
  1.380003e+01    2.139850e+00
  1.381591e+01    2.129809e+00
  1.383178e+01    2.141592e+00
  1.384766e+01    2.163457e+00
  1.386353e+01    2.099798e+00
  1.387941e+01    2.087238e+00
  1.389528e+01    2.055843e+00
  1.391116e+01    2.100159e+00
  1.392703e+01    2.094351e+00
  1.394291e+01    2.064022e+00
  1.395879e+01    2.083498e+00
  1.397466e+01    2.055340e+00
  1.399054e+01    2.039044e+00
  1.400641e+01    2.029447e+00
  1.402229e+01    2.035890e+00
  1.403816e+01    2.041746e+00
  1.405404e+01    2.000847e+00
  1.406991e+01    1.985345e+00
  1.408579e+01    2.032819e+00
  1.410167e+01    1.999128e+00
  1.411754e+01    2.027794e+00
  1.413342e+01    2.024068e+00
  1.414929e+01    1.996063e+00
  1.416517e+01    2.030165e+00
  1.418104e+01    2.042002e+00
  1.419692e+01    2.003310e+00
  1.421279e+01    2.002330e+00
  1.422867e+01    2.041738e+00
  1.424455e+01    2.001531e+00
  1.426042e+01    2.009473e+00
  1.427630e+01    1.981698e+00
  1.429217e+01    1.977103e+00
  1.430805e+01    1.967957e+00
  1.432392e+01    1.977207e+00
  1.433980e+01    1.961706e+00
  1.435568e+01    1.958245e+00
  1.437155e+01    1.945424e+00
  1.438743e+01    1.929750e+00
  1.440330e+01    1.964717e+00
  1.441918e+01    1.959262e+00
  1.443505e+01    1.928656e+00
  1.445093e+01    1.939183e+00
  1.446680e+01    1.966125e+00
  1.448268e+01    1.948760e+00
  1.449856e+01    1.946379e+00
  1.451443e+01    1.944231e+00
  1.453031e+01    1.910700e+00
  1.454618e+01    1.905823e+00
  1.456206e+01    1.936866e+00
  1.457793e+01    1.882302e+00
  1.459381e+01    1.874030e+00
  1.460968e+01    1.911977e+00
  1.462556e+01    1.933926e+00
  1.464144e+01    1.944945e+00
  1.465731e+01    1.905395e+00
  1.467319e+01    1.909784e+00
  1.468906e+01    1.918216e+00
  1.470494e+01    1.907543e+00
  1.472081e+01    1.924813e+00
  1.473669e+01    1.947584e+00
  1.475256e+01    1.912220e+00
  1.476844e+01    1.938875e+00
  1.478432e+01    1.915387e+00
  1.480019e+01    1.894981e+00
  1.481607e+01    1.931606e+00
  1.483194e+01    1.940403e+00
  1.484782e+01    1.946800e+00
  1.486369e+01    1.960573e+00
  1.487957e+01    1.974093e+00
  1.489544e+01    1.964152e+00
  1.491132e+01    1.952860e+00
  1.492720e+01    1.987750e+00
  1.494307e+01    1.979693e+00
  1.495895e+01    2.012477e+00
  1.497482e+01    2.105598e+00
  1.499070e+01    2.174406e+00
  1.500657e+01    2.175939e+00
  1.502245e+01    2.174156e+00
  1.503832e+01    2.287591e+00
  1.505420e+01    2.431215e+00
  1.507008e+01    2.526702e+00
  1.508595e+01    2.684179e+00
  1.510183e+01    2.885278e+00
  1.511770e+01    3.122302e+00
  1.513358e+01    3.461685e+00
  1.514945e+01    3.794060e+00
  1.516533e+01    4.124204e+00
  1.518120e+01    4.476183e+00
  1.519708e+01    4.756249e+00
  1.521296e+01    5.040177e+00
  1.522883e+01    5.251967e+00
  1.524471e+01    5.428486e+00
  1.526058e+01    5.564865e+00
  1.527646e+01    5.497771e+00
  1.529233e+01    5.216387e+00
  1.530821e+01    4.901652e+00
  1.532409e+01    4.397278e+00
  1.533996e+01    3.927544e+00
  1.535584e+01    3.522680e+00
  1.537171e+01    3.195922e+00
  1.538759e+01    2.951310e+00
  1.540346e+01    2.665928e+00
  1.541934e+01    2.467265e+00
  1.543521e+01    2.325511e+00
  1.545109e+01    2.266322e+00
  1.546697e+01    2.178914e+00
  1.548284e+01    2.086096e+00
  1.549872e+01    2.011798e+00
  1.551459e+01    1.973906e+00
  1.553047e+01    1.915333e+00
  1.554634e+01    1.912483e+00
  1.556222e+01    1.905998e+00
  1.557809e+01    1.887138e+00
  1.559397e+01    1.838233e+00
  1.560985e+01    1.792469e+00
  1.562572e+01    1.771643e+00
  1.564160e+01    1.767322e+00
  1.565747e+01    1.774595e+00
  1.567335e+01    1.764533e+00
  1.568922e+01    1.741300e+00
  1.570510e+01    1.724258e+00
  1.572097e+01    1.728161e+00
  1.573685e+01    1.707644e+00
  1.575273e+01    1.673851e+00
  1.576860e+01    1.705803e+00
  1.578448e+01    1.714728e+00
  1.580035e+01    1.710825e+00
  1.581623e+01    1.668322e+00
  1.583210e+01    1.671313e+00
  1.584798e+01    1.655146e+00
  1.586385e+01    1.674428e+00
  1.587973e+01    1.671184e+00
  1.589561e+01    1.657291e+00
  1.591148e+01    1.655052e+00
  1.592736e+01    1.632362e+00
  1.594323e+01    1.664448e+00
  1.595911e+01    1.625782e+00
  1.597498e+01    1.640288e+00
  1.599086e+01    1.619968e+00
  1.600673e+01    1.588662e+00
  1.602261e+01    1.584636e+00
  1.603849e+01    1.575867e+00
  1.605436e+01    1.614875e+00
  1.607024e+01    1.630831e+00
  1.608611e+01    1.631467e+00
  1.610199e+01    1.609263e+00
  1.611786e+01    1.584533e+00
  1.613374e+01    1.631790e+00
  1.614961e+01    1.616906e+00
  1.616549e+01    1.597276e+00
  1.618137e+01    1.584828e+00
  1.619724e+01    1.577366e+00
  1.621312e+01    1.571968e+00
  1.622899e+01    1.574770e+00
  1.624487e+01    1.584344e+00
  1.626074e+01    1.588352e+00
  1.627662e+01    1.573708e+00
  1.629250e+01    1.550977e+00
  1.630837e+01    1.584422e+00
  1.632425e+01    1.558289e+00
  1.634012e+01    1.576714e+00
  1.635600e+01    1.564864e+00
  1.637187e+01    1.575011e+00
  1.638775e+01    1.546432e+00
  1.640362e+01    1.541292e+00
  1.641950e+01    1.529415e+00
  1.643538e+01    1.527851e+00
  1.645125e+01    1.560242e+00
  1.646713e+01    1.536767e+00
  1.648300e+01    1.514907e+00
  1.649888e+01    1.529226e+00
  1.651475e+01    1.557917e+00
  1.653063e+01    1.509504e+00
  1.654650e+01    1.510999e+00
  1.656238e+01    1.530945e+00
  1.657826e+01    1.522864e+00
  1.659413e+01    1.486583e+00
  1.661001e+01    1.489228e+00
  1.662588e+01    1.500489e+00
  1.664176e+01    1.496250e+00
  1.665763e+01    1.495806e+00
  1.667351e+01    1.465218e+00
  1.668938e+01    1.486953e+00
  1.670526e+01    1.493053e+00
  1.672114e+01    1.501033e+00
  1.673701e+01    1.489937e+00
  1.675289e+01    1.483147e+00
  1.676876e+01    1.479782e+00
  1.678464e+01    1.498327e+00
  1.680051e+01    1.507065e+00
  1.681639e+01    1.490701e+00
  1.683226e+01    1.472994e+00
  1.684814e+01    1.481177e+00
  1.686402e+01    1.473718e+00
  1.687989e+01    1.457652e+00
  1.689577e+01    1.462631e+00
  1.691164e+01    1.474347e+00
  1.692752e+01    1.457241e+00
  1.694339e+01    1.455635e+00
  1.695927e+01    1.469442e+00
  1.697514e+01    1.455162e+00
  1.699102e+01    1.463595e+00
  1.700690e+01    1.455065e+00
  1.702277e+01    1.433246e+00
  1.703865e+01    1.443315e+00
  1.705452e+01    1.445060e+00
  1.707040e+01    1.469622e+00
  1.708627e+01    1.465793e+00
  1.710215e+01    1.457309e+00
  1.711802e+01    1.446674e+00
  1.713390e+01    1.429975e+00
  1.714978e+01    1.424114e+00
  1.716565e+01    1.412671e+00
  1.718153e+01    1.415099e+00
  1.719740e+01    1.431547e+00
  1.721328e+01    1.422210e+00
  1.722915e+01    1.430283e+00
  1.724503e+01    1.397787e+00
  1.726091e+01    1.371599e+00
  1.727678e+01    1.399403e+00
  1.729266e+01    1.389330e+00
  1.730853e+01    1.406008e+00
  1.732441e+01    1.388768e+00
  1.734028e+01    1.409252e+00
  1.735616e+01    1.401851e+00
  1.737203e+01    1.401130e+00
  1.738791e+01    1.407471e+00
  1.740379e+01    1.407225e+00
  1.741966e+01    1.399775e+00
  1.743554e+01    1.382757e+00
  1.745141e+01    1.351964e+00
  1.746729e+01    1.347284e+00
  1.748316e+01    1.396543e+00
  1.749904e+01    1.383635e+00
  1.751491e+01    1.356674e+00
  1.753079e+01    1.345894e+00
  1.754667e+01    1.347757e+00
  1.756254e+01    1.360820e+00
  1.757842e+01    1.353527e+00
  1.759429e+01    1.348737e+00
  1.761017e+01    1.361152e+00
  1.762604e+01    1.361671e+00
  1.764192e+01    1.364446e+00
  1.765779e+01    1.343937e+00
  1.767367e+01    1.332474e+00
  1.768955e+01    1.363283e+00
  1.770542e+01    1.370489e+00
  1.772130e+01    1.370908e+00
  1.773717e+01    1.350087e+00
  1.775305e+01    1.336566e+00
  1.776892e+01    1.337796e+00
  1.778480e+01    1.334998e+00
  1.780067e+01    1.339229e+00
  1.781655e+01    1.361421e+00
  1.783243e+01    1.347204e+00
  1.784830e+01    1.328864e+00
  1.786418e+01    1.331116e+00
  1.788005e+01    1.326658e+00
  1.789593e+01    1.327754e+00
  1.791180e+01    1.301961e+00
  1.792768e+01    1.309823e+00
  1.794355e+01    1.317069e+00
  1.795943e+01    1.349483e+00
  1.797531e+01    1.338063e+00
  1.799118e+01    1.317735e+00
  1.800706e+01    1.331496e+00
  1.802293e+01    1.355807e+00
  1.803881e+01    1.335678e+00
  1.805468e+01    1.312010e+00
  1.807056e+01    1.258107e+00
  1.808643e+01    1.258395e+00
  1.810231e+01    1.302113e+00
  1.811819e+01    1.332310e+00
  1.813406e+01    1.324439e+00
  1.814994e+01    1.255180e+00
  1.816581e+01    1.278787e+00
  1.818169e+01    1.280727e+00
  1.819756e+01    1.311099e+00
  1.821344e+01    1.300860e+00
  1.822932e+01    1.278398e+00
  1.824519e+01    1.276106e+00
  1.826107e+01    1.308332e+00
  1.827694e+01    1.277828e+00
  1.829282e+01    1.293144e+00
  1.830869e+01    1.268084e+00
  1.832457e+01    1.263235e+00
  1.834044e+01    1.267261e+00
  1.835632e+01    1.278106e+00
  1.837220e+01    1.284946e+00
  1.838807e+01    1.256322e+00
  1.840395e+01    1.254696e+00
  1.841982e+01    1.261114e+00
  1.843570e+01    1.262371e+00
  1.845157e+01    1.265463e+00
  1.846745e+01    1.244101e+00
  1.848332e+01    1.258487e+00
  1.849920e+01    1.240506e+00
  1.851508e+01    1.246752e+00
  1.853095e+01    1.255881e+00
  1.854683e+01    1.244006e+00
  1.856270e+01    1.234742e+00
  1.857858e+01    1.253045e+00
  1.859445e+01    1.260808e+00
  1.861033e+01    1.222780e+00
  1.862620e+01    1.226760e+00
  1.864208e+01    1.218813e+00
  1.865796e+01    1.253475e+00
  1.867383e+01    1.239977e+00
  1.868971e+01    1.233671e+00
  1.870558e+01    1.217190e+00
  1.872146e+01    1.231448e+00
  1.873733e+01    1.221134e+00
  1.875321e+01    1.223739e+00
  1.876908e+01    1.244095e+00
  1.878496e+01    1.226601e+00
  1.880084e+01    1.212614e+00
  1.881671e+01    1.196428e+00
  1.883259e+01    1.217972e+00
  1.884846e+01    1.224552e+00
  1.886434e+01    1.225313e+00
  1.888021e+01    1.219333e+00
  1.889609e+01    1.221365e+00
  1.891196e+01    1.216845e+00
  1.892784e+01    1.204442e+00
  1.894372e+01    1.189148e+00
  1.895959e+01    1.202411e+00
  1.897547e+01    1.203548e+00
  1.899134e+01    1.197098e+00
  1.900722e+01    1.184996e+00
  1.902309e+01    1.201648e+00
  1.903897e+01    1.216857e+00
  1.905484e+01    1.219172e+00
  1.907072e+01    1.220117e+00
  1.908660e+01    1.228640e+00
  1.910247e+01    1.212910e+00
  1.911835e+01    1.171760e+00
  1.913422e+01    1.175341e+00
  1.915010e+01    1.168769e+00
  1.916597e+01    1.158697e+00
  1.918185e+01    1.177406e+00
  1.919773e+01    1.193566e+00
  1.921360e+01    1.196669e+00
  1.922948e+01    1.168306e+00
  1.924535e+01    1.167849e+00
  1.926123e+01    1.181864e+00
  1.927710e+01    1.193557e+00
  1.929298e+01    1.202765e+00
  1.930885e+01    1.179931e+00
  1.932473e+01    1.183907e+00
  1.934061e+01    1.175427e+00
  1.935648e+01    1.188782e+00
  1.937236e+01    1.180022e+00
  1.938823e+01    1.171799e+00
  1.940411e+01    1.155482e+00
  1.941998e+01    1.171571e+00
  1.943586e+01    1.167181e+00
  1.945173e+01    1.152595e+00
  1.946761e+01    1.186772e+00
  1.948349e+01    1.187235e+00
  1.949936e+01    1.183967e+00
  1.951524e+01    1.190167e+00
  1.953111e+01    1.155858e+00
  1.954699e+01    1.136056e+00
  1.956286e+01    1.152807e+00
  1.957874e+01    1.137680e+00
  1.959461e+01    1.153337e+00
  1.961049e+01    1.147970e+00
  1.962637e+01    1.175096e+00
  1.964224e+01    1.156342e+00
  1.965812e+01    1.129007e+00
  1.967399e+01    1.133513e+00
  1.968987e+01    1.143267e+00
  1.970574e+01    1.154500e+00
  1.972162e+01    1.158645e+00
  1.973749e+01    1.149414e+00
  1.975337e+01    1.134926e+00
  1.976925e+01    1.152655e+00
  1.978512e+01    1.158781e+00
  1.980100e+01    1.141734e+00
  1.981687e+01    1.137648e+00
  1.983275e+01    1.132300e+00
  1.984862e+01    1.130800e+00
  1.986450e+01    1.137631e+00
  1.988037e+01    1.132601e+00
  1.989625e+01    1.132711e+00
  1.991213e+01    1.136050e+00
  1.992800e+01    1.116146e+00
  1.994388e+01    1.140366e+00
  1.995975e+01    1.109494e+00
  1.997563e+01    1.111668e+00
  1.999150e+01    1.149515e+00
  2.000738e+01    1.124563e+00
  2.002325e+01    1.118040e+00
  2.003913e+01    1.120005e+00
  2.005501e+01    1.124665e+00
  2.007088e+01    1.102530e+00
  2.008676e+01    1.102157e+00
  2.010263e+01    1.078434e+00
  2.011851e+01    1.108480e+00
  2.013438e+01    1.131714e+00
  2.015026e+01    1.130416e+00
  2.016614e+01    1.090868e+00
  2.018201e+01    1.096789e+00
  2.019789e+01    1.113001e+00
  2.021376e+01    1.096766e+00
  2.022964e+01    1.108626e+00
  2.024551e+01    1.115538e+00
  2.026139e+01    1.093805e+00
  2.027726e+01    1.082872e+00
  2.029314e+01    1.100270e+00
  2.030902e+01    1.115588e+00
  2.032489e+01    1.077991e+00
  2.034077e+01    1.111433e+00
  2.035664e+01    1.111149e+00
  2.037252e+01    1.088306e+00
  2.038839e+01    1.089903e+00
  2.040427e+01    1.097873e+00
  2.042014e+01    1.099013e+00
  2.043602e+01    1.076825e+00
  2.045190e+01    1.093300e+00
  2.046777e+01    1.104573e+00
  2.048365e+01    1.083179e+00
  2.049952e+01    1.083667e+00
  2.051540e+01    1.072133e+00
  2.053127e+01    1.081731e+00
  2.054715e+01    1.114750e+00
  2.056302e+01    1.081795e+00
  2.057890e+01    1.087513e+00
  2.059478e+01    1.100127e+00
  2.061065e+01    1.111706e+00
  2.062653e+01    1.081458e+00
  2.064240e+01    1.088251e+00
  2.065828e+01    1.095221e+00
  2.067415e+01    1.081899e+00
  2.069003e+01    1.085419e+00
  2.070590e+01    1.080001e+00
  2.072178e+01    1.072556e+00
  2.073766e+01    1.045907e+00
  2.075353e+01    1.082770e+00
  2.076941e+01    1.065396e+00
  2.078528e+01    1.080868e+00
  2.080116e+01    1.079456e+00
  2.081703e+01    1.089048e+00
  2.083291e+01    1.084728e+00
  2.084878e+01    1.066092e+00
  2.086466e+01    1.078486e+00
  2.088054e+01    1.085461e+00
  2.089641e+01    1.093452e+00
  2.091229e+01    1.085760e+00
  2.092816e+01    1.078732e+00
  2.094404e+01    1.089820e+00
  2.095991e+01    1.091004e+00
  2.097579e+01    1.086035e+00
  2.099166e+01    1.085913e+00
  2.100754e+01    1.084841e+00
  2.102342e+01    1.077605e+00
  2.103929e+01    1.076593e+00
  2.105517e+01    1.092346e+00
  2.107104e+01    1.083834e+00
  2.108692e+01    1.097429e+00
  2.110279e+01    1.084986e+00
  2.111867e+01    1.091965e+00
  2.113455e+01    1.100327e+00
  2.115042e+01    1.078428e+00
  2.116630e+01    1.067397e+00
  2.118217e+01    1.065482e+00
  2.119805e+01    1.082287e+00
  2.121392e+01    1.110824e+00
  2.122980e+01    1.095976e+00
  2.124567e+01    1.091832e+00
  2.126155e+01    1.092331e+00
  2.127743e+01    1.120877e+00
  2.129330e+01    1.134708e+00
  2.130918e+01    1.123288e+00
  2.132505e+01    1.119079e+00
  2.134093e+01    1.112919e+00
  2.135680e+01    1.114842e+00
  2.137268e+01    1.146018e+00
  2.138855e+01    1.172662e+00
  2.140443e+01    1.180894e+00
  2.142031e+01    1.171954e+00
  2.143618e+01    1.188778e+00
  2.145206e+01    1.221567e+00
  2.146793e+01    1.244663e+00
  2.148381e+01    1.257994e+00
  2.149968e+01    1.273451e+00
  2.151556e+01    1.313313e+00
  2.153143e+01    1.330535e+00
  2.154731e+01    1.400507e+00
  2.156319e+01    1.434156e+00
  2.157906e+01    1.473611e+00
  2.159494e+01    1.554896e+00
  2.161081e+01    1.622390e+00
  2.162669e+01    1.705886e+00
  2.164256e+01    1.827106e+00
  2.165844e+01    1.947432e+00
  2.167431e+01    2.152294e+00
  2.169019e+01    2.357985e+00
  2.170607e+01    2.574130e+00
  2.172194e+01    2.913882e+00
  2.173782e+01    3.300038e+00
  2.175369e+01    3.748838e+00
  2.176957e+01    4.319257e+00
  2.178544e+01    4.929421e+00
  2.180132e+01    5.542377e+00
  2.181719e+01    6.273621e+00
  2.183307e+01    6.917505e+00
  2.184895e+01    7.531564e+00
  2.186482e+01    8.087949e+00
  2.188070e+01    8.657859e+00
  2.189657e+01    8.834647e+00
  2.191245e+01    8.671547e+00
  2.192832e+01    8.190515e+00
  2.194420e+01    7.405720e+00
  2.196007e+01    6.448782e+00
  2.197595e+01    5.537789e+00
  2.199183e+01    4.739011e+00
  2.200770e+01    4.011215e+00
  2.202358e+01    3.419539e+00
  2.203945e+01    2.981678e+00
  2.205533e+01    2.652245e+00
  2.207120e+01    2.372060e+00
  2.208708e+01    2.153229e+00
  2.210296e+01    1.976448e+00
  2.211883e+01    1.804688e+00
  2.213471e+01    1.680179e+00
  2.215058e+01    1.600766e+00
  2.216646e+01    1.548455e+00
  2.218233e+01    1.472327e+00
  2.219821e+01    1.408713e+00
  2.221408e+01    1.341389e+00
  2.222996e+01    1.301340e+00
  2.224584e+01    1.238818e+00
  2.226171e+01    1.247216e+00
  2.227759e+01    1.214004e+00
  2.229346e+01    1.195663e+00
  2.230934e+01    1.154860e+00
  2.232521e+01    1.131209e+00
  2.234109e+01    1.116006e+00
  2.235696e+01    1.100581e+00
  2.237284e+01    1.092173e+00
  2.238872e+01    1.073716e+00
  2.240459e+01    1.065773e+00
  2.242047e+01    1.052858e+00
  2.243634e+01    1.037164e+00
  2.245222e+01    1.052218e+00
  2.246809e+01    1.046118e+00
  2.248397e+01    1.029483e+00
  2.249984e+01    1.013734e+00
  2.251572e+01    1.007079e+00
  2.253160e+01    1.009610e+00
  2.254747e+01    1.010159e+00
  2.256335e+01    1.014263e+00
  2.257922e+01    9.867297e-01
  2.259510e+01    9.839316e-01
  2.261097e+01    9.825393e-01
  2.262685e+01    9.847285e-01
  2.264272e+01    9.773111e-01
  2.265860e+01    9.782897e-01
  2.267448e+01    9.475365e-01
  2.269035e+01    9.545127e-01
  2.270623e+01    9.419020e-01
  2.272210e+01    9.387396e-01
  2.273798e+01    9.394551e-01
  2.275385e+01    9.303589e-01
  2.276973e+01    9.533149e-01
  2.278560e+01    9.527702e-01
  2.280148e+01    9.213476e-01
  2.281736e+01    9.088769e-01
  2.283323e+01    9.067122e-01
  2.284911e+01    9.170464e-01
  2.286498e+01    9.087915e-01
  2.288086e+01    9.242684e-01
  2.289673e+01    9.074150e-01
  2.291261e+01    8.893079e-01
  2.292848e+01    8.978798e-01
  2.294436e+01    9.011356e-01
  2.296024e+01    8.909099e-01
  2.297611e+01    9.062971e-01
  2.299199e+01    8.999550e-01
  2.300786e+01    9.093600e-01
  2.302374e+01    9.157543e-01
  2.303961e+01    8.801271e-01
  2.305549e+01    8.858318e-01
  2.307137e+01    8.931024e-01
  2.308724e+01    8.813170e-01
  2.310312e+01    8.831753e-01
  2.311899e+01    8.848938e-01
  2.313487e+01    8.641934e-01
  2.315074e+01    8.693795e-01
  2.316662e+01    8.767771e-01
  2.318249e+01    8.828889e-01
  2.319837e+01    8.704495e-01
  2.321425e+01    8.652114e-01
  2.323012e+01    8.532038e-01
  2.324600e+01    8.681598e-01
  2.326187e+01    8.677480e-01
  2.327775e+01    8.706906e-01
  2.329362e+01    8.493382e-01
  2.330950e+01    8.571683e-01
  2.332537e+01    8.421709e-01
  2.334125e+01    8.588750e-01
  2.335713e+01    8.521709e-01
  2.337300e+01    8.362100e-01
  2.338888e+01    8.380892e-01
  2.340475e+01    8.510524e-01
  2.342063e+01    8.433886e-01
  2.343650e+01    8.510661e-01
  2.345238e+01    8.367925e-01
  2.346825e+01    8.510261e-01
  2.348413e+01    8.441318e-01
  2.350001e+01    8.531899e-01
  2.351588e+01    8.632567e-01
  2.353176e+01    8.591850e-01
  2.354763e+01    8.306571e-01
  2.356351e+01    8.301908e-01
  2.357938e+01    8.379163e-01
  2.359526e+01    8.370172e-01
  2.361113e+01    8.641110e-01
  2.362701e+01    8.578287e-01
  2.364289e+01    8.275510e-01
  2.365876e+01    8.324481e-01
  2.367464e+01    8.383652e-01
  2.369051e+01    8.246635e-01
  2.370639e+01    8.150788e-01
  2.372226e+01    8.320117e-01
  2.373814e+01    8.241189e-01
  2.375401e+01    8.261380e-01
  2.376989e+01    8.214985e-01
  2.378577e+01    8.285379e-01
  2.380164e+01    8.098219e-01
  2.381752e+01    8.164911e-01
  2.383339e+01    8.038313e-01
  2.384927e+01    8.011904e-01
  2.386514e+01    8.050512e-01
  2.388102e+01    8.139933e-01
  2.389689e+01    7.976434e-01
  2.391277e+01    7.894331e-01
  2.392865e+01    7.763711e-01
  2.394452e+01    8.011630e-01
  2.396040e+01    7.983020e-01
  2.397627e+01    7.921393e-01
  2.399215e+01    8.018622e-01
  2.400802e+01    8.147550e-01
  2.402390e+01    7.929937e-01
  2.403978e+01    7.945913e-01
  2.405565e+01    8.017030e-01
  2.407153e+01    7.968162e-01
  2.408740e+01    7.965369e-01
  2.410328e+01    7.878875e-01
  2.411915e+01    7.899156e-01
  2.413503e+01    7.820681e-01
  2.415090e+01    7.946854e-01
  2.416678e+01    8.019541e-01
  2.418266e+01    7.873644e-01
  2.419853e+01    7.659785e-01
  2.421441e+01    7.839789e-01
  2.423028e+01    7.820578e-01
  2.424616e+01    7.793105e-01
  2.426203e+01    7.908352e-01
  2.427791e+01    7.970325e-01
  2.429378e+01    8.001930e-01
  2.430966e+01    7.781732e-01
  2.432554e+01    7.759616e-01
  2.434141e+01    7.757120e-01
  2.435729e+01    7.751255e-01
  2.437316e+01    7.880310e-01
  2.438904e+01    7.874295e-01
  2.440491e+01    7.760454e-01
  2.442079e+01    7.778171e-01
  2.443666e+01    7.890008e-01
  2.445254e+01    7.918929e-01
  2.446842e+01    8.047463e-01
  2.448429e+01    8.058556e-01
  2.450017e+01    7.943021e-01
  2.451604e+01    8.045737e-01
  2.453192e+01    8.025630e-01
  2.454779e+01    8.002997e-01
  2.456367e+01    7.742870e-01
  2.457954e+01    7.713416e-01
  2.459542e+01    7.980927e-01
  2.461130e+01    7.924597e-01
  2.462717e+01    7.796780e-01
  2.464305e+01    7.741350e-01
  2.465892e+01    7.899389e-01
  2.467480e+01    7.914488e-01
  2.469067e+01    7.885835e-01
  2.470655e+01    7.979647e-01
  2.472242e+01    7.732734e-01
  2.473830e+01    7.808291e-01
  2.475418e+01    7.951347e-01
  2.477005e+01    7.951826e-01
  2.478593e+01    7.987252e-01
  2.480180e+01    7.910419e-01
  2.481768e+01    8.096165e-01
  2.483355e+01    8.039833e-01
  2.484943e+01    7.871112e-01
  2.486530e+01    7.842942e-01
  2.488118e+01    7.707185e-01
  2.489706e+01    7.684454e-01
  2.491293e+01    7.774203e-01
  2.492881e+01    7.954817e-01
  2.494468e+01    8.143561e-01
  2.496056e+01    7.906983e-01
  2.497643e+01    7.919574e-01
  2.499231e+01    7.954503e-01
  2.500819e+01    7.988594e-01
  2.502406e+01    8.012794e-01
  2.503994e+01    8.159336e-01
  2.505581e+01    7.942921e-01
  2.507169e+01    8.029936e-01
  2.508756e+01    8.135936e-01
  2.510344e+01    8.075032e-01
  2.511931e+01    7.951225e-01
  2.513519e+01    8.116655e-01
  2.515107e+01    8.153940e-01
  2.516694e+01    8.182412e-01
  2.518282e+01    8.377410e-01
  2.519869e+01    8.453357e-01
  2.521457e+01    8.503500e-01
  2.523044e+01    8.379353e-01
  2.524632e+01    8.373291e-01
  2.526219e+01    8.536954e-01
  2.527807e+01    8.575307e-01
  2.529395e+01    8.589521e-01
  2.530982e+01    8.659881e-01
  2.532570e+01    8.916811e-01
  2.534157e+01    8.843982e-01
  2.535745e+01    8.983909e-01
  2.537332e+01    8.896369e-01
  2.538920e+01    8.894590e-01
  2.540507e+01    9.090531e-01
  2.542095e+01    9.174682e-01
  2.543683e+01    9.386396e-01
  2.545270e+01    9.474990e-01
  2.546858e+01    9.484133e-01
  2.548445e+01    9.680637e-01
  2.550033e+01    9.685228e-01
  2.551620e+01    9.859963e-01
  2.553208e+01    9.914141e-01
  2.554795e+01    1.006793e+00
  2.556383e+01    1.036957e+00
  2.557971e+01    1.059845e+00
  2.559558e+01    1.076736e+00
  2.561146e+01    1.120724e+00
  2.562733e+01    1.162158e+00
  2.564321e+01    1.213766e+00
  2.565908e+01    1.282682e+00
  2.567496e+01    1.315132e+00
  2.569083e+01    1.385136e+00
  2.570671e+01    1.482952e+00
  2.572259e+01    1.615034e+00
  2.573846e+01    1.764136e+00
  2.575434e+01    1.884458e+00
  2.577021e+01    2.101658e+00
  2.578609e+01    2.391365e+00
  2.580196e+01    2.667854e+00
  2.581784e+01    3.034664e+00
  2.583371e+01    3.467622e+00
  2.584959e+01    3.953905e+00
  2.586547e+01    4.490566e+00
  2.588134e+01    5.073395e+00
  2.589722e+01    5.653011e+00
  2.591309e+01    6.163292e+00
  2.592897e+01    6.670234e+00
  2.594484e+01    6.996500e+00
  2.596072e+01    7.142198e+00
  2.597660e+01    7.038388e+00
  2.599247e+01    6.726767e+00
  2.600835e+01    6.061141e+00
  2.602422e+01    5.362125e+00
  2.604010e+01    4.636062e+00
  2.605597e+01    3.928147e+00
  2.607185e+01    3.418657e+00
  2.608772e+01    2.940138e+00
  2.610360e+01    2.555668e+00
  2.611948e+01    2.273233e+00
  2.613535e+01    2.024181e+00
  2.615123e+01    1.860071e+00
  2.616710e+01    1.707950e+00
  2.618298e+01    1.581418e+00
  2.619885e+01    1.460163e+00
  2.621473e+01    1.374200e+00
  2.623060e+01    1.321953e+00
  2.624648e+01    1.259209e+00
  2.626236e+01    1.175931e+00
  2.627823e+01    1.143602e+00
  2.629411e+01    1.137408e+00
  2.630998e+01    1.083536e+00
  2.632586e+01    1.060419e+00
  2.634173e+01    1.044700e+00
  2.635761e+01    1.026249e+00
  2.637348e+01    1.007963e+00
  2.638936e+01    9.705009e-01
  2.640524e+01    9.522987e-01
  2.642111e+01    9.529006e-01
  2.643699e+01    9.594837e-01
  2.645286e+01    9.243964e-01
  2.646874e+01    9.067187e-01
  2.648461e+01    9.143096e-01
  2.650049e+01    9.068738e-01
  2.651636e+01    9.066780e-01
  2.653224e+01    9.087548e-01
  2.654812e+01    8.821114e-01
  2.656399e+01    9.062164e-01
  2.657987e+01    9.131689e-01
  2.659574e+01    8.837028e-01
  2.661162e+01    8.760319e-01
  2.662749e+01    8.811662e-01
  2.664337e+01    8.767734e-01
  2.665924e+01    8.674023e-01
  2.667512e+01    8.584036e-01
  2.669100e+01    8.648568e-01
  2.670687e+01    8.733609e-01
  2.672275e+01    8.528263e-01
  2.673862e+01    8.647069e-01
  2.675450e+01    8.944767e-01
  2.677037e+01    8.860566e-01
  2.678625e+01    8.866043e-01
  2.680212e+01    8.928500e-01
  2.681800e+01    8.697238e-01
  2.683388e+01    8.817364e-01
  2.684975e+01    8.816159e-01
  2.686563e+01    8.829572e-01
  2.688150e+01    8.927543e-01
  2.689738e+01    9.014552e-01
  2.691325e+01    9.334028e-01
  2.692913e+01    9.242070e-01
  2.694501e+01    9.221092e-01
  2.696088e+01    9.455041e-01
  2.697676e+01    9.721389e-01
  2.699263e+01    9.908420e-01
  2.700851e+01    1.012045e+00
  2.702438e+01    1.057608e+00
  2.704026e+01    1.102250e+00
  2.705613e+01    1.155525e+00
  2.707201e+01    1.239413e+00
  2.708789e+01    1.305560e+00
  2.710376e+01    1.377642e+00
  2.711964e+01    1.485710e+00
  2.713551e+01    1.612484e+00
  2.715139e+01    1.761405e+00
  2.716726e+01    1.884350e+00
  2.718314e+01    1.988675e+00
  2.719901e+01    2.087954e+00
  2.721489e+01    2.154619e+00
  2.723077e+01    2.137594e+00
  2.724664e+01    2.068818e+00
  2.726252e+01    1.954886e+00
  2.727839e+01    1.832152e+00
  2.729427e+01    1.648696e+00
  2.731014e+01    1.499593e+00
  2.732602e+01    1.370311e+00
  2.734189e+01    1.292972e+00
  2.735777e+01    1.208291e+00
  2.737365e+01    1.141008e+00
  2.738952e+01    1.086287e+00
  2.740540e+01    1.032004e+00
  2.742127e+01    9.981271e-01
  2.743715e+01    9.662044e-01
  2.745302e+01    9.629925e-01
  2.746890e+01    9.471741e-01
  2.748477e+01    9.201734e-01
  2.750065e+01    9.468535e-01
  2.751653e+01    9.138175e-01
  2.753240e+01    8.549944e-01
  2.754828e+01    8.579459e-01
  2.756415e+01    8.623170e-01
  2.758003e+01    8.312894e-01
  2.759590e+01    8.321049e-01
  2.761178e+01    8.411351e-01
  2.762765e+01    8.267710e-01
  2.764353e+01    8.342754e-01
  2.765941e+01    8.212194e-01
  2.767528e+01    8.002629e-01
  2.769116e+01    8.078640e-01
  2.770703e+01    7.962213e-01
  2.772291e+01    7.908034e-01
  2.773878e+01    8.051189e-01
  2.775466e+01    8.012547e-01
  2.777054e+01    7.966979e-01
  2.778641e+01    8.030326e-01
  2.780229e+01    8.046908e-01
  2.781816e+01    8.142964e-01
  2.783404e+01    8.045120e-01
  2.784991e+01    7.995987e-01
  2.786579e+01    7.797922e-01
  2.788166e+01    7.870075e-01
  2.789754e+01    8.166491e-01
  2.791342e+01    8.013818e-01
  2.792929e+01    7.735044e-01
  2.794517e+01    7.666255e-01
  2.796104e+01    7.900447e-01
  2.797692e+01    7.873388e-01
  2.799279e+01    7.944610e-01
  2.800867e+01    7.965025e-01
  2.802454e+01    8.045123e-01
  2.804042e+01    7.980253e-01
  2.805630e+01    7.905033e-01
  2.807217e+01    7.662016e-01
  2.808805e+01    7.726569e-01
  2.810392e+01    7.801498e-01
  2.811980e+01    7.572435e-01
  2.813567e+01    7.614396e-01
  2.815155e+01    7.551177e-01
  2.816742e+01    7.653957e-01
  2.818330e+01    7.872808e-01
  2.819918e+01    7.752265e-01
  2.821505e+01    7.520280e-01
  2.823093e+01    7.675207e-01
  2.824680e+01    7.733614e-01
  2.826268e+01    7.773545e-01
  2.827855e+01    7.631040e-01
  2.829443e+01    7.603922e-01
  2.831030e+01    7.748563e-01
  2.832618e+01    7.799668e-01
  2.834206e+01    7.742439e-01
  2.835793e+01    7.550587e-01
  2.837381e+01    7.327744e-01
  2.838968e+01    7.381684e-01
  2.840556e+01    7.389131e-01
  2.842143e+01    7.329003e-01
  2.843731e+01    7.371740e-01
  2.845318e+01    7.527884e-01
  2.846906e+01    7.564114e-01
  2.848494e+01    7.487746e-01
  2.850081e+01    7.414867e-01
  2.851669e+01    7.586597e-01
  2.853256e+01    7.559331e-01
  2.854844e+01    7.245902e-01
  2.856431e+01    7.497648e-01
  2.858019e+01    7.488498e-01
  2.859606e+01    7.359403e-01
  2.861194e+01    7.255779e-01
  2.862782e+01    7.492616e-01
  2.864369e+01    7.572569e-01
  2.865957e+01    7.277748e-01
  2.867544e+01    7.456062e-01
  2.869132e+01    7.597466e-01
  2.870719e+01    7.435503e-01
  2.872307e+01    7.518651e-01
  2.873895e+01    7.528266e-01
  2.875482e+01    7.122765e-01
  2.877070e+01    7.320684e-01
  2.878657e+01    7.520929e-01
  2.880245e+01    7.565284e-01
  2.881832e+01    7.449163e-01
  2.883420e+01    7.457468e-01
  2.885007e+01    7.517594e-01
  2.886595e+01    7.363049e-01
  2.888183e+01    7.342976e-01
  2.889770e+01    7.175720e-01
  2.891358e+01    7.259926e-01
  2.892945e+01    7.245298e-01
  2.894533e+01    7.494084e-01
  2.896120e+01    7.453932e-01
  2.897708e+01    7.357735e-01
  2.899295e+01    7.277677e-01
  2.900883e+01    7.311271e-01
  2.902471e+01    7.090231e-01
  2.904058e+01    7.256650e-01
  2.905646e+01    7.326759e-01
  2.907233e+01    7.315049e-01
  2.908821e+01    7.426723e-01
  2.910408e+01    7.331992e-01
  2.911996e+01    7.280295e-01
  2.913583e+01    7.093018e-01
  2.915171e+01    7.364349e-01
  2.916759e+01    7.364676e-01
  2.918346e+01    7.423747e-01
  2.919934e+01    7.087237e-01
  2.921521e+01    7.213140e-01
  2.923109e+01    7.229891e-01
  2.924696e+01    7.211351e-01
  2.926284e+01    7.222340e-01
  2.927871e+01    7.225893e-01
  2.929459e+01    7.357036e-01
  2.931047e+01    7.484726e-01
  2.932634e+01    7.327257e-01
  2.934222e+01    7.020996e-01
  2.935809e+01    7.185166e-01
  2.937397e+01    7.041550e-01
  2.938984e+01    7.182251e-01
  2.940572e+01    7.452671e-01
  2.942159e+01    7.265176e-01
  2.943747e+01    7.117538e-01
  2.945335e+01    7.284207e-01
  2.946922e+01    7.158059e-01
  2.948510e+01    7.219619e-01
  2.950097e+01    7.139605e-01
  2.951685e+01    7.369501e-01
  2.953272e+01    7.212825e-01
  2.954860e+01    7.438381e-01
  2.956447e+01    7.359807e-01
  2.958035e+01    7.335603e-01
  2.959623e+01    7.315111e-01
  2.961210e+01    6.957113e-01
  2.962798e+01    6.980316e-01
  2.964385e+01    7.159039e-01
  2.965973e+01    7.177602e-01
  2.967560e+01    7.334121e-01
  2.969148e+01    7.197617e-01
  2.970736e+01    7.330859e-01
  2.972323e+01    7.183678e-01
  2.973911e+01    7.297302e-01
  2.975498e+01    7.137957e-01
  2.977086e+01    7.262462e-01
  2.978673e+01    7.109107e-01
  2.980261e+01    7.107042e-01
  2.981848e+01    7.310623e-01
  2.983436e+01    7.129515e-01
  2.985024e+01    7.257746e-01
  2.986611e+01    7.055435e-01
  2.988199e+01    7.185035e-01
  2.989786e+01    7.487704e-01
  2.991374e+01    7.235519e-01
  2.992961e+01    7.214105e-01
  2.994549e+01    7.273275e-01
  2.996136e+01    7.134528e-01
  2.997724e+01    7.240019e-01
  2.999312e+01    7.230464e-01
  3.000899e+01    7.184623e-01
  3.002487e+01    7.328746e-01
  3.004074e+01    7.258930e-01
  3.005662e+01    7.397620e-01
  3.007249e+01    7.401105e-01
  3.008837e+01    7.169214e-01
  3.010424e+01    7.166952e-01
  3.012012e+01    7.348822e-01
  3.013600e+01    7.591674e-01
  3.015187e+01    7.382244e-01
  3.016775e+01    7.101685e-01
  3.018362e+01    7.157475e-01
  3.019950e+01    7.111742e-01
  3.021537e+01    7.087291e-01
  3.023125e+01    7.183776e-01
  3.024712e+01    7.339690e-01
  3.026300e+01    7.274711e-01
  3.027888e+01    7.202128e-01
  3.029475e+01    7.155976e-01
  3.031063e+01    7.006565e-01
  3.032650e+01    6.997200e-01
  3.034238e+01    7.030112e-01
  3.035825e+01    7.034934e-01
  3.037413e+01    7.033748e-01
  3.039000e+01    7.067419e-01
  3.040588e+01    7.136596e-01
  3.042176e+01    7.276123e-01
  3.043763e+01    7.235168e-01
  3.045351e+01    7.203560e-01
  3.046938e+01    7.131650e-01
  3.048526e+01    7.151338e-01
  3.050113e+01    7.041804e-01
  3.051701e+01    7.054515e-01
  3.053288e+01    6.983008e-01
  3.054876e+01    7.009080e-01
  3.056464e+01    6.852409e-01
  3.058051e+01    6.895803e-01
  3.059639e+01    7.201992e-01
  3.061226e+01    7.256346e-01
  3.062814e+01    7.050447e-01
  3.064401e+01    7.086838e-01
  3.065989e+01    7.344543e-01
  3.067577e+01    7.143095e-01
  3.069164e+01    7.110518e-01
  3.070752e+01    7.088220e-01
  3.072339e+01    7.153648e-01
  3.073927e+01    7.261608e-01
  3.075514e+01    7.026565e-01
  3.077102e+01    6.986399e-01
  3.078689e+01    6.990624e-01
  3.080277e+01    7.090183e-01
  3.081865e+01    6.986901e-01
  3.083452e+01    7.039884e-01
  3.085040e+01    7.133943e-01
  3.086627e+01    7.171286e-01
  3.088215e+01    7.328490e-01
  3.089802e+01    7.103348e-01
  3.091390e+01    7.151212e-01
  3.092977e+01    7.117213e-01
  3.094565e+01    7.031440e-01
  3.096153e+01    7.012396e-01
  3.097740e+01    7.041202e-01
  3.099328e+01    7.225062e-01
  3.100915e+01    7.104278e-01
  3.102503e+01    7.161614e-01
  3.104090e+01    7.244408e-01
  3.105678e+01    7.074496e-01
  3.107265e+01    7.026432e-01
  3.108853e+01    7.277473e-01
  3.110441e+01    7.398481e-01
  3.112028e+01    7.226964e-01
  3.113616e+01    7.183644e-01
  3.115203e+01    7.099170e-01
  3.116791e+01    7.001489e-01
  3.118378e+01    7.264442e-01
  3.119966e+01    7.247274e-01
  3.121553e+01    7.279097e-01
  3.123141e+01    7.302780e-01
  3.124729e+01    7.264665e-01
  3.126316e+01    7.183582e-01
  3.127904e+01    7.185233e-01
  3.129491e+01    7.051458e-01
  3.131079e+01    7.058687e-01
  3.132666e+01    7.113199e-01
  3.134254e+01    7.385345e-01
  3.135841e+01    7.318554e-01
  3.137429e+01    7.449318e-01
  3.139017e+01    7.388455e-01
  3.140604e+01    7.500263e-01
  3.142192e+01    7.567177e-01
  3.143779e+01    7.408539e-01
  3.145367e+01    7.561730e-01
  3.146954e+01    7.449025e-01
  3.148542e+01    7.463457e-01
  3.150129e+01    7.695807e-01
  3.151717e+01    7.726499e-01
  3.153305e+01    7.576121e-01
  3.154892e+01    7.648310e-01
  3.156480e+01    7.941063e-01
  3.158067e+01    8.179509e-01
  3.159655e+01    8.323574e-01
  3.161242e+01    8.314068e-01
  3.162830e+01    8.439148e-01
  3.164418e+01    8.610761e-01
  3.166005e+01    8.682817e-01
  3.167593e+01    9.049128e-01
  3.169180e+01    9.287333e-01
  3.170768e+01    9.690583e-01
  3.172355e+01    9.952542e-01
  3.173943e+01    1.036454e+00
  3.175530e+01    1.147128e+00
  3.177118e+01    1.233745e+00
  3.178706e+01    1.278583e+00
  3.180293e+01    1.400028e+00
  3.181881e+01    1.530609e+00
  3.183468e+01    1.655517e+00
  3.185056e+01    1.816447e+00
  3.186643e+01    1.934354e+00
  3.188231e+01    2.024118e+00
  3.189818e+01    2.089462e+00
  3.191406e+01    2.131822e+00
  3.192994e+01    2.049794e+00
  3.194581e+01    1.978032e+00
  3.196169e+01    1.854298e+00
  3.197756e+01    1.695553e+00
  3.199344e+01    1.542083e+00
  3.200931e+01    1.372103e+00
  3.202519e+01    1.250415e+00
  3.204106e+01    1.187191e+00
  3.205694e+01    1.101697e+00
  3.207282e+01    1.045114e+00
  3.208869e+01    9.602609e-01
  3.210457e+01    9.116525e-01
  3.212044e+01    8.962771e-01
  3.213632e+01    8.738097e-01
  3.215219e+01    8.634340e-01
  3.216807e+01    8.481233e-01
  3.218394e+01    8.249927e-01
  3.219982e+01    7.911319e-01
  3.221570e+01    7.799152e-01
  3.223157e+01    7.922621e-01
  3.224745e+01    7.832132e-01
  3.226332e+01    7.721680e-01
  3.227920e+01    7.715221e-01
  3.229507e+01    7.460794e-01
  3.231095e+01    7.549950e-01
  3.232682e+01    7.241094e-01
  3.234270e+01    7.409447e-01
  3.235858e+01    7.535136e-01
  3.237445e+01    7.509286e-01
  3.239033e+01    7.246501e-01
  3.240620e+01    7.144075e-01
  3.242208e+01    7.341552e-01
  3.243795e+01    7.277061e-01
  3.245383e+01    7.208003e-01
  3.246970e+01    7.201813e-01
  3.248558e+01    7.274392e-01
  3.250146e+01    7.483763e-01
  3.251733e+01    7.335725e-01
  3.253321e+01    7.141946e-01
  3.254908e+01    7.140395e-01
