# == pyFAI calibration ==
# Distance Sample to Detector: 0.3999999939076516 m
# PONI: 9.750e-02, 1.135e-01 m
# Rotations: -0.000175 0.000000 -0.000000 rad
# 
# == Fit2d calibration ==
# Distance Sample-beamCenter: 400.000 mm
# Center: x=1514.000, y=1300.000 pix
# Tilt: 0.010 deg  TiltPlanRot: 0.010 deg
# 
# Detector Detector	 Spline= None	 PixelSize= 7.500e-05, 7.500e-05 m
#    Detector has a mask: False 
#    Detector has a dark current: False 
#    detector has a flat field: False 
# 
# Wavelength: 6.888e-11 m
# Mask applied: user provided
# Dark current applied: False
# Flat field applied: False
# Polarization factor: 0.99
# Normalization factor: 1.0
# --> /home/myspot/data/2024_07_Rosario/Ru-CGO-ex/2024-07-27_002_Ru-CGO-ex_Activtation_ramp_000002_data_000185.dat
#       q_nm^-1             I 
  2.003187e-02    0.000000e+00
  3.590745e-02    0.000000e+00
  5.178302e-02    2.672067e-02
  6.765859e-02    5.596358e-02
  8.353417e-02    2.592199e-03
  9.940974e-02    2.804633e-02
  1.152853e-01    6.977715e-02
  1.311609e-01    4.520151e-02
  1.470365e-01    6.831729e-02
  1.629120e-01    8.692529e-03
  1.787876e-01    2.792086e-02
  1.946632e-01    8.049411e-02
  2.105388e-01    2.784726e-02
  2.264143e-01    2.052703e-02
  2.422899e-01    2.514863e-02
  2.581655e-01    1.021952e-02
  2.740411e-01    1.300374e-02
  2.899166e-01    1.663556e-02
  3.057922e-01    2.968315e-02
  3.216678e-01    2.318648e-02
  3.375433e-01    4.256953e-02
  3.534189e-01    1.963219e-02
  3.692945e-01    3.633934e-02
  3.851701e-01    2.866619e-02
  4.010456e-01    2.547903e-02
  4.169212e-01    1.943883e-02
  4.327968e-01    7.067900e-02
  4.486724e-01    6.441432e-02
  4.645479e-01    7.012719e-02
  4.804235e-01    5.661893e-02
  4.962991e-01    2.656625e-02
  5.121747e-01    4.643400e-02
  5.280502e-01    2.366088e-02
  5.439258e-01    4.173976e-02
  5.598014e-01    4.505271e-02
  5.756770e-01    3.576832e-02
  5.915525e-01    3.838755e-02
  6.074281e-01    5.846749e-02
  6.233037e-01    3.479370e-02
  6.391793e-01    2.922642e-02
  6.550548e-01    1.921696e-02
  6.709304e-01    4.185656e-02
  6.868060e-01    4.378666e-02
  7.026815e-01    2.589642e-02
  7.185571e-01    3.237153e-02
  7.344327e-01    2.319129e-02
  7.503083e-01    4.639823e-02
  7.661838e-01    5.366539e-02
  7.820594e-01    1.045544e-01
  7.979350e-01    1.787496e-01
  8.138106e-01    1.799677e-01
  8.296861e-01    2.040836e-01
  8.455617e-01    2.647194e-01
  8.614373e-01    3.776529e-01
  8.773129e-01    3.946640e-01
  8.931884e-01    4.813320e-01
  9.090640e-01    5.572639e-01
  9.249396e-01    6.307303e-01
  9.408152e-01    7.347980e-01
  9.566907e-01    8.600895e-01
  9.725663e-01    9.901409e-01
  9.884419e-01    9.295645e-01
  1.004317e+00    1.067753e+00
  1.020193e+00    1.123762e+00
  1.036069e+00    1.132969e+00
  1.051944e+00    1.154879e+00
  1.067820e+00    1.182984e+00
  1.083695e+00    1.198204e+00
  1.099571e+00    1.255551e+00
  1.115446e+00    1.342734e+00
  1.131322e+00    1.430273e+00
  1.147198e+00    1.552022e+00
  1.163073e+00    1.524543e+00
  1.178949e+00    1.537262e+00
  1.194824e+00    1.632556e+00
  1.210700e+00    1.822945e+00
  1.226575e+00    2.029586e+00
  1.242451e+00    2.094900e+00
  1.258327e+00    2.253903e+00
  1.274202e+00    2.291637e+00
  1.290078e+00    2.482141e+00
  1.305953e+00    2.455360e+00
  1.321829e+00    2.538095e+00
  1.337705e+00    2.551120e+00
  1.353580e+00    2.379317e+00
  1.369456e+00    2.431089e+00
  1.385331e+00    2.368958e+00
  1.401207e+00    2.528076e+00
  1.417082e+00    2.565006e+00
  1.432958e+00    2.613132e+00
  1.448834e+00    2.614603e+00
  1.464709e+00    2.739300e+00
  1.480585e+00    2.817498e+00
  1.496460e+00    2.791347e+00
  1.512336e+00    2.792632e+00
  1.528211e+00    2.733314e+00
  1.544087e+00    2.795740e+00
  1.559963e+00    2.763400e+00
  1.575838e+00    2.918667e+00
  1.591714e+00    2.872122e+00
  1.607589e+00    2.815522e+00
  1.623465e+00    2.653224e+00
  1.639340e+00    2.788564e+00
  1.655216e+00    2.887653e+00
  1.671092e+00    2.827201e+00
  1.686967e+00    2.713510e+00
  1.702843e+00    2.715498e+00
  1.718718e+00    2.779660e+00
  1.734594e+00    2.782800e+00
  1.750469e+00    2.759864e+00
  1.766345e+00    2.693644e+00
  1.782221e+00    2.665239e+00
  1.798096e+00    2.697829e+00
  1.813972e+00    2.677860e+00
  1.829847e+00    2.735134e+00
  1.845723e+00    2.705237e+00
  1.861598e+00    2.676555e+00
  1.877474e+00    2.699080e+00
  1.893350e+00    2.774338e+00
  1.909225e+00    2.813737e+00
  1.925101e+00    2.787538e+00
  1.940976e+00    2.783799e+00
  1.956852e+00    2.757704e+00
  1.972727e+00    2.704059e+00
  1.988603e+00    2.728056e+00
  2.004479e+00    2.761156e+00
  2.020354e+00    2.635653e+00
  2.036230e+00    2.655981e+00
  2.052105e+00    2.748367e+00
  2.067981e+00    2.649682e+00
  2.083856e+00    2.712671e+00
  2.099732e+00    2.739604e+00
  2.115608e+00    2.715229e+00
  2.131483e+00    2.840908e+00
  2.147359e+00    2.754753e+00
  2.163234e+00    2.581923e+00
  2.179110e+00    2.651011e+00
  2.194985e+00    2.740560e+00
  2.210861e+00    2.664416e+00
  2.226737e+00    2.757062e+00
  2.242612e+00    2.779146e+00
  2.258488e+00    2.669002e+00
  2.274363e+00    2.658108e+00
  2.290239e+00    2.728735e+00
  2.306115e+00    2.717958e+00
  2.321990e+00    2.702587e+00
  2.337866e+00    2.704963e+00
  2.353741e+00    2.758754e+00
  2.369617e+00    2.760377e+00
  2.385492e+00    2.797215e+00
  2.401368e+00    2.772637e+00
  2.417244e+00    2.760098e+00
  2.433119e+00    2.755254e+00
  2.448995e+00    2.690703e+00
  2.464870e+00    2.735183e+00
  2.480746e+00    2.819292e+00
  2.496621e+00    2.722432e+00
  2.512497e+00    2.718178e+00
  2.528373e+00    2.704758e+00
  2.544248e+00    2.722628e+00
  2.560124e+00    2.777585e+00
  2.575999e+00    2.756921e+00
  2.591875e+00    2.859535e+00
  2.607750e+00    2.823645e+00
  2.623626e+00    2.686954e+00
  2.639502e+00    2.750596e+00
  2.655377e+00    2.817468e+00
  2.671253e+00    2.841543e+00
  2.687128e+00    2.873099e+00
  2.703004e+00    2.749523e+00
  2.718879e+00    2.712692e+00
  2.734755e+00    2.749165e+00
  2.750631e+00    2.805668e+00
  2.766506e+00    2.821738e+00
  2.782382e+00    2.773378e+00
  2.798257e+00    2.835625e+00
  2.814133e+00    2.868554e+00
  2.830008e+00    2.845325e+00
  2.845884e+00    2.851382e+00
  2.861760e+00    2.815800e+00
  2.877635e+00    2.797519e+00
  2.893511e+00    2.844744e+00
  2.909386e+00    2.742272e+00
  2.925262e+00    2.852627e+00
  2.941137e+00    2.971182e+00
  2.957013e+00    2.939216e+00
  2.972889e+00    2.866168e+00
  2.988764e+00    2.842635e+00
  3.004640e+00    2.829559e+00
  3.020515e+00    2.825607e+00
  3.036391e+00    2.854304e+00
  3.052266e+00    2.830580e+00
  3.068142e+00    2.844908e+00
  3.084018e+00    2.845234e+00
  3.099893e+00    2.823603e+00
  3.115769e+00    2.852730e+00
  3.131644e+00    2.918492e+00
  3.147520e+00    3.022386e+00
  3.163395e+00    2.896458e+00
  3.179271e+00    2.925242e+00
  3.195147e+00    2.970109e+00
  3.211022e+00    2.915255e+00
  3.226898e+00    2.880539e+00
  3.242773e+00    2.864041e+00
  3.258649e+00    2.910694e+00
  3.274525e+00    2.940993e+00
  3.290400e+00    2.892277e+00
  3.306276e+00    2.927256e+00
  3.322151e+00    3.010384e+00
  3.338027e+00    2.973477e+00
  3.353902e+00    2.947864e+00
  3.369778e+00    2.900591e+00
  3.385654e+00    2.927121e+00
  3.401529e+00    2.927232e+00
  3.417405e+00    2.900691e+00
  3.433280e+00    2.851161e+00
  3.449156e+00    2.941280e+00
  3.465031e+00    2.896375e+00
  3.480907e+00    2.899725e+00
  3.496783e+00    2.970149e+00
  3.512658e+00    3.021912e+00
  3.528534e+00    3.026508e+00
  3.544409e+00    2.916077e+00
  3.560285e+00    2.910655e+00
  3.576160e+00    2.989776e+00
  3.592036e+00    3.031216e+00
  3.607912e+00    3.018756e+00
  3.623787e+00    2.901689e+00
  3.639663e+00    2.943837e+00
  3.655538e+00    3.020955e+00
  3.671414e+00    2.995379e+00
  3.687289e+00    3.026685e+00
  3.703165e+00    3.013292e+00
  3.719041e+00    2.999679e+00
  3.734916e+00    2.990998e+00
  3.750792e+00    3.017750e+00
  3.766667e+00    2.990816e+00
  3.782543e+00    2.986179e+00
  3.798418e+00    3.004908e+00
  3.814294e+00    3.053295e+00
  3.830170e+00    3.018255e+00
  3.846045e+00    3.013190e+00
  3.861921e+00    2.970963e+00
  3.877796e+00    2.964035e+00
  3.893672e+00    3.038616e+00
  3.909547e+00    2.983125e+00
  3.925423e+00    3.129074e+00
  3.941299e+00    3.093531e+00
  3.957174e+00    3.043106e+00
  3.973050e+00    2.928557e+00
  3.988925e+00    2.934761e+00
  4.004801e+00    2.992692e+00
  4.020676e+00    2.977142e+00
  4.036552e+00    3.019870e+00
  4.052428e+00    3.073743e+00
  4.068303e+00    3.022115e+00
  4.084179e+00    3.049453e+00
  4.100054e+00    3.041636e+00
  4.115930e+00    3.112157e+00
  4.131806e+00    2.989681e+00
  4.147681e+00    2.902378e+00
  4.163557e+00    2.974044e+00
  4.179432e+00    3.048344e+00
  4.195308e+00    3.102200e+00
  4.211183e+00    3.021818e+00
  4.227059e+00    3.019355e+00
  4.242935e+00    3.080548e+00
  4.258810e+00    3.079468e+00
  4.274686e+00    3.075843e+00
  4.290561e+00    3.050613e+00
  4.306437e+00    3.069055e+00
  4.322312e+00    3.104537e+00
  4.338188e+00    3.106879e+00
  4.354064e+00    3.051849e+00
  4.369939e+00    3.006272e+00
  4.385815e+00    3.069414e+00
  4.401690e+00    3.170405e+00
  4.417566e+00    3.136752e+00
  4.433441e+00    3.070046e+00
  4.449317e+00    3.068348e+00
  4.465193e+00    3.066588e+00
  4.481068e+00    3.017281e+00
  4.496944e+00    3.064520e+00
  4.512819e+00    3.108111e+00
  4.528695e+00    3.087193e+00
  4.544570e+00    3.091047e+00
  4.560446e+00    3.089140e+00
  4.576322e+00    3.085539e+00
  4.592197e+00    3.074730e+00
  4.608073e+00    3.082889e+00
  4.623948e+00    3.086127e+00
  4.639824e+00    3.041269e+00
  4.655699e+00    3.142858e+00
  4.671575e+00    3.228036e+00
  4.687451e+00    3.127138e+00
  4.703326e+00    3.049880e+00
  4.719202e+00    3.061876e+00
  4.735077e+00    3.043473e+00
  4.750953e+00    3.171842e+00
  4.766828e+00    3.145727e+00
  4.782704e+00    3.041256e+00
  4.798580e+00    3.101408e+00
  4.814455e+00    3.135791e+00
  4.830331e+00    3.149256e+00
  4.846206e+00    3.125682e+00
  4.862082e+00    3.162269e+00
  4.877957e+00    3.113809e+00
  4.893833e+00    3.131933e+00
  4.909709e+00    3.140113e+00
  4.925584e+00    3.138781e+00
  4.941460e+00    3.142536e+00
  4.957335e+00    3.188902e+00
  4.973211e+00    3.140791e+00
  4.989086e+00    3.129851e+00
  5.004962e+00    3.189519e+00
  5.020838e+00    3.138273e+00
  5.036713e+00    3.060908e+00
  5.052589e+00    3.166161e+00
  5.068464e+00    3.125875e+00
  5.084340e+00    3.124921e+00
  5.100216e+00    3.123120e+00
  5.116091e+00    3.161257e+00
  5.131967e+00    3.117385e+00
  5.147842e+00    3.154990e+00
  5.163718e+00    3.141102e+00
  5.179593e+00    3.042967e+00
  5.195469e+00    3.056014e+00
  5.211345e+00    3.127077e+00
  5.227220e+00    3.141647e+00
  5.243096e+00    3.140539e+00
  5.258971e+00    3.139663e+00
  5.274847e+00    3.100013e+00
  5.290722e+00    3.078832e+00
  5.306598e+00    3.129127e+00
  5.322474e+00    3.125991e+00
  5.338349e+00    3.139839e+00
  5.354225e+00    3.150374e+00
  5.370100e+00    3.083893e+00
  5.385976e+00    3.103357e+00
  5.401851e+00    3.134008e+00
  5.417727e+00    3.049943e+00
  5.433603e+00    3.021462e+00
  5.449478e+00    2.996660e+00
  5.465354e+00    3.080951e+00
  5.481229e+00    3.113837e+00
  5.497105e+00    3.090080e+00
  5.512980e+00    3.099360e+00
  5.528856e+00    3.081263e+00
  5.544732e+00    3.094186e+00
  5.560607e+00    3.068900e+00
  5.576483e+00    3.105694e+00
  5.592358e+00    3.078098e+00
  5.608234e+00    3.052982e+00
  5.624109e+00    3.062170e+00
  5.639985e+00    3.114169e+00
  5.655861e+00    3.038293e+00
  5.671736e+00    3.070482e+00
  5.687612e+00    3.128045e+00
  5.703487e+00    3.063615e+00
  5.719363e+00    3.087652e+00
  5.735238e+00    3.063545e+00
  5.751114e+00    3.046232e+00
  5.766990e+00    3.053513e+00
  5.782865e+00    3.036463e+00
  5.798741e+00    3.071587e+00
  5.814616e+00    3.091060e+00
  5.830492e+00    3.082733e+00
  5.846367e+00    3.038233e+00
  5.862243e+00    2.982742e+00
  5.878119e+00    3.046104e+00
  5.893994e+00    3.068029e+00
  5.909870e+00    3.026122e+00
  5.925745e+00    3.031252e+00
  5.941621e+00    3.034883e+00
  5.957497e+00    2.991125e+00
  5.973372e+00    3.025035e+00
  5.989248e+00    3.016294e+00
  6.005123e+00    3.047383e+00
  6.020999e+00    3.015118e+00
  6.036874e+00    3.019569e+00
  6.052750e+00    3.074246e+00
  6.068626e+00    3.092772e+00
  6.084501e+00    3.112492e+00
  6.100377e+00    3.163072e+00
  6.116252e+00    3.109840e+00
  6.132128e+00    3.103718e+00
  6.148003e+00    3.090115e+00
  6.163879e+00    3.068643e+00
  6.179755e+00    3.065888e+00
  6.195630e+00    3.089310e+00
  6.211506e+00    3.076414e+00
  6.227381e+00    3.050030e+00
  6.243257e+00    3.055068e+00
  6.259132e+00    3.094616e+00
  6.275008e+00    3.053041e+00
  6.290884e+00    3.081889e+00
  6.306759e+00    3.044504e+00
  6.322635e+00    3.007078e+00
  6.338510e+00    3.033911e+00
  6.354386e+00    3.051887e+00
  6.370261e+00    3.003809e+00
  6.386137e+00    3.079682e+00
  6.402013e+00    3.094063e+00
  6.417888e+00    3.059084e+00
  6.433764e+00    3.072842e+00
  6.449639e+00    3.050331e+00
  6.465515e+00    3.088577e+00
  6.481390e+00    3.009362e+00
  6.497266e+00    3.074440e+00
  6.513142e+00    3.122571e+00
  6.529017e+00    3.118663e+00
  6.544893e+00    3.046198e+00
  6.560768e+00    3.035105e+00
  6.576644e+00    3.059236e+00
  6.592519e+00    3.100452e+00
  6.608395e+00    3.106901e+00
  6.624271e+00    3.035561e+00
  6.640146e+00    2.981573e+00
  6.656022e+00    2.996116e+00
  6.671897e+00    3.018620e+00
  6.687773e+00    3.014054e+00
  6.703648e+00    3.050878e+00
  6.719524e+00    3.015631e+00
  6.735400e+00    3.060995e+00
  6.751275e+00    2.997973e+00
  6.767151e+00    3.009525e+00
  6.783026e+00    3.033764e+00
  6.798902e+00    3.148190e+00
  6.814777e+00    3.042970e+00
  6.830653e+00    3.010352e+00
  6.846529e+00    3.047237e+00
  6.862404e+00    3.038923e+00
  6.878280e+00    3.061599e+00
  6.894155e+00    3.040362e+00
  6.910031e+00    3.011865e+00
  6.925907e+00    3.025761e+00
  6.941782e+00    2.966914e+00
  6.957658e+00    3.000095e+00
  6.973533e+00    3.061614e+00
  6.989409e+00    3.070323e+00
  7.005284e+00    2.998855e+00
  7.021160e+00    3.033915e+00
  7.037036e+00    3.058940e+00
  7.052911e+00    3.055497e+00
  7.068787e+00    3.065461e+00
  7.084662e+00    3.043487e+00
  7.100538e+00    3.045614e+00
  7.116413e+00    3.073630e+00
  7.132289e+00    3.059339e+00
  7.148165e+00    3.072147e+00
  7.164040e+00    3.066637e+00
  7.179916e+00    2.993616e+00
  7.195791e+00    3.052624e+00
  7.211667e+00    2.982485e+00
  7.227542e+00    2.978084e+00
  7.243418e+00    3.035244e+00
  7.259294e+00    3.051838e+00
  7.275169e+00    2.965216e+00
  7.291045e+00    2.943605e+00
  7.306920e+00    2.994798e+00
  7.322796e+00    3.033243e+00
  7.338671e+00    3.049077e+00
  7.354547e+00    3.072021e+00
  7.370423e+00    3.062087e+00
  7.386298e+00    3.023029e+00
  7.402174e+00    2.939086e+00
  7.418049e+00    2.908851e+00
  7.433925e+00    2.991434e+00
  7.449800e+00    3.041014e+00
  7.465676e+00    2.939168e+00
  7.481552e+00    2.914510e+00
  7.497427e+00    2.966908e+00
  7.513303e+00    3.020143e+00
  7.529178e+00    3.024487e+00
  7.545054e+00    2.992633e+00
  7.560929e+00    2.956801e+00
  7.576805e+00    2.984363e+00
  7.592681e+00    2.997858e+00
  7.608556e+00    2.990675e+00
  7.624432e+00    3.003386e+00
  7.640307e+00    2.955807e+00
  7.656183e+00    2.972265e+00
  7.672058e+00    2.958622e+00
  7.687934e+00    2.978867e+00
  7.703810e+00    2.948734e+00
  7.719685e+00    2.935100e+00
  7.735561e+00    3.019545e+00
  7.751436e+00    2.990360e+00
  7.767312e+00    2.957945e+00
  7.783187e+00    2.998595e+00
  7.799063e+00    3.033459e+00
  7.814939e+00    2.970741e+00
  7.830814e+00    2.967433e+00
  7.846690e+00    2.979812e+00
  7.862565e+00    2.948316e+00
  7.878441e+00    2.878806e+00
  7.894317e+00    2.985931e+00
  7.910192e+00    3.058745e+00
  7.926068e+00    2.889272e+00
  7.941943e+00    2.930839e+00
  7.957819e+00    2.984353e+00
  7.973694e+00    2.956159e+00
  7.989570e+00    2.933420e+00
  8.005446e+00    2.965484e+00
  8.021321e+00    2.934075e+00
  8.037197e+00    2.915449e+00
  8.053072e+00    2.886744e+00
  8.068948e+00    2.948410e+00
  8.084823e+00    2.916808e+00
  8.100699e+00    2.907966e+00
  8.116575e+00    2.914351e+00
  8.132450e+00    2.974363e+00
  8.148326e+00    2.910349e+00
  8.164201e+00    2.929247e+00
  8.180077e+00    2.955934e+00
  8.195952e+00    2.946134e+00
  8.211828e+00    2.949198e+00
  8.227704e+00    2.958757e+00
  8.243579e+00    2.994146e+00
  8.259455e+00    2.972127e+00
  8.275330e+00    3.000163e+00
  8.291206e+00    3.020536e+00
  8.307081e+00    2.970917e+00
  8.322957e+00    2.893492e+00
  8.338833e+00    2.865635e+00
  8.354708e+00    2.921907e+00
  8.370584e+00    2.963403e+00
  8.386459e+00    2.944089e+00
  8.402335e+00    2.877794e+00
  8.418210e+00    2.847701e+00
  8.434086e+00    2.880351e+00
  8.449962e+00    2.867935e+00
  8.465837e+00    2.902044e+00
  8.481713e+00    2.928237e+00
  8.497588e+00    2.875216e+00
  8.513464e+00    2.928682e+00
  8.529339e+00    2.907660e+00
  8.545215e+00    2.890757e+00
  8.561091e+00    2.888707e+00
  8.576966e+00    2.871333e+00
  8.592842e+00    2.869862e+00
  8.608717e+00    2.885769e+00
  8.624593e+00    2.883844e+00
  8.640468e+00    2.897671e+00
  8.656344e+00    2.851050e+00
  8.672220e+00    2.896977e+00
  8.688095e+00    2.969067e+00
  8.703971e+00    2.911866e+00
  8.719846e+00    2.886793e+00
  8.735722e+00    2.897391e+00
  8.751598e+00    2.790070e+00
  8.767473e+00    2.825617e+00
  8.783349e+00    2.811719e+00
  8.799224e+00    2.846437e+00
  8.815100e+00    2.849844e+00
  8.830975e+00    2.820431e+00
  8.846851e+00    2.807685e+00
  8.862727e+00    2.880984e+00
  8.878602e+00    2.929058e+00
  8.894478e+00    2.845368e+00
  8.910353e+00    2.829527e+00
  8.926229e+00    2.828546e+00
  8.942104e+00    2.858348e+00
  8.957980e+00    2.840201e+00
  8.973856e+00    2.868831e+00
  8.989731e+00    2.827295e+00
  9.005607e+00    2.804530e+00
  9.021482e+00    2.809979e+00
  9.037358e+00    2.800871e+00
  9.053233e+00    2.846002e+00
  9.069109e+00    2.806716e+00
  9.084985e+00    2.805990e+00
  9.100860e+00    2.813269e+00
  9.116736e+00    2.855841e+00
  9.132611e+00    2.835164e+00
  9.148487e+00    2.778817e+00
  9.164362e+00    2.797211e+00
  9.180238e+00    2.807742e+00
  9.196114e+00    2.760819e+00
  9.211989e+00    2.768826e+00
  9.227865e+00    2.808044e+00
  9.243740e+00    2.867554e+00
  9.259616e+00    2.811026e+00
  9.275491e+00    2.784202e+00
  9.291367e+00    2.810928e+00
  9.307243e+00    2.805792e+00
  9.323118e+00    2.731297e+00
  9.338994e+00    2.736036e+00
  9.354869e+00    2.730840e+00
  9.370745e+00    2.828095e+00
  9.386620e+00    2.842453e+00
  9.402496e+00    2.751041e+00
  9.418372e+00    2.742818e+00
  9.434247e+00    2.817688e+00
  9.450123e+00    2.755183e+00
  9.465998e+00    2.799583e+00
  9.481874e+00    2.793528e+00
  9.497749e+00    2.796249e+00
  9.513625e+00    2.779290e+00
  9.529501e+00    2.822001e+00
  9.545376e+00    2.764064e+00
  9.561252e+00    2.735696e+00
  9.577127e+00    2.776508e+00
  9.593003e+00    2.806582e+00
  9.608878e+00    2.799982e+00
  9.624754e+00    2.729514e+00
  9.640630e+00    2.689277e+00
  9.656505e+00    2.731539e+00
  9.672381e+00    2.744577e+00
  9.688256e+00    2.785908e+00
  9.704132e+00    2.812588e+00
  9.720008e+00    2.766894e+00
  9.735883e+00    2.692483e+00
  9.751759e+00    2.688073e+00
  9.767634e+00    2.708342e+00
  9.783510e+00    2.711482e+00
  9.799385e+00    2.720100e+00
  9.815261e+00    2.705975e+00
  9.831137e+00    2.693351e+00
  9.847012e+00    2.643350e+00
  9.862888e+00    2.680188e+00
  9.878763e+00    2.693448e+00
  9.894639e+00    2.700878e+00
  9.910514e+00    2.712025e+00
  9.926390e+00    2.706977e+00
  9.942266e+00    2.700161e+00
  9.958141e+00    2.688735e+00
  9.974017e+00    2.655897e+00
  9.989892e+00    2.655992e+00
  1.000577e+01    2.665677e+00
  1.002164e+01    2.735021e+00
  1.003752e+01    2.702991e+00
  1.005339e+01    2.665516e+00
  1.006927e+01    2.701007e+00
  1.008515e+01    2.699147e+00
  1.010102e+01    2.679334e+00
  1.011690e+01    2.664962e+00
  1.013277e+01    2.657651e+00
  1.014865e+01    2.659168e+00
  1.016452e+01    2.673856e+00
  1.018040e+01    2.707457e+00
  1.019627e+01    2.712512e+00
  1.021215e+01    2.675912e+00
  1.022803e+01    2.663657e+00
  1.024390e+01    2.626280e+00
  1.025978e+01    2.611691e+00
  1.027565e+01    2.581616e+00
  1.029153e+01    2.603638e+00
  1.030740e+01    2.626526e+00
  1.032328e+01    2.654164e+00
  1.033915e+01    2.654640e+00
  1.035503e+01    2.616119e+00
  1.037091e+01    2.585314e+00
  1.038678e+01    2.583828e+00
  1.040266e+01    2.607245e+00
  1.041853e+01    2.636118e+00
  1.043441e+01    2.560603e+00
  1.045028e+01    2.571864e+00
  1.046616e+01    2.628832e+00
  1.048204e+01    2.640849e+00
  1.049791e+01    2.614657e+00
  1.051379e+01    2.607892e+00
  1.052966e+01    2.632090e+00
  1.054554e+01    2.649604e+00
  1.056141e+01    2.545144e+00
  1.057729e+01    2.573326e+00
  1.059316e+01    2.611979e+00
  1.060904e+01    2.575384e+00
  1.062492e+01    2.593340e+00
  1.064079e+01    2.582727e+00
  1.065667e+01    2.593205e+00
  1.067254e+01    2.626418e+00
  1.068842e+01    2.594667e+00
  1.070429e+01    2.557343e+00
  1.072017e+01    2.563415e+00
  1.073604e+01    2.551314e+00
  1.075192e+01    2.568374e+00
  1.076780e+01    2.557888e+00
  1.078367e+01    2.548598e+00
  1.079955e+01    2.570563e+00
  1.081542e+01    2.539597e+00
  1.083130e+01    2.535883e+00
  1.084717e+01    2.494869e+00
  1.086305e+01    2.527099e+00
  1.087892e+01    2.565924e+00
  1.089480e+01    2.563424e+00
  1.091068e+01    2.539290e+00
  1.092655e+01    2.531179e+00
  1.094243e+01    2.525796e+00
  1.095830e+01    2.513063e+00
  1.097418e+01    2.519684e+00
  1.099005e+01    2.510872e+00
  1.100593e+01    2.518164e+00
  1.102180e+01    2.511376e+00
  1.103768e+01    2.485399e+00
  1.105356e+01    2.464356e+00
  1.106943e+01    2.475194e+00
  1.108531e+01    2.534294e+00
  1.110118e+01    2.465912e+00
  1.111706e+01    2.464443e+00
  1.113293e+01    2.483739e+00
  1.114881e+01    2.510797e+00
  1.116468e+01    2.455127e+00
  1.118056e+01    2.438424e+00
  1.119644e+01    2.451225e+00
  1.121231e+01    2.434251e+00
  1.122819e+01    2.447293e+00
  1.124406e+01    2.420746e+00
  1.125994e+01    2.411847e+00
  1.127581e+01    2.417520e+00
  1.129169e+01    2.408880e+00
  1.130756e+01    2.438045e+00
  1.132344e+01    2.431549e+00
  1.133932e+01    2.429302e+00
  1.135519e+01    2.457890e+00
  1.137107e+01    2.462488e+00
  1.138694e+01    2.402019e+00
  1.140282e+01    2.413790e+00
  1.141869e+01    2.423052e+00
  1.143457e+01    2.434279e+00
  1.145045e+01    2.407148e+00
  1.146632e+01    2.402603e+00
  1.148220e+01    2.424035e+00
  1.149807e+01    2.355802e+00
  1.151395e+01    2.375607e+00
  1.152982e+01    2.404411e+00
  1.154570e+01    2.421499e+00
  1.156157e+01    2.410568e+00
  1.157745e+01    2.350129e+00
  1.159333e+01    2.422668e+00
  1.160920e+01    2.415957e+00
  1.162508e+01    2.422269e+00
  1.164095e+01    2.399492e+00
  1.165683e+01    2.337507e+00
  1.167270e+01    2.395980e+00
  1.168858e+01    2.382699e+00
  1.170445e+01    2.367994e+00
  1.172033e+01    2.386237e+00
  1.173621e+01    2.373620e+00
  1.175208e+01    2.371281e+00
  1.176796e+01    2.363814e+00
  1.178383e+01    2.351046e+00
  1.179971e+01    2.313441e+00
  1.181558e+01    2.343037e+00
  1.183146e+01    2.323956e+00
  1.184733e+01    2.363817e+00
  1.186321e+01    2.386773e+00
  1.187909e+01    2.303447e+00
  1.189496e+01    2.353571e+00
  1.191084e+01    2.379279e+00
  1.192671e+01    2.340187e+00
  1.194259e+01    2.342998e+00
  1.195846e+01    2.372154e+00
  1.197434e+01    2.374790e+00
  1.199021e+01    2.351260e+00
  1.200609e+01    2.368704e+00
  1.202197e+01    2.355190e+00
  1.203784e+01    2.340727e+00
  1.205372e+01    2.346184e+00
  1.206959e+01    2.335408e+00
  1.208547e+01    2.328604e+00
  1.210134e+01    2.310981e+00
  1.211722e+01    2.319007e+00
  1.213309e+01    2.324230e+00
  1.214897e+01    2.334094e+00
  1.216485e+01    2.356458e+00
  1.218072e+01    2.367084e+00
  1.219660e+01    2.353040e+00
  1.221247e+01    2.301290e+00
  1.222835e+01    2.329111e+00
  1.224422e+01    2.340345e+00
  1.226010e+01    2.302957e+00
  1.227597e+01    2.294592e+00
  1.229185e+01    2.316771e+00
  1.230773e+01    2.314548e+00
  1.232360e+01    2.319148e+00
  1.233948e+01    2.349554e+00
  1.235535e+01    2.374990e+00
  1.237123e+01    2.362182e+00
  1.238710e+01    2.341062e+00
  1.240298e+01    2.321189e+00
  1.241886e+01    2.323910e+00
  1.243473e+01    2.319094e+00
  1.245061e+01    2.343561e+00
  1.246648e+01    2.358153e+00
  1.248236e+01    2.363114e+00
  1.249823e+01    2.352510e+00
  1.251411e+01    2.339328e+00
  1.252998e+01    2.330579e+00
  1.254586e+01    2.330630e+00
  1.256174e+01    2.360128e+00
  1.257761e+01    2.373067e+00
  1.259349e+01    2.437312e+00
  1.260936e+01    2.441316e+00
  1.262524e+01    2.409413e+00
  1.264111e+01    2.409995e+00
  1.265699e+01    2.451927e+00
  1.267286e+01    2.457338e+00
  1.268874e+01    2.450115e+00
  1.270462e+01    2.461218e+00
  1.272049e+01    2.515241e+00
  1.273637e+01    2.554193e+00
  1.275224e+01    2.587974e+00
  1.276812e+01    2.536706e+00
  1.278399e+01    2.579243e+00
  1.279987e+01    2.643547e+00
  1.281574e+01    2.707087e+00
  1.283162e+01    2.783488e+00
  1.284750e+01    2.827564e+00
  1.286337e+01    2.904776e+00
  1.287925e+01    3.029650e+00
  1.289512e+01    3.162683e+00
  1.291100e+01    3.324912e+00
  1.292687e+01    3.476691e+00
  1.294275e+01    3.729821e+00
  1.295862e+01    4.039435e+00
  1.297450e+01    4.311194e+00
  1.299038e+01    4.742220e+00
  1.300625e+01    5.319812e+00
  1.302213e+01    6.077317e+00
  1.303800e+01    6.985518e+00
  1.305388e+01    8.062140e+00
  1.306975e+01    9.368871e+00
  1.308563e+01    1.065724e+01
  1.310150e+01    1.183045e+01
  1.311738e+01    1.282988e+01
  1.313326e+01    1.388412e+01
  1.314913e+01    1.483065e+01
  1.316501e+01    1.542712e+01
  1.318088e+01    1.566137e+01
  1.319676e+01    1.518997e+01
  1.321263e+01    1.408626e+01
  1.322851e+01    1.226156e+01
  1.324438e+01    1.042058e+01
  1.326026e+01    8.771879e+00
  1.327614e+01    7.448923e+00
  1.329201e+01    6.385953e+00
  1.330789e+01    5.580648e+00
  1.332376e+01    5.005458e+00
  1.333964e+01    4.464742e+00
  1.335551e+01    4.039466e+00
  1.337139e+01    3.716038e+00
  1.338727e+01    3.473617e+00
  1.340314e+01    3.321649e+00
  1.341902e+01    3.141748e+00
  1.343489e+01    2.974070e+00
  1.345077e+01    2.869390e+00
  1.346664e+01    2.798908e+00
  1.348252e+01    2.702142e+00
  1.349839e+01    2.637363e+00
  1.351427e+01    2.566511e+00
  1.353015e+01    2.523828e+00
  1.354602e+01    2.437967e+00
  1.356190e+01    2.424847e+00
  1.357777e+01    2.370745e+00
  1.359365e+01    2.349427e+00
  1.360952e+01    2.338289e+00
  1.362540e+01    2.312033e+00
  1.364127e+01    2.302750e+00
  1.365715e+01    2.318721e+00
  1.367303e+01    2.251796e+00
  1.368890e+01    2.228490e+00
  1.370478e+01    2.195341e+00
  1.372065e+01    2.195536e+00
  1.373653e+01    2.199270e+00
  1.375240e+01    2.191816e+00
  1.376828e+01    2.196758e+00
  1.378415e+01    2.144396e+00
  1.380003e+01    2.124481e+00
  1.381591e+01    2.160185e+00
  1.383178e+01    2.137667e+00
  1.384766e+01    2.076126e+00
  1.386353e+01    2.127516e+00
  1.387941e+01    2.116956e+00
  1.389528e+01    2.108363e+00
  1.391116e+01    2.108875e+00
  1.392703e+01    2.097666e+00
  1.394291e+01    2.090710e+00
  1.395879e+01    2.110997e+00
  1.397466e+01    2.082951e+00
  1.399054e+01    2.067183e+00
  1.400641e+01    2.037930e+00
  1.402229e+01    2.056726e+00
  1.403816e+01    2.025365e+00
  1.405404e+01    2.049766e+00
  1.406991e+01    2.027919e+00
  1.408579e+01    1.997901e+00
  1.410167e+01    1.990981e+00
  1.411754e+01    1.995208e+00
  1.413342e+01    2.017945e+00
  1.414929e+01    2.006568e+00
  1.416517e+01    1.992346e+00
  1.418104e+01    1.945828e+00
  1.419692e+01    1.968550e+00
  1.421279e+01    1.995450e+00
  1.422867e+01    1.978819e+00
  1.424455e+01    1.977853e+00
  1.426042e+01    2.003588e+00
  1.427630e+01    1.976969e+00
  1.429217e+01    1.976478e+00
  1.430805e+01    1.955295e+00
  1.432392e+01    1.959856e+00
  1.433980e+01    1.972126e+00
  1.435568e+01    1.970229e+00
  1.437155e+01    1.941249e+00
  1.438743e+01    1.930169e+00
  1.440330e+01    1.940979e+00
  1.441918e+01    1.943025e+00
  1.443505e+01    1.930743e+00
  1.445093e+01    1.944103e+00
  1.446680e+01    1.955738e+00
  1.448268e+01    1.934220e+00
  1.449856e+01    1.959162e+00
  1.451443e+01    1.981375e+00
  1.453031e+01    1.956506e+00
  1.454618e+01    1.897328e+00
  1.456206e+01    1.906606e+00
  1.457793e+01    1.929246e+00
  1.459381e+01    1.911203e+00
  1.460968e+01    1.878110e+00
  1.462556e+01    1.911382e+00
  1.464144e+01    1.909214e+00
  1.465731e+01    1.900737e+00
  1.467319e+01    1.908237e+00
  1.468906e+01    1.896098e+00
  1.470494e+01    1.926558e+00
  1.472081e+01    1.930376e+00
  1.473669e+01    1.934059e+00
  1.475256e+01    1.929121e+00
  1.476844e+01    1.908533e+00
  1.478432e+01    1.930120e+00
  1.480019e+01    1.927824e+00
  1.481607e+01    1.913448e+00
  1.483194e+01    1.891660e+00
  1.484782e+01    1.950077e+00
  1.486369e+01    1.937067e+00
  1.487957e+01    1.934001e+00
  1.489544e+01    1.949038e+00
  1.491132e+01    1.956384e+00
  1.492720e+01    2.025968e+00
  1.494307e+01    2.036496e+00
  1.495895e+01    2.018430e+00
  1.497482e+01    2.082994e+00
  1.499070e+01    2.094074e+00
  1.500657e+01    2.141483e+00
  1.502245e+01    2.233983e+00
  1.503832e+01    2.281877e+00
  1.505420e+01    2.399673e+00
  1.507008e+01    2.544054e+00
  1.508595e+01    2.663863e+00
  1.510183e+01    2.847676e+00
  1.511770e+01    3.073474e+00
  1.513358e+01    3.399660e+00
  1.514945e+01    3.761803e+00
  1.516533e+01    4.094334e+00
  1.518120e+01    4.367778e+00
  1.519708e+01    4.702552e+00
  1.521296e+01    5.028497e+00
  1.522883e+01    5.236770e+00
  1.524471e+01    5.439806e+00
  1.526058e+01    5.486874e+00
  1.527646e+01    5.439683e+00
  1.529233e+01    5.211811e+00
  1.530821e+01    4.893467e+00
  1.532409e+01    4.441824e+00
  1.533996e+01    3.989344e+00
  1.535584e+01    3.554136e+00
  1.537171e+01    3.171783e+00
  1.538759e+01    2.910819e+00
  1.540346e+01    2.690912e+00
  1.541934e+01    2.473441e+00
  1.543521e+01    2.333459e+00
  1.545109e+01    2.234050e+00
  1.546697e+01    2.131193e+00
  1.548284e+01    2.067128e+00
  1.549872e+01    2.009048e+00
  1.551459e+01    1.965272e+00
  1.553047e+01    1.908626e+00
  1.554634e+01    1.925007e+00
  1.556222e+01    1.913291e+00
  1.557809e+01    1.809157e+00
  1.559397e+01    1.810789e+00
  1.560985e+01    1.820095e+00
  1.562572e+01    1.779106e+00
  1.564160e+01    1.797546e+00
  1.565747e+01    1.771393e+00
  1.567335e+01    1.761136e+00
  1.568922e+01    1.758544e+00
  1.570510e+01    1.758083e+00
  1.572097e+01    1.716737e+00
  1.573685e+01    1.701016e+00
  1.575273e+01    1.683741e+00
  1.576860e+01    1.685431e+00
  1.578448e+01    1.663723e+00
  1.580035e+01    1.683526e+00
  1.581623e+01    1.678074e+00
  1.583210e+01    1.671048e+00
  1.584798e+01    1.668164e+00
  1.586385e+01    1.627885e+00
  1.587973e+01    1.643088e+00
  1.589561e+01    1.637564e+00
  1.591148e+01    1.653653e+00
  1.592736e+01    1.639734e+00
  1.594323e+01    1.672745e+00
  1.595911e+01    1.627027e+00
  1.597498e+01    1.619712e+00
  1.599086e+01    1.608638e+00
  1.600673e+01    1.600163e+00
  1.602261e+01    1.568647e+00
  1.603849e+01    1.602074e+00
  1.605436e+01    1.633377e+00
  1.607024e+01    1.610077e+00
  1.608611e+01    1.585943e+00
  1.610199e+01    1.609591e+00
  1.611786e+01    1.576773e+00
  1.613374e+01    1.582621e+00
  1.614961e+01    1.570611e+00
  1.616549e+01    1.575281e+00
  1.618137e+01    1.567332e+00
  1.619724e+01    1.545876e+00
  1.621312e+01    1.569852e+00
  1.622899e+01    1.547868e+00
  1.624487e+01    1.554304e+00
  1.626074e+01    1.573445e+00
  1.627662e+01    1.576312e+00
  1.629250e+01    1.566850e+00
  1.630837e+01    1.576865e+00
  1.632425e+01    1.556682e+00
  1.634012e+01    1.545840e+00
  1.635600e+01    1.526337e+00
  1.637187e+01    1.516532e+00
  1.638775e+01    1.559111e+00
  1.640362e+01    1.540667e+00
  1.641950e+01    1.529190e+00
  1.643538e+01    1.542109e+00
  1.645125e+01    1.546859e+00
  1.646713e+01    1.539021e+00
  1.648300e+01    1.517433e+00
  1.649888e+01    1.497999e+00
  1.651475e+01    1.503633e+00
  1.653063e+01    1.515539e+00
  1.654650e+01    1.512231e+00
  1.656238e+01    1.533279e+00
  1.657826e+01    1.541034e+00
  1.659413e+01    1.514449e+00
  1.661001e+01    1.493210e+00
  1.662588e+01    1.487321e+00
  1.664176e+01    1.484355e+00
  1.665763e+01    1.494803e+00
  1.667351e+01    1.485633e+00
  1.668938e+01    1.487492e+00
  1.670526e+01    1.468358e+00
  1.672114e+01    1.463839e+00
  1.673701e+01    1.486708e+00
  1.675289e+01    1.505242e+00
  1.676876e+01    1.464869e+00
  1.678464e+01    1.460992e+00
  1.680051e+01    1.476708e+00
  1.681639e+01    1.443193e+00
  1.683226e+01    1.473805e+00
  1.684814e+01    1.518097e+00
  1.686402e+01    1.513512e+00
  1.687989e+01    1.495469e+00
  1.689577e+01    1.469048e+00
  1.691164e+01    1.496457e+00
  1.692752e+01    1.476529e+00
  1.694339e+01    1.459117e+00
  1.695927e+01    1.453301e+00
  1.697514e+01    1.447575e+00
  1.699102e+01    1.428178e+00
  1.700690e+01    1.444839e+00
  1.702277e+01    1.438694e+00
  1.703865e+01    1.444867e+00
  1.705452e+01    1.415146e+00
  1.707040e+01    1.400594e+00
  1.708627e+01    1.409269e+00
  1.710215e+01    1.430204e+00
  1.711802e+01    1.442819e+00
  1.713390e+01    1.424271e+00
  1.714978e+01    1.408944e+00
  1.716565e+01    1.441969e+00
  1.718153e+01    1.424428e+00
  1.719740e+01    1.414598e+00
  1.721328e+01    1.402192e+00
  1.722915e+01    1.382732e+00
  1.724503e+01    1.416503e+00
  1.726091e+01    1.427834e+00
  1.727678e+01    1.376067e+00
  1.729266e+01    1.414008e+00
  1.730853e+01    1.403720e+00
  1.732441e+01    1.370770e+00
  1.734028e+01    1.384776e+00
  1.735616e+01    1.374574e+00
  1.737203e+01    1.370566e+00
  1.738791e+01    1.368593e+00
  1.740379e+01    1.396817e+00
  1.741966e+01    1.382713e+00
  1.743554e+01    1.357908e+00
  1.745141e+01    1.389247e+00
  1.746729e+01    1.371340e+00
  1.748316e+01    1.369059e+00
  1.749904e+01    1.395506e+00
  1.751491e+01    1.345037e+00
  1.753079e+01    1.340431e+00
  1.754667e+01    1.342232e+00
  1.756254e+01    1.344409e+00
  1.757842e+01    1.350447e+00
  1.759429e+01    1.354601e+00
  1.761017e+01    1.381157e+00
  1.762604e+01    1.336178e+00
  1.764192e+01    1.348003e+00
  1.765779e+01    1.357158e+00
  1.767367e+01    1.343351e+00
  1.768955e+01    1.361936e+00
  1.770542e+01    1.357269e+00
  1.772130e+01    1.365373e+00
  1.773717e+01    1.367265e+00
  1.775305e+01    1.342607e+00
  1.776892e+01    1.353233e+00
  1.778480e+01    1.365841e+00
  1.780067e+01    1.339761e+00
  1.781655e+01    1.334474e+00
  1.783243e+01    1.319779e+00
  1.784830e+01    1.343605e+00
  1.786418e+01    1.328794e+00
  1.788005e+01    1.340088e+00
  1.789593e+01    1.330119e+00
  1.791180e+01    1.318569e+00
  1.792768e+01    1.293086e+00
  1.794355e+01    1.308273e+00
  1.795943e+01    1.310189e+00
  1.797531e+01    1.326792e+00
  1.799118e+01    1.301906e+00
  1.800706e+01    1.303568e+00
  1.802293e+01    1.310107e+00
  1.803881e+01    1.308849e+00
  1.805468e+01    1.309481e+00
  1.807056e+01    1.311910e+00
  1.808643e+01    1.277060e+00
  1.810231e+01    1.278204e+00
  1.811819e+01    1.270051e+00
  1.813406e+01    1.289397e+00
  1.814994e+01    1.286030e+00
  1.816581e+01    1.282363e+00
  1.818169e+01    1.289580e+00
  1.819756e+01    1.291987e+00
  1.821344e+01    1.268700e+00
  1.822932e+01    1.283428e+00
  1.824519e+01    1.265438e+00
  1.826107e+01    1.268286e+00
  1.827694e+01    1.299837e+00
  1.829282e+01    1.284288e+00
  1.830869e+01    1.257603e+00
  1.832457e+01    1.258010e+00
  1.834044e+01    1.248884e+00
  1.835632e+01    1.276651e+00
  1.837220e+01    1.296190e+00
  1.838807e+01    1.264908e+00
  1.840395e+01    1.246152e+00
  1.841982e+01    1.257010e+00
  1.843570e+01    1.253912e+00
  1.845157e+01    1.276954e+00
  1.846745e+01    1.273161e+00
  1.848332e+01    1.243085e+00
  1.849920e+01    1.233836e+00
  1.851508e+01    1.244988e+00
  1.853095e+01    1.256805e+00
  1.854683e+01    1.244517e+00
  1.856270e+01    1.227597e+00
  1.857858e+01    1.206001e+00
  1.859445e+01    1.224894e+00
  1.861033e+01    1.256974e+00
  1.862620e+01    1.259294e+00
  1.864208e+01    1.211397e+00
  1.865796e+01    1.215780e+00
  1.867383e+01    1.240198e+00
  1.868971e+01    1.215299e+00
  1.870558e+01    1.206892e+00
  1.872146e+01    1.215094e+00
  1.873733e+01    1.216276e+00
  1.875321e+01    1.220506e+00
  1.876908e+01    1.217398e+00
  1.878496e+01    1.242168e+00
  1.880084e+01    1.226372e+00
  1.881671e+01    1.224972e+00
  1.883259e+01    1.210033e+00
  1.884846e+01    1.218738e+00
  1.886434e+01    1.212653e+00
  1.888021e+01    1.190668e+00
  1.889609e+01    1.206821e+00
  1.891196e+01    1.222783e+00
  1.892784e+01    1.208734e+00
  1.894372e+01    1.209005e+00
  1.895959e+01    1.193587e+00
  1.897547e+01    1.166046e+00
  1.899134e+01    1.168113e+00
  1.900722e+01    1.192434e+00
  1.902309e+01    1.210563e+00
  1.903897e+01    1.206106e+00
  1.905484e+01    1.189030e+00
  1.907072e+01    1.191341e+00
  1.908660e+01    1.184288e+00
  1.910247e+01    1.186205e+00
  1.911835e+01    1.175867e+00
  1.913422e+01    1.187765e+00
  1.915010e+01    1.183055e+00
  1.916597e+01    1.163924e+00
  1.918185e+01    1.185081e+00
  1.919773e+01    1.192875e+00
  1.921360e+01    1.186459e+00
  1.922948e+01    1.180177e+00
  1.924535e+01    1.177825e+00
  1.926123e+01    1.167154e+00
  1.927710e+01    1.185082e+00
  1.929298e+01    1.189645e+00
  1.930885e+01    1.164938e+00
  1.932473e+01    1.190804e+00
  1.934061e+01    1.192547e+00
  1.935648e+01    1.175429e+00
  1.937236e+01    1.181353e+00
  1.938823e+01    1.165451e+00
  1.940411e+01    1.193618e+00
  1.941998e+01    1.194578e+00
  1.943586e+01    1.187750e+00
  1.945173e+01    1.173229e+00
  1.946761e+01    1.157802e+00
  1.948349e+01    1.156226e+00
  1.949936e+01    1.165423e+00
  1.951524e+01    1.158778e+00
  1.953111e+01    1.162849e+00
  1.954699e+01    1.154067e+00
  1.956286e+01    1.151103e+00
  1.957874e+01    1.145757e+00
  1.959461e+01    1.159103e+00
  1.961049e+01    1.135313e+00
  1.962637e+01    1.130764e+00
  1.964224e+01    1.139309e+00
  1.965812e+01    1.124087e+00
  1.967399e+01    1.099290e+00
  1.968987e+01    1.117546e+00
  1.970574e+01    1.124903e+00
  1.972162e+01    1.140549e+00
  1.973749e+01    1.152380e+00
  1.975337e+01    1.141075e+00
  1.976925e+01    1.130552e+00
  1.978512e+01    1.141281e+00
  1.980100e+01    1.142479e+00
  1.981687e+01    1.140648e+00
  1.983275e+01    1.158002e+00
  1.984862e+01    1.147006e+00
  1.986450e+01    1.133129e+00
  1.988037e+01    1.129433e+00
  1.989625e+01    1.127277e+00
  1.991213e+01    1.128010e+00
  1.992800e+01    1.142860e+00
  1.994388e+01    1.108221e+00
  1.995975e+01    1.123288e+00
  1.997563e+01    1.110026e+00
  1.999150e+01    1.118466e+00
  2.000738e+01    1.118345e+00
  2.002325e+01    1.104939e+00
  2.003913e+01    1.101203e+00
  2.005501e+01    1.116858e+00
  2.007088e+01    1.118427e+00
  2.008676e+01    1.119413e+00
  2.010263e+01    1.089864e+00
  2.011851e+01    1.111560e+00
  2.013438e+01    1.126224e+00
  2.015026e+01    1.110502e+00
  2.016614e+01    1.061570e+00
  2.018201e+01    1.106815e+00
  2.019789e+01    1.073744e+00
  2.021376e+01    1.096820e+00
  2.022964e+01    1.119410e+00
  2.024551e+01    1.077767e+00
  2.026139e+01    1.083567e+00
  2.027726e+01    1.102803e+00
  2.029314e+01    1.093998e+00
  2.030902e+01    1.085352e+00
  2.032489e+01    1.086076e+00
  2.034077e+01    1.103175e+00
  2.035664e+01    1.101680e+00
  2.037252e+01    1.074027e+00
  2.038839e+01    1.100221e+00
  2.040427e+01    1.100200e+00
  2.042014e+01    1.098128e+00
  2.043602e+01    1.103325e+00
  2.045190e+01    1.093595e+00
  2.046777e+01    1.078332e+00
  2.048365e+01    1.087271e+00
  2.049952e+01    1.076764e+00
  2.051540e+01    1.071434e+00
  2.053127e+01    1.065038e+00
  2.054715e+01    1.101106e+00
  2.056302e+01    1.077543e+00
  2.057890e+01    1.075878e+00
  2.059478e+01    1.086264e+00
  2.061065e+01    1.086417e+00
  2.062653e+01    1.067229e+00
  2.064240e+01    1.080454e+00
  2.065828e+01    1.069573e+00
  2.067415e+01    1.050555e+00
  2.069003e+01    1.062653e+00
  2.070590e+01    1.063311e+00
  2.072178e+01    1.081913e+00
  2.073766e+01    1.075632e+00
  2.075353e+01    1.082708e+00
  2.076941e+01    1.082424e+00
  2.078528e+01    1.072332e+00
  2.080116e+01    1.066210e+00
  2.081703e+01    1.087890e+00
  2.083291e+01    1.086837e+00
  2.084878e+01    1.077798e+00
  2.086466e+01    1.077199e+00
  2.088054e+01    1.066173e+00
  2.089641e+01    1.078622e+00
  2.091229e+01    1.091473e+00
  2.092816e+01    1.083852e+00
  2.094404e+01    1.075042e+00
  2.095991e+01    1.078243e+00
  2.097579e+01    1.092617e+00
  2.099166e+01    1.078738e+00
  2.100754e+01    1.058730e+00
  2.102342e+01    1.068710e+00
  2.103929e+01    1.065627e+00
  2.105517e+01    1.084197e+00
  2.107104e+01    1.073722e+00
  2.108692e+01    1.065505e+00
  2.110279e+01    1.085125e+00
  2.111867e+01    1.090243e+00
  2.113455e+01    1.068857e+00
  2.115042e+01    1.069376e+00
  2.116630e+01    1.066658e+00
  2.118217e+01    1.107634e+00
  2.119805e+01    1.120044e+00
  2.121392e+01    1.096723e+00
  2.122980e+01    1.117299e+00
  2.124567e+01    1.108282e+00
  2.126155e+01    1.102404e+00
  2.127743e+01    1.112664e+00
  2.129330e+01    1.101637e+00
  2.130918e+01    1.130769e+00
  2.132505e+01    1.141341e+00
  2.134093e+01    1.145765e+00
  2.135680e+01    1.156740e+00
  2.137268e+01    1.158091e+00
  2.138855e+01    1.173537e+00
  2.140443e+01    1.165314e+00
  2.142031e+01    1.172980e+00
  2.143618e+01    1.219632e+00
  2.145206e+01    1.215157e+00
  2.146793e+01    1.218605e+00
  2.148381e+01    1.221362e+00
  2.149968e+01    1.255270e+00
  2.151556e+01    1.294733e+00
  2.153143e+01    1.323903e+00
  2.154731e+01    1.356716e+00
  2.156319e+01    1.416802e+00
  2.157906e+01    1.467857e+00
  2.159494e+01    1.498634e+00
  2.161081e+01    1.596463e+00
  2.162669e+01    1.676646e+00
  2.164256e+01    1.807308e+00
  2.165844e+01    1.921554e+00
  2.167431e+01    2.080596e+00
  2.169019e+01    2.319537e+00
  2.170607e+01    2.554607e+00
  2.172194e+01    2.852489e+00
  2.173782e+01    3.243185e+00
  2.175369e+01    3.676892e+00
  2.176957e+01    4.287656e+00
  2.178544e+01    4.897577e+00
  2.180132e+01    5.475272e+00
  2.181719e+01    6.111081e+00
  2.183307e+01    6.808212e+00
  2.184895e+01    7.479939e+00
  2.186482e+01    8.083989e+00
  2.188070e+01    8.478339e+00
  2.189657e+01    8.685997e+00
  2.191245e+01    8.656618e+00
  2.192832e+01    8.172411e+00
  2.194420e+01    7.422426e+00
  2.196007e+01    6.482535e+00
  2.197595e+01    5.600942e+00
  2.199183e+01    4.751581e+00
  2.200770e+01    4.043617e+00
  2.202358e+01    3.483225e+00
  2.203945e+01    3.006526e+00
  2.205533e+01    2.636355e+00
  2.207120e+01    2.380523e+00
  2.208708e+01    2.160681e+00
  2.210296e+01    1.983941e+00
  2.211883e+01    1.839262e+00
  2.213471e+01    1.699117e+00
  2.215058e+01    1.602392e+00
  2.216646e+01    1.513086e+00
  2.218233e+01    1.468338e+00
  2.219821e+01    1.426577e+00
  2.221408e+01    1.338543e+00
  2.222996e+01    1.282735e+00
  2.224584e+01    1.247152e+00
  2.226171e+01    1.232527e+00
  2.227759e+01    1.215606e+00
  2.229346e+01    1.187763e+00
  2.230934e+01    1.139822e+00
  2.232521e+01    1.139472e+00
  2.234109e+01    1.117907e+00
  2.235696e+01    1.097367e+00
  2.237284e+01    1.093486e+00
  2.238872e+01    1.057106e+00
  2.240459e+01    1.052197e+00
  2.242047e+01    1.034147e+00
  2.243634e+01    1.037695e+00
  2.245222e+01    1.020397e+00
  2.246809e+01    1.015908e+00
  2.248397e+01    1.026654e+00
  2.249984e+01    1.037078e+00
  2.251572e+01    1.009251e+00
  2.253160e+01    9.851974e-01
  2.254747e+01    9.999678e-01
  2.256335e+01    9.880148e-01
  2.257922e+01    9.909235e-01
  2.259510e+01    9.727120e-01
  2.261097e+01    9.526607e-01
  2.262685e+01    9.588889e-01
  2.264272e+01    9.542778e-01
  2.265860e+01    9.474065e-01
  2.267448e+01    9.541153e-01
  2.269035e+01    9.623679e-01
  2.270623e+01    9.626557e-01
  2.272210e+01    9.408267e-01
  2.273798e+01    9.307125e-01
  2.275385e+01    9.069947e-01
  2.276973e+01    9.045846e-01
  2.278560e+01    9.266941e-01
  2.280148e+01    9.206285e-01
  2.281736e+01    9.294849e-01
  2.283323e+01    9.429346e-01
  2.284911e+01    9.311882e-01
  2.286498e+01    9.223203e-01
  2.288086e+01    9.260194e-01
  2.289673e+01    9.093500e-01
  2.291261e+01    9.055789e-01
  2.292848e+01    9.074779e-01
  2.294436e+01    9.029611e-01
  2.296024e+01    8.993831e-01
  2.297611e+01    8.971232e-01
  2.299199e+01    8.958433e-01
  2.300786e+01    8.909123e-01
  2.302374e+01    8.857744e-01
  2.303961e+01    9.118848e-01
  2.305549e+01    8.982283e-01
  2.307137e+01    9.001321e-01
  2.308724e+01    9.161452e-01
  2.310312e+01    8.920016e-01
  2.311899e+01    8.816777e-01
  2.313487e+01    8.718477e-01
  2.315074e+01    8.576885e-01
  2.316662e+01    8.586917e-01
  2.318249e+01    8.525596e-01
  2.319837e+01    8.745651e-01
  2.321425e+01    8.839170e-01
  2.323012e+01    8.639655e-01
  2.324600e+01    8.635348e-01
  2.326187e+01    8.792999e-01
  2.327775e+01    8.666884e-01
  2.329362e+01    8.497749e-01
  2.330950e+01    8.450030e-01
  2.332537e+01    8.487059e-01
  2.334125e+01    8.634214e-01
  2.335713e+01    8.745764e-01
  2.337300e+01    8.539457e-01
  2.338888e+01    8.640982e-01
  2.340475e+01    8.771124e-01
  2.342063e+01    8.511844e-01
  2.343650e+01    8.264633e-01
  2.345238e+01    8.417000e-01
  2.346825e+01    8.485358e-01
  2.348413e+01    8.420942e-01
  2.350001e+01    8.257375e-01
  2.351588e+01    8.570285e-01
  2.353176e+01    8.539920e-01
  2.354763e+01    8.299654e-01
  2.356351e+01    8.397630e-01
  2.357938e+01    8.407679e-01
  2.359526e+01    8.669066e-01
  2.361113e+01    8.631104e-01
  2.362701e+01    8.508393e-01
  2.364289e+01    8.238611e-01
  2.365876e+01    8.132394e-01
  2.367464e+01    8.365537e-01
  2.369051e+01    8.564884e-01
  2.370639e+01    8.291385e-01
  2.372226e+01    8.032864e-01
  2.373814e+01    8.142818e-01
  2.375401e+01    8.160266e-01
  2.376989e+01    8.105933e-01
  2.378577e+01    8.109100e-01
  2.380164e+01    8.071359e-01
  2.381752e+01    8.231172e-01
  2.383339e+01    8.185740e-01
  2.384927e+01    8.261817e-01
  2.386514e+01    8.081303e-01
  2.388102e+01    8.056319e-01
  2.389689e+01    8.134834e-01
  2.391277e+01    7.968202e-01
  2.392865e+01    7.997963e-01
  2.394452e+01    7.742344e-01
  2.396040e+01    7.961366e-01
  2.397627e+01    8.036439e-01
  2.399215e+01    7.964776e-01
  2.400802e+01    7.972018e-01
  2.402390e+01    7.778957e-01
  2.403978e+01    7.799991e-01
  2.405565e+01    7.991861e-01
  2.407153e+01    7.847816e-01
  2.408740e+01    7.679252e-01
  2.410328e+01    7.707922e-01
  2.411915e+01    7.669000e-01
  2.413503e+01    7.689226e-01
  2.415090e+01    7.730607e-01
  2.416678e+01    7.920932e-01
  2.418266e+01    7.858974e-01
  2.419853e+01    7.584323e-01
  2.421441e+01    7.619053e-01
  2.423028e+01    7.774717e-01
  2.424616e+01    7.624987e-01
  2.426203e+01    7.737142e-01
  2.427791e+01    8.011901e-01
  2.429378e+01    7.959635e-01
  2.430966e+01    7.897322e-01
  2.432554e+01    7.912563e-01
  2.434141e+01    7.805933e-01
  2.435729e+01    7.850899e-01
  2.437316e+01    7.963345e-01
  2.438904e+01    7.918191e-01
  2.440491e+01    7.873646e-01
  2.442079e+01    7.712455e-01
  2.443666e+01    7.846465e-01
  2.445254e+01    7.722765e-01
  2.446842e+01    7.817098e-01
  2.448429e+01    7.938803e-01
  2.450017e+01    7.970127e-01
  2.451604e+01    7.989389e-01
  2.453192e+01    7.777368e-01
  2.454779e+01    7.923973e-01
  2.456367e+01    8.009065e-01
  2.457954e+01    7.933587e-01
  2.459542e+01    7.911280e-01
  2.461130e+01    7.897584e-01
  2.462717e+01    7.841855e-01
  2.464305e+01    7.888156e-01
  2.465892e+01    7.746747e-01
  2.467480e+01    8.062226e-01
  2.469067e+01    7.952308e-01
  2.470655e+01    7.793707e-01
  2.472242e+01    7.695396e-01
  2.473830e+01    7.879243e-01
  2.475418e+01    7.695980e-01
  2.477005e+01    7.795572e-01
  2.478593e+01    7.903614e-01
  2.480180e+01    7.814071e-01
  2.481768e+01    7.857283e-01
  2.483355e+01    7.900106e-01
  2.484943e+01    7.819613e-01
  2.486530e+01    7.790354e-01
  2.488118e+01    7.838688e-01
  2.489706e+01    7.949530e-01
  2.491293e+01    7.946131e-01
  2.492881e+01    7.975181e-01
  2.494468e+01    7.969040e-01
  2.496056e+01    7.938598e-01
  2.497643e+01    7.996960e-01
  2.499231e+01    7.983565e-01
  2.500819e+01    7.915776e-01
  2.502406e+01    8.106480e-01
  2.503994e+01    7.957528e-01
  2.505581e+01    8.027931e-01
  2.507169e+01    8.086221e-01
  2.508756e+01    8.148929e-01
  2.510344e+01    8.121898e-01
  2.511931e+01    8.180004e-01
  2.513519e+01    8.048203e-01
  2.515107e+01    7.933534e-01
  2.516694e+01    8.076618e-01
  2.518282e+01    8.133700e-01
  2.519869e+01    8.574079e-01
  2.521457e+01    8.382918e-01
  2.523044e+01    8.473492e-01
  2.524632e+01    8.563261e-01
  2.526219e+01    8.249100e-01
  2.527807e+01    8.402667e-01
  2.529395e+01    8.581972e-01
  2.530982e+01    8.763010e-01
  2.532570e+01    8.902189e-01
  2.534157e+01    8.844829e-01
  2.535745e+01    8.739066e-01
  2.537332e+01    8.835351e-01
  2.538920e+01    8.815421e-01
  2.540507e+01    8.789155e-01
  2.542095e+01    8.934183e-01
  2.543683e+01    9.116731e-01
  2.545270e+01    9.378332e-01
  2.546858e+01    9.632676e-01
  2.548445e+01    9.511524e-01
  2.550033e+01    9.646257e-01
  2.551620e+01    9.767631e-01
  2.553208e+01    1.005583e+00
  2.554795e+01    1.017213e+00
  2.556383e+01    1.034520e+00
  2.557971e+01    1.060066e+00
  2.559558e+01    1.098206e+00
  2.561146e+01    1.132441e+00
  2.562733e+01    1.157352e+00
  2.564321e+01    1.206604e+00
  2.565908e+01    1.242085e+00
  2.567496e+01    1.323669e+00
  2.569083e+01    1.392130e+00
  2.570671e+01    1.495471e+00
  2.572259e+01    1.584264e+00
  2.573846e+01    1.717686e+00
  2.575434e+01    1.876855e+00
  2.577021e+01    2.096087e+00
  2.578609e+01    2.342631e+00
  2.580196e+01    2.647678e+00
  2.581784e+01    2.971622e+00
  2.583371e+01    3.408994e+00
  2.584959e+01    3.882131e+00
  2.586547e+01    4.432467e+00
  2.588134e+01    5.018011e+00
  2.589722e+01    5.526173e+00
  2.591309e+01    6.136423e+00
  2.592897e+01    6.643870e+00
  2.594484e+01    6.963721e+00
  2.596072e+01    7.057984e+00
  2.597660e+01    6.918530e+00
  2.599247e+01    6.571747e+00
  2.600835e+01    6.053122e+00
  2.602422e+01    5.335844e+00
  2.604010e+01    4.596445e+00
  2.605597e+01    3.936555e+00
  2.607185e+01    3.405515e+00
  2.608772e+01    2.946414e+00
  2.610360e+01    2.564976e+00
  2.611948e+01    2.286635e+00
  2.613535e+01    2.038437e+00
  2.615123e+01    1.862880e+00
  2.616710e+01    1.707980e+00
  2.618298e+01    1.572639e+00
  2.619885e+01    1.454902e+00
  2.621473e+01    1.378839e+00
  2.623060e+01    1.318137e+00
  2.624648e+01    1.261468e+00
  2.626236e+01    1.206645e+00
  2.627823e+01    1.162140e+00
  2.629411e+01    1.135370e+00
  2.630998e+01    1.082331e+00
  2.632586e+01    1.053112e+00
  2.634173e+01    1.017515e+00
  2.635761e+01    1.007812e+00
  2.637348e+01    9.913707e-01
  2.638936e+01    9.639962e-01
  2.640524e+01    9.502129e-01
  2.642111e+01    9.331658e-01
  2.643699e+01    9.129941e-01
  2.645286e+01    9.091532e-01
  2.646874e+01    9.245164e-01
  2.648461e+01    9.093468e-01
  2.650049e+01    9.144006e-01
  2.651636e+01    9.055755e-01
  2.653224e+01    8.904648e-01
  2.654812e+01    9.053329e-01
  2.656399e+01    8.879517e-01
  2.657987e+01    8.699034e-01
  2.659574e+01    8.714557e-01
  2.661162e+01    8.859262e-01
  2.662749e+01    8.924214e-01
  2.664337e+01    8.656913e-01
  2.665924e+01    8.579178e-01
  2.667512e+01    8.569022e-01
  2.669100e+01    8.604758e-01
  2.670687e+01    8.665604e-01
  2.672275e+01    8.712313e-01
  2.673862e+01    8.876553e-01
  2.675450e+01    8.981848e-01
  2.677037e+01    8.700131e-01
  2.678625e+01    8.571681e-01
  2.680212e+01    8.730507e-01
  2.681800e+01    8.909749e-01
  2.683388e+01    8.726388e-01
  2.684975e+01    8.707961e-01
  2.686563e+01    8.644715e-01
  2.688150e+01    8.954160e-01
  2.689738e+01    8.993806e-01
  2.691325e+01    8.924313e-01
  2.692913e+01    9.160596e-01
  2.694501e+01    9.351794e-01
  2.696088e+01    9.523817e-01
  2.697676e+01    9.646101e-01
  2.699263e+01    9.788209e-01
  2.700851e+01    1.009149e+00
  2.702438e+01    1.029364e+00
  2.704026e+01    1.106619e+00
  2.705613e+01    1.127274e+00
  2.707201e+01    1.224107e+00
  2.708789e+01    1.285836e+00
  2.710376e+01    1.392093e+00
  2.711964e+01    1.489837e+00
  2.713551e+01    1.616370e+00
  2.715139e+01    1.720915e+00
  2.716726e+01    1.870495e+00
  2.718314e+01    1.987806e+00
  2.719901e+01    2.068649e+00
  2.721489e+01    2.123525e+00
  2.723077e+01    2.100890e+00
  2.724664e+01    2.054123e+00
  2.726252e+01    1.932417e+00
  2.727839e+01    1.759063e+00
  2.729427e+01    1.640692e+00
  2.731014e+01    1.503585e+00
  2.732602e+01    1.363384e+00
  2.734189e+01    1.284398e+00
  2.735777e+01    1.218664e+00
  2.737365e+01    1.131114e+00
  2.738952e+01    1.088577e+00
  2.740540e+01    1.036749e+00
  2.742127e+01    1.006301e+00
  2.743715e+01    9.654541e-01
  2.745302e+01    9.572474e-01
  2.746890e+01    9.430762e-01
  2.748477e+01    9.190298e-01
  2.750065e+01    9.218338e-01
  2.751653e+01    8.942203e-01
  2.753240e+01    8.503072e-01
  2.754828e+01    8.630426e-01
  2.756415e+01    8.372368e-01
  2.758003e+01    8.379700e-01
  2.759590e+01    8.347272e-01
  2.761178e+01    8.309804e-01
  2.762765e+01    8.329780e-01
  2.764353e+01    8.338197e-01
  2.765941e+01    8.260264e-01
  2.767528e+01    8.129236e-01
  2.769116e+01    8.105772e-01
  2.770703e+01    8.140048e-01
  2.772291e+01    8.155634e-01
  2.773878e+01    8.080208e-01
  2.775466e+01    7.881188e-01
  2.777054e+01    7.949828e-01
  2.778641e+01    8.171721e-01
  2.780229e+01    8.051193e-01
  2.781816e+01    8.110568e-01
  2.783404e+01    7.877254e-01
  2.784991e+01    7.910426e-01
  2.786579e+01    7.850044e-01
  2.788166e+01    7.773208e-01
  2.789754e+01    7.989529e-01
  2.791342e+01    8.135753e-01
  2.792929e+01    7.740371e-01
  2.794517e+01    7.766617e-01
  2.796104e+01    7.673527e-01
  2.797692e+01    7.687808e-01
  2.799279e+01    7.870578e-01
  2.800867e+01    7.719081e-01
  2.802454e+01    7.718482e-01
  2.804042e+01    7.676426e-01
  2.805630e+01    7.668480e-01
  2.807217e+01    7.783998e-01
  2.808805e+01    7.828792e-01
  2.810392e+01    7.783459e-01
  2.811980e+01    7.544624e-01
  2.813567e+01    7.683038e-01
  2.815155e+01    7.699339e-01
  2.816742e+01    7.711202e-01
  2.818330e+01    7.683656e-01
  2.819918e+01    7.587529e-01
  2.821505e+01    7.525960e-01
  2.823093e+01    7.426623e-01
  2.824680e+01    7.560930e-01
  2.826268e+01    7.572046e-01
  2.827855e+01    7.642811e-01
  2.829443e+01    7.663239e-01
  2.831030e+01    7.600898e-01
  2.832618e+01    7.655287e-01
  2.834206e+01    7.731480e-01
  2.835793e+01    7.469370e-01
  2.837381e+01    7.669134e-01
  2.838968e+01    7.590461e-01
  2.840556e+01    7.404397e-01
  2.842143e+01    7.393486e-01
  2.843731e+01    7.405284e-01
  2.845318e+01    7.678965e-01
  2.846906e+01    7.738004e-01
  2.848494e+01    7.707855e-01
  2.850081e+01    7.550308e-01
  2.851669e+01    7.569687e-01
  2.853256e+01    7.669672e-01
  2.854844e+01    7.692087e-01
  2.856431e+01    7.504382e-01
  2.858019e+01    7.725233e-01
  2.859606e+01    7.797396e-01
  2.861194e+01    7.582879e-01
  2.862782e+01    7.624757e-01
  2.864369e+01    7.444022e-01
  2.865957e+01    7.399852e-01
  2.867544e+01    7.528530e-01
  2.869132e+01    7.523659e-01
  2.870719e+01    7.421714e-01
  2.872307e+01    7.303382e-01
  2.873895e+01    7.376710e-01
  2.875482e+01    7.188085e-01
  2.877070e+01    7.294828e-01
  2.878657e+01    7.361636e-01
  2.880245e+01    7.522320e-01
  2.881832e+01    7.614335e-01
  2.883420e+01    7.432571e-01
  2.885007e+01    7.286105e-01
  2.886595e+01    7.455567e-01
  2.888183e+01    7.506655e-01
  2.889770e+01    7.645363e-01
  2.891358e+01    7.223670e-01
  2.892945e+01    7.434391e-01
  2.894533e+01    7.420586e-01
  2.896120e+01    7.287204e-01
  2.897708e+01    7.329046e-01
  2.899295e+01    7.218482e-01
  2.900883e+01    7.284815e-01
  2.902471e+01    7.423116e-01
  2.904058e+01    7.323030e-01
  2.905646e+01    7.412943e-01
  2.907233e+01    7.360967e-01
  2.908821e+01    7.385431e-01
  2.910408e+01    7.069137e-01
  2.911996e+01    7.229899e-01
  2.913583e+01    7.361885e-01
  2.915171e+01    7.270563e-01
  2.916759e+01    7.501420e-01
  2.918346e+01    7.409411e-01
  2.919934e+01    7.253215e-01
  2.921521e+01    7.119810e-01
  2.923109e+01    7.309126e-01
  2.924696e+01    7.269266e-01
  2.926284e+01    7.130169e-01
  2.927871e+01    7.164971e-01
  2.929459e+01    7.203138e-01
  2.931047e+01    7.242373e-01
  2.932634e+01    7.048273e-01
  2.934222e+01    7.052040e-01
  2.935809e+01    7.275062e-01
  2.937397e+01    7.335971e-01
  2.938984e+01    7.114800e-01
  2.940572e+01    7.238299e-01
  2.942159e+01    7.144450e-01
  2.943747e+01    7.045649e-01
  2.945335e+01    7.168298e-01
  2.946922e+01    7.143766e-01
  2.948510e+01    7.157741e-01
  2.950097e+01    7.220339e-01
  2.951685e+01    7.306811e-01
  2.953272e+01    7.273244e-01
  2.954860e+01    7.213033e-01
  2.956447e+01    7.307069e-01
  2.958035e+01    7.312101e-01
  2.959623e+01    7.035602e-01
  2.961210e+01    7.170866e-01
  2.962798e+01    7.205057e-01
  2.964385e+01    7.098650e-01
  2.965973e+01    7.214882e-01
  2.967560e+01    7.246495e-01
  2.969148e+01    7.108088e-01
  2.970736e+01    7.234800e-01
  2.972323e+01    7.284857e-01
  2.973911e+01    7.169202e-01
  2.975498e+01    7.014242e-01
  2.977086e+01    7.015633e-01
  2.978673e+01    7.199935e-01
  2.980261e+01    7.146955e-01
  2.981848e+01    7.068437e-01
  2.983436e+01    7.026151e-01
  2.985024e+01    7.152313e-01
  2.986611e+01    7.142888e-01
  2.988199e+01    7.125831e-01
  2.989786e+01    7.259083e-01
  2.991374e+01    7.204174e-01
  2.992961e+01    7.141482e-01
  2.994549e+01    7.217773e-01
  2.996136e+01    7.416003e-01
  2.997724e+01    7.322656e-01
  2.999312e+01    7.378423e-01
  3.000899e+01    7.399297e-01
  3.002487e+01    7.221305e-01
  3.004074e+01    7.088159e-01
  3.005662e+01    7.053202e-01
  3.007249e+01    7.281941e-01
  3.008837e+01    7.426894e-01
  3.010424e+01    7.185786e-01
  3.012012e+01    7.228519e-01
  3.013600e+01    7.259568e-01
  3.015187e+01    7.021387e-01
  3.016775e+01    7.057387e-01
  3.018362e+01    7.130580e-01
  3.019950e+01    6.880893e-01
  3.021537e+01    6.940792e-01
  3.023125e+01    6.921138e-01
  3.024712e+01    7.154150e-01
  3.026300e+01    7.030935e-01
  3.027888e+01    7.235264e-01
  3.029475e+01    7.199305e-01
  3.031063e+01    7.172686e-01
  3.032650e+01    6.942418e-01
  3.034238e+01    6.900310e-01
  3.035825e+01    6.885312e-01
  3.037413e+01    6.963962e-01
  3.039000e+01    6.835296e-01
  3.040588e+01    6.914473e-01
  3.042176e+01    7.163038e-01
  3.043763e+01    7.198274e-01
  3.045351e+01    7.168449e-01
  3.046938e+01    6.953914e-01
  3.048526e+01    6.866475e-01
  3.050113e+01    6.751899e-01
  3.051701e+01    7.039211e-01
  3.053288e+01    6.991014e-01
  3.054876e+01    7.109975e-01
  3.056464e+01    7.056623e-01
  3.058051e+01    7.107341e-01
  3.059639e+01    7.004965e-01
  3.061226e+01    7.105904e-01
  3.062814e+01    7.035624e-01
  3.064401e+01    7.209213e-01
  3.065989e+01    7.010726e-01
  3.067577e+01    7.007663e-01
  3.069164e+01    7.029042e-01
  3.070752e+01    7.248005e-01
  3.072339e+01    7.018301e-01
  3.073927e+01    7.008668e-01
  3.075514e+01    6.987520e-01
  3.077102e+01    7.237635e-01
  3.078689e+01    7.059957e-01
  3.080277e+01    6.735708e-01
  3.081865e+01    7.017726e-01
  3.083452e+01    6.834931e-01
  3.085040e+01    6.927640e-01
  3.086627e+01    7.247742e-01
  3.088215e+01    7.081354e-01
  3.089802e+01    7.061883e-01
  3.091390e+01    6.830356e-01
  3.092977e+01    6.974369e-01
  3.094565e+01    7.130542e-01
  3.096153e+01    7.028898e-01
  3.097740e+01    7.053555e-01
  3.099328e+01    7.092237e-01
  3.100915e+01    7.015809e-01
  3.102503e+01    7.050437e-01
  3.104090e+01    7.244157e-01
  3.105678e+01    7.270627e-01
  3.107265e+01    7.022611e-01
  3.108853e+01    7.144001e-01
  3.110441e+01    7.094588e-01
  3.112028e+01    6.953733e-01
  3.113616e+01    7.037395e-01
  3.115203e+01    7.327765e-01
  3.116791e+01    7.283802e-01
  3.118378e+01    7.130085e-01
  3.119966e+01    7.135380e-01
  3.121553e+01    7.193946e-01
  3.123141e+01    7.323944e-01
  3.124729e+01    7.087826e-01
  3.126316e+01    7.147193e-01
  3.127904e+01    7.269455e-01
  3.129491e+01    7.137329e-01
  3.131079e+01    7.106211e-01
  3.132666e+01    7.203411e-01
  3.134254e+01    7.100786e-01
  3.135841e+01    7.023084e-01
  3.137429e+01    7.250226e-01
  3.139017e+01    7.425592e-01
  3.140604e+01    7.407029e-01
  3.142192e+01    7.393979e-01
  3.143779e+01    7.410699e-01
  3.145367e+01    7.472725e-01
  3.146954e+01    7.418117e-01
  3.148542e+01    7.494621e-01
  3.150129e+01    7.397001e-01
  3.151717e+01    7.599537e-01
  3.153305e+01    7.824435e-01
  3.154892e+01    7.833758e-01
  3.156480e+01    8.020571e-01
  3.158067e+01    8.008348e-01
  3.159655e+01    8.002335e-01
  3.161242e+01    8.374767e-01
  3.162830e+01    8.199165e-01
  3.164418e+01    8.535398e-01
  3.166005e+01    8.511281e-01
  3.167593e+01    8.712706e-01
  3.169180e+01    9.218421e-01
  3.170768e+01    9.870412e-01
  3.172355e+01    1.003104e+00
  3.173943e+01    1.024055e+00
  3.175530e+01    1.094203e+00
  3.177118e+01    1.190862e+00
  3.178706e+01    1.294554e+00
  3.180293e+01    1.405094e+00
  3.181881e+01    1.525451e+00
  3.183468e+01    1.629468e+00
  3.185056e+01    1.754940e+00
  3.186643e+01    1.882640e+00
  3.188231e+01    2.027761e+00
  3.189818e+01    2.120048e+00
  3.191406e+01    2.105199e+00
  3.192994e+01    2.057996e+00
  3.194581e+01    1.955210e+00
  3.196169e+01    1.846055e+00
  3.197756e+01    1.677030e+00
  3.199344e+01    1.547680e+00
  3.200931e+01    1.425731e+00
  3.202519e+01    1.283428e+00
  3.204106e+01    1.174101e+00
  3.205694e+01    1.114474e+00
  3.207282e+01    1.063111e+00
  3.208869e+01    9.955274e-01
  3.210457e+01    9.546236e-01
  3.212044e+01    9.344183e-01
  3.213632e+01    8.686347e-01
  3.215219e+01    8.561714e-01
  3.216807e+01    8.285428e-01
  3.218394e+01    8.014998e-01
  3.219982e+01    7.882330e-01
  3.221570e+01    7.994763e-01
  3.223157e+01    7.865765e-01
  3.224745e+01    7.742149e-01
  3.226332e+01    7.614806e-01
  3.227920e+01    7.413795e-01
  3.229507e+01    7.544196e-01
  3.231095e+01    7.584462e-01
  3.232682e+01    7.443775e-01
  3.234270e+01    7.419525e-01
  3.235858e+01    7.451921e-01
  3.237445e+01    7.458951e-01
  3.239033e+01    7.458585e-01
  3.240620e+01    7.195809e-01
  3.242208e+01    7.057338e-01
  3.243795e+01    7.056603e-01
  3.245383e+01    7.158403e-01
  3.246970e+01    7.052265e-01
  3.248558e+01    6.930879e-01
  3.250146e+01    7.341072e-01
  3.251733e+01    7.168044e-01
  3.253321e+01    7.128195e-01
  3.254908e+01    6.895375e-01
