# == pyFAI calibration ==
# Distance Sample to Detector: 0.3999999939076516 m
# PONI: 9.750e-02, 1.135e-01 m
# Rotations: -0.000175 0.000000 -0.000000 rad
# 
# == Fit2d calibration ==
# Distance Sample-beamCenter: 400.000 mm
# Center: x=1514.000, y=1300.000 pix
# Tilt: 0.010 deg  TiltPlanRot: 0.010 deg
# 
# Detector Detector	 Spline= None	 PixelSize= 7.500e-05, 7.500e-05 m
#    Detector has a mask: False 
#    Detector has a dark current: False 
#    detector has a flat field: False 
# 
# Wavelength: 6.888e-11 m
# Mask applied: user provided
# Dark current applied: False
# Flat field applied: False
# Polarization factor: 0.99
# Normalization factor: 1.0
# --> /home/myspot/data/2024_07_Rosario/Ru-CGO-ex/2024-07-27_002_Ru-CGO-ex_Activtation_ramp_000002_data_000137.dat
#       q_nm^-1             I 
  2.003187e-02    7.711996e-02
  3.590745e-02    6.421730e-02
  5.178302e-02    2.670345e-02
  6.765859e-02    1.028307e-01
  8.353417e-02    4.427531e-02
  9.940974e-02    7.957774e-02
  1.152853e-01    4.540863e-02
  1.311609e-01    4.707591e-02
  1.470365e-01    1.604627e-02
  1.629120e-01    3.073418e-02
  1.787876e-01    3.588098e-02
  1.946632e-01    3.195290e-02
  2.105388e-01    2.165308e-02
  2.264143e-01    1.995729e-02
  2.422899e-01    2.765167e-02
  2.581655e-01    3.691631e-02
  2.740411e-01    8.439095e-03
  2.899166e-01    0.000000e+00
  3.057922e-01    1.975324e-02
  3.216678e-01    2.835236e-02
  3.375433e-01    4.270360e-02
  3.534189e-01    3.366787e-02
  3.692945e-01    4.436840e-02
  3.851701e-01    5.236726e-02
  4.010456e-01    8.421235e-02
  4.169212e-01    7.433610e-02
  4.327968e-01    3.523729e-02
  4.486724e-01    2.968613e-02
  4.645479e-01    4.090267e-02
  4.804235e-01    4.218740e-02
  4.962991e-01    3.461374e-02
  5.121747e-01    3.823968e-02
  5.280502e-01    4.562815e-02
  5.439258e-01    4.202902e-02
  5.598014e-01    4.415154e-02
  5.756770e-01    4.211280e-02
  5.915525e-01    3.392060e-02
  6.074281e-01    1.790934e-02
  6.233037e-01    1.260135e-02
  6.391793e-01    3.831099e-02
  6.550548e-01    3.380911e-02
  6.709304e-01    1.937945e-02
  6.868060e-01    1.375453e-02
  7.026815e-01    5.268536e-02
  7.185571e-01    7.877830e-02
  7.344327e-01    3.546123e-02
  7.503083e-01    4.350797e-02
  7.661838e-01    5.816993e-02
  7.820594e-01    1.060922e-01
  7.979350e-01    1.423326e-01
  8.138106e-01    1.871909e-01
  8.296861e-01    2.506696e-01
  8.455617e-01    3.334831e-01
  8.614373e-01    3.887780e-01
  8.773129e-01    4.412484e-01
  8.931884e-01    5.007246e-01
  9.090640e-01    5.327684e-01
  9.249396e-01    5.981039e-01
  9.408152e-01    6.937196e-01
  9.566907e-01    7.053103e-01
  9.725663e-01    8.323101e-01
  9.884419e-01    9.406713e-01
  1.004317e+00    1.017082e+00
  1.020193e+00    1.104494e+00
  1.036069e+00    1.160246e+00
  1.051944e+00    1.182316e+00
  1.067820e+00    1.235160e+00
  1.083695e+00    1.424995e+00
  1.099571e+00    1.476990e+00
  1.115446e+00    1.479636e+00
  1.131322e+00    1.450265e+00
  1.147198e+00    1.422429e+00
  1.163073e+00    1.395217e+00
  1.178949e+00    1.520268e+00
  1.194824e+00    1.559874e+00
  1.210700e+00    1.818412e+00
  1.226575e+00    2.026862e+00
  1.242451e+00    2.106563e+00
  1.258327e+00    2.274460e+00
  1.274202e+00    2.343442e+00
  1.290078e+00    2.394639e+00
  1.305953e+00    2.485947e+00
  1.321829e+00    2.524889e+00
  1.337705e+00    2.477218e+00
  1.353580e+00    2.411415e+00
  1.369456e+00    2.351656e+00
  1.385331e+00    2.484080e+00
  1.401207e+00    2.481399e+00
  1.417082e+00    2.587208e+00
  1.432958e+00    2.592044e+00
  1.448834e+00    2.678434e+00
  1.464709e+00    2.753585e+00
  1.480585e+00    2.716273e+00
  1.496460e+00    2.747042e+00
  1.512336e+00    2.711665e+00
  1.528211e+00    2.898386e+00
  1.544087e+00    2.870703e+00
  1.559963e+00    3.086882e+00
  1.575838e+00    3.019634e+00
  1.591714e+00    2.955494e+00
  1.607589e+00    2.955425e+00
  1.623465e+00    2.928466e+00
  1.639340e+00    2.891547e+00
  1.655216e+00    2.843529e+00
  1.671092e+00    2.764704e+00
  1.686967e+00    2.810321e+00
  1.702843e+00    2.771337e+00
  1.718718e+00    2.742401e+00
  1.734594e+00    2.756699e+00
  1.750469e+00    2.826300e+00
  1.766345e+00    2.712934e+00
  1.782221e+00    2.760806e+00
  1.798096e+00    2.780066e+00
  1.813972e+00    2.829088e+00
  1.829847e+00    2.832158e+00
  1.845723e+00    2.811363e+00
  1.861598e+00    2.784059e+00
  1.877474e+00    2.736122e+00
  1.893350e+00    2.731705e+00
  1.909225e+00    2.743753e+00
  1.925101e+00    2.710484e+00
  1.940976e+00    2.802243e+00
  1.956852e+00    2.639373e+00
  1.972727e+00    2.585824e+00
  1.988603e+00    2.604359e+00
  2.004479e+00    2.631023e+00
  2.020354e+00    2.581878e+00
  2.036230e+00    2.662542e+00
  2.052105e+00    2.711897e+00
  2.067981e+00    2.705845e+00
  2.083856e+00    2.827963e+00
  2.099732e+00    2.787190e+00
  2.115608e+00    2.751276e+00
  2.131483e+00    2.724832e+00
  2.147359e+00    2.718807e+00
  2.163234e+00    2.707135e+00
  2.179110e+00    2.659620e+00
  2.194985e+00    2.635853e+00
  2.210861e+00    2.779859e+00
  2.226737e+00    2.674682e+00
  2.242612e+00    2.717272e+00
  2.258488e+00    2.819758e+00
  2.274363e+00    2.699000e+00
  2.290239e+00    2.717550e+00
  2.306115e+00    2.643636e+00
  2.321990e+00    2.634166e+00
  2.337866e+00    2.663093e+00
  2.353741e+00    2.661114e+00
  2.369617e+00    2.787357e+00
  2.385492e+00    2.738910e+00
  2.401368e+00    2.756514e+00
  2.417244e+00    2.819729e+00
  2.433119e+00    2.734769e+00
  2.448995e+00    2.729418e+00
  2.464870e+00    2.765397e+00
  2.480746e+00    2.760148e+00
  2.496621e+00    2.695729e+00
  2.512497e+00    2.760802e+00
  2.528373e+00    2.825405e+00
  2.544248e+00    2.711989e+00
  2.560124e+00    2.764643e+00
  2.575999e+00    2.776314e+00
  2.591875e+00    2.793678e+00
  2.607750e+00    2.848267e+00
  2.623626e+00    2.754158e+00
  2.639502e+00    2.762739e+00
  2.655377e+00    2.818005e+00
  2.671253e+00    2.788290e+00
  2.687128e+00    2.820539e+00
  2.703004e+00    2.811137e+00
  2.718879e+00    2.718496e+00
  2.734755e+00    2.764459e+00
  2.750631e+00    2.813770e+00
  2.766506e+00    2.750259e+00
  2.782382e+00    2.724883e+00
  2.798257e+00    2.759470e+00
  2.814133e+00    2.809770e+00
  2.830008e+00    2.843317e+00
  2.845884e+00    2.771743e+00
  2.861760e+00    2.730821e+00
  2.877635e+00    2.817795e+00
  2.893511e+00    2.823945e+00
  2.909386e+00    2.880633e+00
  2.925262e+00    2.873856e+00
  2.941137e+00    2.784150e+00
  2.957013e+00    2.799738e+00
  2.972889e+00    2.798577e+00
  2.988764e+00    2.763122e+00
  3.004640e+00    2.699717e+00
  3.020515e+00    2.799332e+00
  3.036391e+00    2.832242e+00
  3.052266e+00    2.777390e+00
  3.068142e+00    2.798201e+00
  3.084018e+00    2.763386e+00
  3.099893e+00    2.896028e+00
  3.115769e+00    2.911551e+00
  3.131644e+00    2.864579e+00
  3.147520e+00    2.786078e+00
  3.163395e+00    2.730358e+00
  3.179271e+00    2.879400e+00
  3.195147e+00    2.863133e+00
  3.211022e+00    2.934460e+00
  3.226898e+00    2.929014e+00
  3.242773e+00    2.908468e+00
  3.258649e+00    2.912884e+00
  3.274525e+00    2.937913e+00
  3.290400e+00    2.936575e+00
  3.306276e+00    2.858621e+00
  3.322151e+00    2.826528e+00
  3.338027e+00    2.830024e+00
  3.353902e+00    2.916110e+00
  3.369778e+00    2.907470e+00
  3.385654e+00    2.890850e+00
  3.401529e+00    2.901396e+00
  3.417405e+00    2.877355e+00
  3.433280e+00    2.837305e+00
  3.449156e+00    2.928364e+00
  3.465031e+00    2.870922e+00
  3.480907e+00    2.851914e+00
  3.496783e+00    2.925012e+00
  3.512658e+00    2.933888e+00
  3.528534e+00    2.997267e+00
  3.544409e+00    2.994157e+00
  3.560285e+00    2.905692e+00
  3.576160e+00    2.928336e+00
  3.592036e+00    2.954701e+00
  3.607912e+00    2.980706e+00
  3.623787e+00    2.987246e+00
  3.639663e+00    3.050586e+00
  3.655538e+00    3.023854e+00
  3.671414e+00    2.957071e+00
  3.687289e+00    3.037134e+00
  3.703165e+00    3.057251e+00
  3.719041e+00    2.925236e+00
  3.734916e+00    2.911924e+00
  3.750792e+00    3.001011e+00
  3.766667e+00    2.961265e+00
  3.782543e+00    2.969584e+00
  3.798418e+00    2.949544e+00
  3.814294e+00    2.994048e+00
  3.830170e+00    3.028492e+00
  3.846045e+00    2.974925e+00
  3.861921e+00    2.932292e+00
  3.877796e+00    2.922028e+00
  3.893672e+00    2.964854e+00
  3.909547e+00    2.874835e+00
  3.925423e+00    2.904481e+00
  3.941299e+00    2.968172e+00
  3.957174e+00    3.027205e+00
  3.973050e+00    2.993738e+00
  3.988925e+00    2.945753e+00
  4.004801e+00    2.907424e+00
  4.020676e+00    2.944889e+00
  4.036552e+00    3.013592e+00
  4.052428e+00    3.024781e+00
  4.068303e+00    2.990777e+00
  4.084179e+00    3.033511e+00
  4.100054e+00    3.027079e+00
  4.115930e+00    2.956642e+00
  4.131806e+00    3.030558e+00
  4.147681e+00    3.068102e+00
  4.163557e+00    3.035241e+00
  4.179432e+00    2.991714e+00
  4.195308e+00    2.954400e+00
  4.211183e+00    3.003501e+00
  4.227059e+00    2.987620e+00
  4.242935e+00    2.997562e+00
  4.258810e+00    3.059695e+00
  4.274686e+00    3.023307e+00
  4.290561e+00    2.997202e+00
  4.306437e+00    3.016780e+00
  4.322312e+00    2.999098e+00
  4.338188e+00    3.019225e+00
  4.354064e+00    2.989833e+00
  4.369939e+00    2.965815e+00
  4.385815e+00    3.034382e+00
  4.401690e+00    3.075469e+00
  4.417566e+00    3.068554e+00
  4.433441e+00    3.081828e+00
  4.449317e+00    3.077352e+00
  4.465193e+00    3.081114e+00
  4.481068e+00    3.099453e+00
  4.496944e+00    3.063263e+00
  4.512819e+00    3.041334e+00
  4.528695e+00    2.971686e+00
  4.544570e+00    3.024138e+00
  4.560446e+00    3.077616e+00
  4.576322e+00    3.001529e+00
  4.592197e+00    3.077151e+00
  4.608073e+00    3.069946e+00
  4.623948e+00    3.019300e+00
  4.639824e+00    3.036514e+00
  4.655699e+00    3.081160e+00
  4.671575e+00    3.088445e+00
  4.687451e+00    3.148703e+00
  4.703326e+00    3.107628e+00
  4.719202e+00    3.115449e+00
  4.735077e+00    3.067057e+00
  4.750953e+00    3.082069e+00
  4.766828e+00    3.107931e+00
  4.782704e+00    3.103900e+00
  4.798580e+00    3.069145e+00
  4.814455e+00    3.067524e+00
  4.830331e+00    3.043653e+00
  4.846206e+00    3.117666e+00
  4.862082e+00    3.140572e+00
  4.877957e+00    2.998127e+00
  4.893833e+00    3.042177e+00
  4.909709e+00    3.065705e+00
  4.925584e+00    3.056639e+00
  4.941460e+00    3.049392e+00
  4.957335e+00    3.103641e+00
  4.973211e+00    3.059615e+00
  4.989086e+00    2.978169e+00
  5.004962e+00    3.014206e+00
  5.020838e+00    3.103112e+00
  5.036713e+00    3.103439e+00
  5.052589e+00    3.097241e+00
  5.068464e+00    3.027191e+00
  5.084340e+00    3.095156e+00
  5.100216e+00    3.125568e+00
  5.116091e+00    3.057173e+00
  5.131967e+00    3.051354e+00
  5.147842e+00    3.122350e+00
  5.163718e+00    3.144852e+00
  5.179593e+00    3.108125e+00
  5.195469e+00    3.083694e+00
  5.211345e+00    3.062189e+00
  5.227220e+00    3.031663e+00
  5.243096e+00    3.023429e+00
  5.258971e+00    3.033969e+00
  5.274847e+00    3.071496e+00
  5.290722e+00    3.106123e+00
  5.306598e+00    3.153555e+00
  5.322474e+00    3.094530e+00
  5.338349e+00    3.044599e+00
  5.354225e+00    3.032160e+00
  5.370100e+00    3.138310e+00
  5.385976e+00    3.193694e+00
  5.401851e+00    3.122718e+00
  5.417727e+00    3.103073e+00
  5.433603e+00    3.065062e+00
  5.449478e+00    3.069116e+00
  5.465354e+00    3.051700e+00
  5.481229e+00    3.017600e+00
  5.497105e+00    3.029156e+00
  5.512980e+00    3.052511e+00
  5.528856e+00    3.115230e+00
  5.544732e+00    3.129224e+00
  5.560607e+00    3.023589e+00
  5.576483e+00    3.029660e+00
  5.592358e+00    3.142683e+00
  5.608234e+00    3.003806e+00
  5.624109e+00    3.006889e+00
  5.639985e+00    2.990161e+00
  5.655861e+00    3.028980e+00
  5.671736e+00    3.044460e+00
  5.687612e+00    3.011112e+00
  5.703487e+00    3.026714e+00
  5.719363e+00    2.989282e+00
  5.735238e+00    3.037306e+00
  5.751114e+00    3.078125e+00
  5.766990e+00    3.005687e+00
  5.782865e+00    3.037890e+00
  5.798741e+00    3.034934e+00
  5.814616e+00    2.992009e+00
  5.830492e+00    3.012890e+00
  5.846367e+00    3.011268e+00
  5.862243e+00    3.035805e+00
  5.878119e+00    2.977327e+00
  5.893994e+00    3.008732e+00
  5.909870e+00    2.950469e+00
  5.925745e+00    2.965960e+00
  5.941621e+00    2.952711e+00
  5.957497e+00    2.956972e+00
  5.973372e+00    3.024842e+00
  5.989248e+00    3.003444e+00
  6.005123e+00    2.926733e+00
  6.020999e+00    2.953790e+00
  6.036874e+00    3.026413e+00
  6.052750e+00    3.022966e+00
  6.068626e+00    2.987552e+00
  6.084501e+00    3.029051e+00
  6.100377e+00    3.055534e+00
  6.116252e+00    3.036557e+00
  6.132128e+00    3.025577e+00
  6.148003e+00    3.095196e+00
  6.163879e+00    3.082564e+00
  6.179755e+00    2.998660e+00
  6.195630e+00    2.990838e+00
  6.211506e+00    3.052758e+00
  6.227381e+00    3.074634e+00
  6.243257e+00    3.058997e+00
  6.259132e+00    3.023372e+00
  6.275008e+00    3.066795e+00
  6.290884e+00    3.060741e+00
  6.306759e+00    3.001800e+00
  6.322635e+00    3.004137e+00
  6.338510e+00    3.018253e+00
  6.354386e+00    2.989149e+00
  6.370261e+00    3.055513e+00
  6.386137e+00    3.046330e+00
  6.402013e+00    3.000861e+00
  6.417888e+00    2.993407e+00
  6.433764e+00    2.965430e+00
  6.449639e+00    2.968596e+00
  6.465515e+00    2.932419e+00
  6.481390e+00    3.041684e+00
  6.497266e+00    3.094404e+00
  6.513142e+00    2.998127e+00
  6.529017e+00    2.999020e+00
  6.544893e+00    3.013898e+00
  6.560768e+00    3.010530e+00
  6.576644e+00    2.954130e+00
  6.592519e+00    2.957300e+00
  6.608395e+00    2.981597e+00
  6.624271e+00    2.966852e+00
  6.640146e+00    2.980282e+00
  6.656022e+00    3.066010e+00
  6.671897e+00    3.053679e+00
  6.687773e+00    3.022359e+00
  6.703648e+00    3.104740e+00
  6.719524e+00    3.044407e+00
  6.735400e+00    2.953033e+00
  6.751275e+00    3.012387e+00
  6.767151e+00    3.035694e+00
  6.783026e+00    3.002174e+00
  6.798902e+00    3.030972e+00
  6.814777e+00    2.964761e+00
  6.830653e+00    2.959007e+00
  6.846529e+00    3.060102e+00
  6.862404e+00    3.062761e+00
  6.878280e+00    3.048095e+00
  6.894155e+00    3.042371e+00
  6.910031e+00    2.990483e+00
  6.925907e+00    2.949669e+00
  6.941782e+00    3.024849e+00
  6.957658e+00    3.051188e+00
  6.973533e+00    3.028414e+00
  6.989409e+00    2.957374e+00
  7.005284e+00    3.025203e+00
  7.021160e+00    2.985826e+00
  7.037036e+00    3.004275e+00
  7.052911e+00    3.046893e+00
  7.068787e+00    3.087512e+00
  7.084662e+00    3.028788e+00
  7.100538e+00    3.013222e+00
  7.116413e+00    3.020707e+00
  7.132289e+00    2.973931e+00
  7.148165e+00    2.973664e+00
  7.164040e+00    2.966491e+00
  7.179916e+00    3.003989e+00
  7.195791e+00    3.045443e+00
  7.211667e+00    3.021492e+00
  7.227542e+00    3.041645e+00
  7.243418e+00    3.071517e+00
  7.259294e+00    2.971632e+00
  7.275169e+00    2.983089e+00
  7.291045e+00    2.993875e+00
  7.306920e+00    2.955697e+00
  7.322796e+00    2.980024e+00
  7.338671e+00    2.997873e+00
  7.354547e+00    3.016347e+00
  7.370423e+00    2.994233e+00
  7.386298e+00    2.932271e+00
  7.402174e+00    2.951111e+00
  7.418049e+00    2.969006e+00
  7.433925e+00    2.946443e+00
  7.449800e+00    2.939476e+00
  7.465676e+00    2.996714e+00
  7.481552e+00    2.907513e+00
  7.497427e+00    2.960955e+00
  7.513303e+00    2.978397e+00
  7.529178e+00    2.962751e+00
  7.545054e+00    3.004357e+00
  7.560929e+00    2.984337e+00
  7.576805e+00    2.925140e+00
  7.592681e+00    2.891010e+00
  7.608556e+00    2.928066e+00
  7.624432e+00    2.973142e+00
  7.640307e+00    2.997109e+00
  7.656183e+00    2.953826e+00
  7.672058e+00    2.941062e+00
  7.687934e+00    2.923181e+00
  7.703810e+00    2.936714e+00
  7.719685e+00    2.899744e+00
  7.735561e+00    2.921770e+00
  7.751436e+00    2.917934e+00
  7.767312e+00    2.859910e+00
  7.783187e+00    2.909960e+00
  7.799063e+00    2.953815e+00
  7.814939e+00    2.961912e+00
  7.830814e+00    2.905168e+00
  7.846690e+00    2.923863e+00
  7.862565e+00    2.953405e+00
  7.878441e+00    2.933685e+00
  7.894317e+00    2.944103e+00
  7.910192e+00    2.922746e+00
  7.926068e+00    2.937036e+00
  7.941943e+00    2.946436e+00
  7.957819e+00    2.924028e+00
  7.973694e+00    2.923608e+00
  7.989570e+00    2.930112e+00
  8.005446e+00    2.872094e+00
  8.021321e+00    2.885249e+00
  8.037197e+00    2.849855e+00
  8.053072e+00    2.862736e+00
  8.068948e+00    2.890645e+00
  8.084823e+00    2.936153e+00
  8.100699e+00    2.920270e+00
  8.116575e+00    2.844059e+00
  8.132450e+00    2.835020e+00
  8.148326e+00    2.897934e+00
  8.164201e+00    2.922419e+00
  8.180077e+00    2.936404e+00
  8.195952e+00    2.978314e+00
  8.211828e+00    2.980683e+00
  8.227704e+00    3.022407e+00
  8.243579e+00    2.946252e+00
  8.259455e+00    2.882187e+00
  8.275330e+00    2.833271e+00
  8.291206e+00    2.833743e+00
  8.307081e+00    2.869888e+00
  8.322957e+00    2.855186e+00
  8.338833e+00    2.884051e+00
  8.354708e+00    2.839642e+00
  8.370584e+00    2.836054e+00
  8.386459e+00    2.940284e+00
  8.402335e+00    2.852168e+00
  8.418210e+00    2.853523e+00
  8.434086e+00    2.840343e+00
  8.449962e+00    2.859121e+00
  8.465837e+00    2.881974e+00
  8.481713e+00    2.859626e+00
  8.497588e+00    2.890062e+00
  8.513464e+00    2.876917e+00
  8.529339e+00    2.914016e+00
  8.545215e+00    2.861629e+00
  8.561091e+00    2.836468e+00
  8.576966e+00    2.907128e+00
  8.592842e+00    2.830995e+00
  8.608717e+00    2.815943e+00
  8.624593e+00    2.797159e+00
  8.640468e+00    2.836971e+00
  8.656344e+00    2.871148e+00
  8.672220e+00    2.813450e+00
  8.688095e+00    2.848417e+00
  8.703971e+00    2.833595e+00
  8.719846e+00    2.847737e+00
  8.735722e+00    2.815179e+00
  8.751598e+00    2.824277e+00
  8.767473e+00    2.827221e+00
  8.783349e+00    2.824899e+00
  8.799224e+00    2.804827e+00
  8.815100e+00    2.796515e+00
  8.830975e+00    2.795321e+00
  8.846851e+00    2.784971e+00
  8.862727e+00    2.821012e+00
  8.878602e+00    2.817227e+00
  8.894478e+00    2.821488e+00
  8.910353e+00    2.852033e+00
  8.926229e+00    2.790167e+00
  8.942104e+00    2.799032e+00
  8.957980e+00    2.799577e+00
  8.973856e+00    2.772792e+00
  8.989731e+00    2.802269e+00
  9.005607e+00    2.832714e+00
  9.021482e+00    2.826524e+00
  9.037358e+00    2.795566e+00
  9.053233e+00    2.741446e+00
  9.069109e+00    2.760359e+00
  9.084985e+00    2.749717e+00
  9.100860e+00    2.758627e+00
  9.116736e+00    2.808980e+00
  9.132611e+00    2.849130e+00
  9.148487e+00    2.753690e+00
  9.164362e+00    2.776513e+00
  9.180238e+00    2.800429e+00
  9.196114e+00    2.797681e+00
  9.211989e+00    2.788211e+00
  9.227865e+00    2.766128e+00
  9.243740e+00    2.731270e+00
  9.259616e+00    2.756629e+00
  9.275491e+00    2.753526e+00
  9.291367e+00    2.746376e+00
  9.307243e+00    2.780188e+00
  9.323118e+00    2.729338e+00
  9.338994e+00    2.676390e+00
  9.354869e+00    2.699091e+00
  9.370745e+00    2.747764e+00
  9.386620e+00    2.746211e+00
  9.402496e+00    2.784504e+00
  9.418372e+00    2.769655e+00
  9.434247e+00    2.744204e+00
  9.450123e+00    2.746716e+00
  9.465998e+00    2.760975e+00
  9.481874e+00    2.760266e+00
  9.497749e+00    2.720276e+00
  9.513625e+00    2.762744e+00
  9.529501e+00    2.750032e+00
  9.545376e+00    2.768847e+00
  9.561252e+00    2.767918e+00
  9.577127e+00    2.748773e+00
  9.593003e+00    2.762948e+00
  9.608878e+00    2.761073e+00
  9.624754e+00    2.744168e+00
  9.640630e+00    2.710833e+00
  9.656505e+00    2.721620e+00
  9.672381e+00    2.701759e+00
  9.688256e+00    2.664948e+00
  9.704132e+00    2.702018e+00
  9.720008e+00    2.710670e+00
  9.735883e+00    2.673106e+00
  9.751759e+00    2.723474e+00
  9.767634e+00    2.713004e+00
  9.783510e+00    2.655167e+00
  9.799385e+00    2.650298e+00
  9.815261e+00    2.605318e+00
  9.831137e+00    2.592282e+00
  9.847012e+00    2.623164e+00
  9.862888e+00    2.650741e+00
  9.878763e+00    2.686698e+00
  9.894639e+00    2.671960e+00
  9.910514e+00    2.663374e+00
  9.926390e+00    2.654413e+00
  9.942266e+00    2.656347e+00
  9.958141e+00    2.672448e+00
  9.974017e+00    2.664903e+00
  9.989892e+00    2.629722e+00
  1.000577e+01    2.637852e+00
  1.002164e+01    2.617114e+00
  1.003752e+01    2.687057e+00
  1.005339e+01    2.701285e+00
  1.006927e+01    2.635097e+00
  1.008515e+01    2.638637e+00
  1.010102e+01    2.638866e+00
  1.011690e+01    2.637946e+00
  1.013277e+01    2.616481e+00
  1.014865e+01    2.637391e+00
  1.016452e+01    2.623025e+00
  1.018040e+01    2.628290e+00
  1.019627e+01    2.631894e+00
  1.021215e+01    2.616456e+00
  1.022803e+01    2.599923e+00
  1.024390e+01    2.577449e+00
  1.025978e+01    2.580621e+00
  1.027565e+01    2.591026e+00
  1.029153e+01    2.591535e+00
  1.030740e+01    2.650132e+00
  1.032328e+01    2.619858e+00
  1.033915e+01    2.577096e+00
  1.035503e+01    2.645312e+00
  1.037091e+01    2.610992e+00
  1.038678e+01    2.587324e+00
  1.040266e+01    2.576792e+00
  1.041853e+01    2.590276e+00
  1.043441e+01    2.575834e+00
  1.045028e+01    2.590665e+00
  1.046616e+01    2.569201e+00
  1.048204e+01    2.554209e+00
  1.049791e+01    2.548219e+00
  1.051379e+01    2.561557e+00
  1.052966e+01    2.534176e+00
  1.054554e+01    2.551572e+00
  1.056141e+01    2.573770e+00
  1.057729e+01    2.588261e+00
  1.059316e+01    2.615723e+00
  1.060904e+01    2.573704e+00
  1.062492e+01    2.560163e+00
  1.064079e+01    2.546814e+00
  1.065667e+01    2.554822e+00
  1.067254e+01    2.524840e+00
  1.068842e+01    2.499728e+00
  1.070429e+01    2.482557e+00
  1.072017e+01    2.536560e+00
  1.073604e+01    2.511464e+00
  1.075192e+01    2.532072e+00
  1.076780e+01    2.527402e+00
  1.078367e+01    2.579054e+00
  1.079955e+01    2.533000e+00
  1.081542e+01    2.539954e+00
  1.083130e+01    2.548747e+00
  1.084717e+01    2.529068e+00
  1.086305e+01    2.554665e+00
  1.087892e+01    2.514666e+00
  1.089480e+01    2.498090e+00
  1.091068e+01    2.499937e+00
  1.092655e+01    2.452353e+00
  1.094243e+01    2.490308e+00
  1.095830e+01    2.486670e+00
  1.097418e+01    2.509855e+00
  1.099005e+01    2.438968e+00
  1.100593e+01    2.472206e+00
  1.102180e+01    2.500524e+00
  1.103768e+01    2.464829e+00
  1.105356e+01    2.445209e+00
  1.106943e+01    2.460476e+00
  1.108531e+01    2.432169e+00
  1.110118e+01    2.408998e+00
  1.111706e+01    2.422690e+00
  1.113293e+01    2.434165e+00
  1.114881e+01    2.481345e+00
  1.116468e+01    2.473166e+00
  1.118056e+01    2.443674e+00
  1.119644e+01    2.451555e+00
  1.121231e+01    2.434805e+00
  1.122819e+01    2.401934e+00
  1.124406e+01    2.363876e+00
  1.125994e+01    2.403536e+00
  1.127581e+01    2.424884e+00
  1.129169e+01    2.434674e+00
  1.130756e+01    2.425914e+00
  1.132344e+01    2.440568e+00
  1.133932e+01    2.435983e+00
  1.135519e+01    2.385751e+00
  1.137107e+01    2.418923e+00
  1.138694e+01    2.412354e+00
  1.140282e+01    2.437400e+00
  1.141869e+01    2.401408e+00
  1.143457e+01    2.405666e+00
  1.145045e+01    2.400468e+00
  1.146632e+01    2.370850e+00
  1.148220e+01    2.382704e+00
  1.149807e+01    2.385265e+00
  1.151395e+01    2.384681e+00
  1.152982e+01    2.364376e+00
  1.154570e+01    2.384578e+00
  1.156157e+01    2.341008e+00
  1.157745e+01    2.365046e+00
  1.159333e+01    2.375112e+00
  1.160920e+01    2.345866e+00
  1.162508e+01    2.344302e+00
  1.164095e+01    2.341787e+00
  1.165683e+01    2.326164e+00
  1.167270e+01    2.384643e+00
  1.168858e+01    2.392101e+00
  1.170445e+01    2.368725e+00
  1.172033e+01    2.369121e+00
  1.173621e+01    2.342985e+00
  1.175208e+01    2.311040e+00
  1.176796e+01    2.283009e+00
  1.178383e+01    2.351012e+00
  1.179971e+01    2.336656e+00
  1.181558e+01    2.346479e+00
  1.183146e+01    2.342889e+00
  1.184733e+01    2.322715e+00
  1.186321e+01    2.315898e+00
  1.187909e+01    2.308228e+00
  1.189496e+01    2.319934e+00
  1.191084e+01    2.282374e+00
  1.192671e+01    2.261601e+00
  1.194259e+01    2.325692e+00
  1.195846e+01    2.321054e+00
  1.197434e+01    2.295404e+00
  1.199021e+01    2.312542e+00
  1.200609e+01    2.284857e+00
  1.202197e+01    2.298435e+00
  1.203784e+01    2.285793e+00
  1.205372e+01    2.342790e+00
  1.206959e+01    2.304386e+00
  1.208547e+01    2.285487e+00
  1.210134e+01    2.318672e+00
  1.211722e+01    2.299239e+00
  1.213309e+01    2.315193e+00
  1.214897e+01    2.281920e+00
  1.216485e+01    2.296948e+00
  1.218072e+01    2.293208e+00
  1.219660e+01    2.258097e+00
  1.221247e+01    2.300087e+00
  1.222835e+01    2.320144e+00
  1.224422e+01    2.323703e+00
  1.226010e+01    2.280925e+00
  1.227597e+01    2.304591e+00
  1.229185e+01    2.293071e+00
  1.230773e+01    2.251922e+00
  1.232360e+01    2.266545e+00
  1.233948e+01    2.288928e+00
  1.235535e+01    2.308770e+00
  1.237123e+01    2.319581e+00
  1.238710e+01    2.310647e+00
  1.240298e+01    2.322449e+00
  1.241886e+01    2.296575e+00
  1.243473e+01    2.307110e+00
  1.245061e+01    2.306839e+00
  1.246648e+01    2.288273e+00
  1.248236e+01    2.273335e+00
  1.249823e+01    2.320734e+00
  1.251411e+01    2.345905e+00
  1.252998e+01    2.341581e+00
  1.254586e+01    2.353128e+00
  1.256174e+01    2.343357e+00
  1.257761e+01    2.353994e+00
  1.259349e+01    2.409144e+00
  1.260936e+01    2.417592e+00
  1.262524e+01    2.348694e+00
  1.264111e+01    2.363582e+00
  1.265699e+01    2.390498e+00
  1.267286e+01    2.425364e+00
  1.268874e+01    2.451252e+00
  1.270462e+01    2.468457e+00
  1.272049e+01    2.450164e+00
  1.273637e+01    2.488238e+00
  1.275224e+01    2.568183e+00
  1.276812e+01    2.580026e+00
  1.278399e+01    2.626159e+00
  1.279987e+01    2.639910e+00
  1.281574e+01    2.666267e+00
  1.283162e+01    2.719356e+00
  1.284750e+01    2.828228e+00
  1.286337e+01    2.880115e+00
  1.287925e+01    2.955540e+00
  1.289512e+01    3.110584e+00
  1.291100e+01    3.243720e+00
  1.292687e+01    3.475993e+00
  1.294275e+01    3.710456e+00
  1.295862e+01    4.024389e+00
  1.297450e+01    4.365531e+00
  1.299038e+01    4.804721e+00
  1.300625e+01    5.328596e+00
  1.302213e+01    6.078071e+00
  1.303800e+01    7.043411e+00
  1.305388e+01    8.175430e+00
  1.306975e+01    9.527575e+00
  1.308563e+01    1.089989e+01
  1.310150e+01    1.218594e+01
  1.311738e+01    1.335751e+01
  1.313326e+01    1.460465e+01
  1.314913e+01    1.566925e+01
  1.316501e+01    1.645288e+01
  1.318088e+01    1.691182e+01
  1.319676e+01    1.670962e+01
  1.321263e+01    1.558923e+01
  1.322851e+01    1.377585e+01
  1.324438e+01    1.162673e+01
  1.326026e+01    9.819643e+00
  1.327614e+01    8.237904e+00
  1.329201e+01    6.997061e+00
  1.330789e+01    6.069628e+00
  1.332376e+01    5.353920e+00
  1.333964e+01    4.744764e+00
  1.335551e+01    4.268358e+00
  1.337139e+01    3.987573e+00
  1.338727e+01    3.650334e+00
  1.340314e+01    3.417522e+00
  1.341902e+01    3.255213e+00
  1.343489e+01    3.107124e+00
  1.345077e+01    2.929992e+00
  1.346664e+01    2.840284e+00
  1.348252e+01    2.792643e+00
  1.349839e+01    2.653173e+00
  1.351427e+01    2.560224e+00
  1.353015e+01    2.520149e+00
  1.354602e+01    2.512833e+00
  1.356190e+01    2.457309e+00
  1.357777e+01    2.422180e+00
  1.359365e+01    2.371299e+00
  1.360952e+01    2.309698e+00
  1.362540e+01    2.301059e+00
  1.364127e+01    2.283444e+00
  1.365715e+01    2.260055e+00
  1.367303e+01    2.251615e+00
  1.368890e+01    2.191711e+00
  1.370478e+01    2.154994e+00
  1.372065e+01    2.192730e+00
  1.373653e+01    2.187533e+00
  1.375240e+01    2.185568e+00
  1.376828e+01    2.173334e+00
  1.378415e+01    2.168761e+00
  1.380003e+01    2.159655e+00
  1.381591e+01    2.165391e+00
  1.383178e+01    2.142783e+00
  1.384766e+01    2.161579e+00
  1.386353e+01    2.134280e+00
  1.387941e+01    2.074984e+00
  1.389528e+01    2.073685e+00
  1.391116e+01    2.079355e+00
  1.392703e+01    2.067327e+00
  1.394291e+01    2.128019e+00
  1.395879e+01    2.073857e+00
  1.397466e+01    2.007405e+00
  1.399054e+01    2.015012e+00
  1.400641e+01    2.044754e+00
  1.402229e+01    2.041002e+00
  1.403816e+01    2.066885e+00
  1.405404e+01    2.054404e+00
  1.406991e+01    2.061315e+00
  1.408579e+01    2.058726e+00
  1.410167e+01    2.018269e+00
  1.411754e+01    2.002711e+00
  1.413342e+01    2.012552e+00
  1.414929e+01    1.950732e+00
  1.416517e+01    1.966207e+00
  1.418104e+01    2.010440e+00
  1.419692e+01    2.005746e+00
  1.421279e+01    1.991269e+00
  1.422867e+01    1.972110e+00
  1.424455e+01    1.932772e+00
  1.426042e+01    1.966782e+00
  1.427630e+01    1.956686e+00
  1.429217e+01    1.949875e+00
  1.430805e+01    1.917648e+00
  1.432392e+01    1.923931e+00
  1.433980e+01    1.945318e+00
  1.435568e+01    1.953203e+00
  1.437155e+01    1.915914e+00
  1.438743e+01    1.924437e+00
  1.440330e+01    1.884177e+00
  1.441918e+01    1.928028e+00
  1.443505e+01    1.941856e+00
  1.445093e+01    1.934241e+00
  1.446680e+01    1.935203e+00
  1.448268e+01    1.888876e+00
  1.449856e+01    1.920205e+00
  1.451443e+01    1.933799e+00
  1.453031e+01    1.923925e+00
  1.454618e+01    1.933474e+00
  1.456206e+01    1.935566e+00
  1.457793e+01    1.878014e+00
  1.459381e+01    1.893602e+00
  1.460968e+01    1.886626e+00
  1.462556e+01    1.876026e+00
  1.464144e+01    1.889591e+00
  1.465731e+01    1.891215e+00
  1.467319e+01    1.908615e+00
  1.468906e+01    1.904327e+00
  1.470494e+01    1.912079e+00
  1.472081e+01    1.867563e+00
  1.473669e+01    1.872693e+00
  1.475256e+01    1.890914e+00
  1.476844e+01    1.913791e+00
  1.478432e+01    1.919420e+00
  1.480019e+01    1.932834e+00
  1.481607e+01    1.908316e+00
  1.483194e+01    1.925105e+00
  1.484782e+01    1.919173e+00
  1.486369e+01    1.899347e+00
  1.487957e+01    1.927043e+00
  1.489544e+01    1.971319e+00
  1.491132e+01    1.962575e+00
  1.492720e+01    1.984608e+00
  1.494307e+01    1.973754e+00
  1.495895e+01    1.993169e+00
  1.497482e+01    2.070229e+00
  1.499070e+01    2.119563e+00
  1.500657e+01    2.145935e+00
  1.502245e+01    2.181033e+00
  1.503832e+01    2.243968e+00
  1.505420e+01    2.376766e+00
  1.507008e+01    2.550950e+00
  1.508595e+01    2.679732e+00
  1.510183e+01    2.881343e+00
  1.511770e+01    3.138477e+00
  1.513358e+01    3.481639e+00
  1.514945e+01    3.779277e+00
  1.516533e+01    4.155893e+00
  1.518120e+01    4.568034e+00
  1.519708e+01    4.875435e+00
  1.521296e+01    5.147650e+00
  1.522883e+01    5.435513e+00
  1.524471e+01    5.619825e+00
  1.526058e+01    5.750793e+00
  1.527646e+01    5.827622e+00
  1.529233e+01    5.649186e+00
  1.530821e+01    5.299579e+00
  1.532409e+01    4.837113e+00
  1.533996e+01    4.298750e+00
  1.535584e+01    3.749011e+00
  1.537171e+01    3.320081e+00
  1.538759e+01    3.017406e+00
  1.540346e+01    2.777553e+00
  1.541934e+01    2.570339e+00
  1.543521e+01    2.398394e+00
  1.545109e+01    2.246239e+00
  1.546697e+01    2.140789e+00
  1.548284e+01    2.088682e+00
  1.549872e+01    2.052560e+00
  1.551459e+01    2.005936e+00
  1.553047e+01    1.964491e+00
  1.554634e+01    1.928676e+00
  1.556222e+01    1.884573e+00
  1.557809e+01    1.828129e+00
  1.559397e+01    1.808616e+00
  1.560985e+01    1.845100e+00
  1.562572e+01    1.824243e+00
  1.564160e+01    1.769907e+00
  1.565747e+01    1.735600e+00
  1.567335e+01    1.755420e+00
  1.568922e+01    1.733215e+00
  1.570510e+01    1.747245e+00
  1.572097e+01    1.705747e+00
  1.573685e+01    1.691513e+00
  1.575273e+01    1.670244e+00
  1.576860e+01    1.687062e+00
  1.578448e+01    1.711751e+00
  1.580035e+01    1.665401e+00
  1.581623e+01    1.667861e+00
  1.583210e+01    1.651842e+00
  1.584798e+01    1.665860e+00
  1.586385e+01    1.648700e+00
  1.587973e+01    1.619871e+00
  1.589561e+01    1.624110e+00
  1.591148e+01    1.655190e+00
  1.592736e+01    1.639339e+00
  1.594323e+01    1.632598e+00
  1.595911e+01    1.636541e+00
  1.597498e+01    1.633995e+00
  1.599086e+01    1.612548e+00
  1.600673e+01    1.631362e+00
  1.602261e+01    1.614726e+00
  1.603849e+01    1.630100e+00
  1.605436e+01    1.611133e+00
  1.607024e+01    1.604926e+00
  1.608611e+01    1.573732e+00
  1.610199e+01    1.550196e+00
  1.611786e+01    1.574343e+00
  1.613374e+01    1.542872e+00
  1.614961e+01    1.603317e+00
  1.616549e+01    1.596948e+00
  1.618137e+01    1.579010e+00
  1.619724e+01    1.583999e+00
  1.621312e+01    1.560616e+00
  1.622899e+01    1.567434e+00
  1.624487e+01    1.569147e+00
  1.626074e+01    1.570448e+00
  1.627662e+01    1.553517e+00
  1.629250e+01    1.546955e+00
  1.630837e+01    1.576669e+00
  1.632425e+01    1.545496e+00
  1.634012e+01    1.571998e+00
  1.635600e+01    1.556448e+00
  1.637187e+01    1.510193e+00
  1.638775e+01    1.539395e+00
  1.640362e+01    1.521092e+00
  1.641950e+01    1.502788e+00
  1.643538e+01    1.504145e+00
  1.645125e+01    1.511774e+00
  1.646713e+01    1.526103e+00
  1.648300e+01    1.528091e+00
  1.649888e+01    1.514915e+00
  1.651475e+01    1.508188e+00
  1.653063e+01    1.493953e+00
  1.654650e+01    1.486911e+00
  1.656238e+01    1.501041e+00
  1.657826e+01    1.503044e+00
  1.659413e+01    1.492116e+00
  1.661001e+01    1.492126e+00
  1.662588e+01    1.486454e+00
  1.664176e+01    1.464861e+00
  1.665763e+01    1.476466e+00
  1.667351e+01    1.465780e+00
  1.668938e+01    1.476318e+00
  1.670526e+01    1.468170e+00
  1.672114e+01    1.486822e+00
  1.673701e+01    1.498565e+00
  1.675289e+01    1.481596e+00
  1.676876e+01    1.460541e+00
  1.678464e+01    1.442312e+00
  1.680051e+01    1.476476e+00
  1.681639e+01    1.476153e+00
  1.683226e+01    1.427664e+00
  1.684814e+01    1.462578e+00
  1.686402e+01    1.455795e+00
  1.687989e+01    1.459201e+00
  1.689577e+01    1.469389e+00
  1.691164e+01    1.459694e+00
  1.692752e+01    1.422651e+00
  1.694339e+01    1.406002e+00
  1.695927e+01    1.406172e+00
  1.697514e+01    1.443690e+00
  1.699102e+01    1.458982e+00
  1.700690e+01    1.436785e+00
  1.702277e+01    1.442769e+00
  1.703865e+01    1.430114e+00
  1.705452e+01    1.427008e+00
  1.707040e+01    1.427748e+00
  1.708627e+01    1.434839e+00
  1.710215e+01    1.419767e+00
  1.711802e+01    1.414636e+00
  1.713390e+01    1.384564e+00
  1.714978e+01    1.385771e+00
  1.716565e+01    1.415452e+00
  1.718153e+01    1.414485e+00
  1.719740e+01    1.431251e+00
  1.721328e+01    1.387095e+00
  1.722915e+01    1.347687e+00
  1.724503e+01    1.381396e+00
  1.726091e+01    1.405640e+00
  1.727678e+01    1.391701e+00
  1.729266e+01    1.379563e+00
  1.730853e+01    1.386798e+00
  1.732441e+01    1.359201e+00
  1.734028e+01    1.379158e+00
  1.735616e+01    1.385152e+00
  1.737203e+01    1.386785e+00
  1.738791e+01    1.337991e+00
  1.740379e+01    1.339302e+00
  1.741966e+01    1.369686e+00
  1.743554e+01    1.330065e+00
  1.745141e+01    1.325990e+00
  1.746729e+01    1.373946e+00
  1.748316e+01    1.361232e+00
  1.749904e+01    1.347670e+00
  1.751491e+01    1.332614e+00
  1.753079e+01    1.354686e+00
  1.754667e+01    1.348641e+00
  1.756254e+01    1.340130e+00
  1.757842e+01    1.345457e+00
  1.759429e+01    1.351679e+00
  1.761017e+01    1.366221e+00
  1.762604e+01    1.382736e+00
  1.764192e+01    1.333417e+00
  1.765779e+01    1.318341e+00
  1.767367e+01    1.348615e+00
  1.768955e+01    1.342357e+00
  1.770542e+01    1.311564e+00
  1.772130e+01    1.310881e+00
  1.773717e+01    1.313890e+00
  1.775305e+01    1.329492e+00
  1.776892e+01    1.334221e+00
  1.778480e+01    1.317606e+00
  1.780067e+01    1.343938e+00
  1.781655e+01    1.313736e+00
  1.783243e+01    1.318814e+00
  1.784830e+01    1.298918e+00
  1.786418e+01    1.311899e+00
  1.788005e+01    1.340894e+00
  1.789593e+01    1.332115e+00
  1.791180e+01    1.311524e+00
  1.792768e+01    1.322055e+00
  1.794355e+01    1.278736e+00
  1.795943e+01    1.261066e+00
  1.797531e+01    1.318396e+00
  1.799118e+01    1.280819e+00
  1.800706e+01    1.258182e+00
  1.802293e+01    1.317455e+00
  1.803881e+01    1.261494e+00
  1.805468e+01    1.252382e+00
  1.807056e+01    1.292010e+00
  1.808643e+01    1.300963e+00
  1.810231e+01    1.315771e+00
  1.811819e+01    1.286118e+00
  1.813406e+01    1.267474e+00
  1.814994e+01    1.242102e+00
  1.816581e+01    1.284328e+00
  1.818169e+01    1.304054e+00
  1.819756e+01    1.290247e+00
  1.821344e+01    1.252597e+00
  1.822932e+01    1.244274e+00
  1.824519e+01    1.290706e+00
  1.826107e+01    1.307203e+00
  1.827694e+01    1.292478e+00
  1.829282e+01    1.299489e+00
  1.830869e+01    1.259284e+00
  1.832457e+01    1.258367e+00
  1.834044e+01    1.262971e+00
  1.835632e+01    1.254755e+00
  1.837220e+01    1.261009e+00
  1.838807e+01    1.245074e+00
  1.840395e+01    1.244736e+00
  1.841982e+01    1.253432e+00
  1.843570e+01    1.260853e+00
  1.845157e+01    1.251238e+00
  1.846745e+01    1.236740e+00
  1.848332e+01    1.265720e+00
  1.849920e+01    1.268219e+00
  1.851508e+01    1.230502e+00
  1.853095e+01    1.223356e+00
  1.854683e+01    1.246081e+00
  1.856270e+01    1.251136e+00
  1.857858e+01    1.208397e+00
  1.859445e+01    1.225558e+00
  1.861033e+01    1.210650e+00
  1.862620e+01    1.244189e+00
  1.864208e+01    1.227557e+00
  1.865796e+01    1.228352e+00
  1.867383e+01    1.242355e+00
  1.868971e+01    1.220256e+00
  1.870558e+01    1.209223e+00
  1.872146e+01    1.206323e+00
  1.873733e+01    1.211139e+00
  1.875321e+01    1.216255e+00
  1.876908e+01    1.179182e+00
  1.878496e+01    1.202176e+00
  1.880084e+01    1.207083e+00
  1.881671e+01    1.214659e+00
  1.883259e+01    1.236933e+00
  1.884846e+01    1.210518e+00
  1.886434e+01    1.195040e+00
  1.888021e+01    1.199546e+00
  1.889609e+01    1.218953e+00
  1.891196e+01    1.218603e+00
  1.892784e+01    1.192997e+00
  1.894372e+01    1.203089e+00
  1.895959e+01    1.193451e+00
  1.897547e+01    1.179534e+00
  1.899134e+01    1.183699e+00
  1.900722e+01    1.187219e+00
  1.902309e+01    1.189350e+00
  1.903897e+01    1.197827e+00
  1.905484e+01    1.187970e+00
  1.907072e+01    1.190674e+00
  1.908660e+01    1.160880e+00
  1.910247e+01    1.166926e+00
  1.911835e+01    1.189336e+00
  1.913422e+01    1.197184e+00
  1.915010e+01    1.178822e+00
  1.916597e+01    1.169416e+00
  1.918185e+01    1.176413e+00
  1.919773e+01    1.195673e+00
  1.921360e+01    1.197567e+00
  1.922948e+01    1.186326e+00
  1.924535e+01    1.172405e+00
  1.926123e+01    1.175019e+00
  1.927710e+01    1.183160e+00
  1.929298e+01    1.184543e+00
  1.930885e+01    1.187280e+00
  1.932473e+01    1.170977e+00
  1.934061e+01    1.175966e+00
  1.935648e+01    1.188928e+00
  1.937236e+01    1.164234e+00
  1.938823e+01    1.174523e+00
  1.940411e+01    1.160386e+00
  1.941998e+01    1.142545e+00
  1.943586e+01    1.145250e+00
  1.945173e+01    1.138457e+00
  1.946761e+01    1.152765e+00
  1.948349e+01    1.159754e+00
  1.949936e+01    1.146509e+00
  1.951524e+01    1.133060e+00
  1.953111e+01    1.151505e+00
  1.954699e+01    1.140337e+00
  1.956286e+01    1.147244e+00
  1.957874e+01    1.153409e+00
  1.959461e+01    1.127453e+00
  1.961049e+01    1.144224e+00
  1.962637e+01    1.131700e+00
  1.964224e+01    1.147634e+00
  1.965812e+01    1.135881e+00
  1.967399e+01    1.122910e+00
  1.968987e+01    1.123546e+00
  1.970574e+01    1.140711e+00
  1.972162e+01    1.129795e+00
  1.973749e+01    1.141623e+00
  1.975337e+01    1.146931e+00
  1.976925e+01    1.118219e+00
  1.978512e+01    1.122725e+00
  1.980100e+01    1.129721e+00
  1.981687e+01    1.128895e+00
  1.983275e+01    1.150410e+00
  1.984862e+01    1.147709e+00
  1.986450e+01    1.126590e+00
  1.988037e+01    1.113763e+00
  1.989625e+01    1.115009e+00
  1.991213e+01    1.125570e+00
  1.992800e+01    1.114920e+00
  1.994388e+01    1.103555e+00
  1.995975e+01    1.109305e+00
  1.997563e+01    1.114555e+00
  1.999150e+01    1.104210e+00
  2.000738e+01    1.130158e+00
  2.002325e+01    1.122295e+00
  2.003913e+01    1.127199e+00
  2.005501e+01    1.110735e+00
  2.007088e+01    1.122984e+00
  2.008676e+01    1.119062e+00
  2.010263e+01    1.118573e+00
  2.011851e+01    1.107717e+00
  2.013438e+01    1.103660e+00
  2.015026e+01    1.093457e+00
  2.016614e+01    1.090844e+00
  2.018201e+01    1.110251e+00
  2.019789e+01    1.096875e+00
  2.021376e+01    1.089034e+00
  2.022964e+01    1.094319e+00
  2.024551e+01    1.106961e+00
  2.026139e+01    1.095854e+00
  2.027726e+01    1.097290e+00
  2.029314e+01    1.107594e+00
  2.030902e+01    1.096839e+00
  2.032489e+01    1.084606e+00
  2.034077e+01    1.095683e+00
  2.035664e+01    1.094310e+00
  2.037252e+01    1.077343e+00
  2.038839e+01    1.068880e+00
  2.040427e+01    1.104027e+00
  2.042014e+01    1.102836e+00
  2.043602e+01    1.075464e+00
  2.045190e+01    1.103796e+00
  2.046777e+01    1.081749e+00
  2.048365e+01    1.069763e+00
  2.049952e+01    1.063137e+00
  2.051540e+01    1.054965e+00
  2.053127e+01    1.051712e+00
  2.054715e+01    1.080253e+00
  2.056302e+01    1.079543e+00
  2.057890e+01    1.058360e+00
  2.059478e+01    1.052878e+00
  2.061065e+01    1.080922e+00
  2.062653e+01    1.081801e+00
  2.064240e+01    1.088647e+00
  2.065828e+01    1.081811e+00
  2.067415e+01    1.077267e+00
  2.069003e+01    1.076765e+00
  2.070590e+01    1.059943e+00
  2.072178e+01    1.054145e+00
  2.073766e+01    1.080461e+00
  2.075353e+01    1.061987e+00
  2.076941e+01    1.053445e+00
  2.078528e+01    1.048530e+00
  2.080116e+01    1.060943e+00
  2.081703e+01    1.060398e+00
  2.083291e+01    1.056371e+00
  2.084878e+01    1.059312e+00
  2.086466e+01    1.041551e+00
  2.088054e+01    1.058424e+00
  2.089641e+01    1.059082e+00
  2.091229e+01    1.051487e+00
  2.092816e+01    1.057562e+00
  2.094404e+01    1.061116e+00
  2.095991e+01    1.096349e+00
  2.097579e+01    1.065310e+00
  2.099166e+01    1.064997e+00
  2.100754e+01    1.097618e+00
  2.102342e+01    1.087853e+00
  2.103929e+01    1.063938e+00
  2.105517e+01    1.070490e+00
  2.107104e+01    1.099353e+00
  2.108692e+01    1.081536e+00
  2.110279e+01    1.040720e+00
  2.111867e+01    1.047348e+00
  2.113455e+01    1.063619e+00
  2.115042e+01    1.065329e+00
  2.116630e+01    1.059535e+00
  2.118217e+01    1.096190e+00
  2.119805e+01    1.086546e+00
  2.121392e+01    1.086731e+00
  2.122980e+01    1.085664e+00
  2.124567e+01    1.098462e+00
  2.126155e+01    1.100174e+00
  2.127743e+01    1.114324e+00
  2.129330e+01    1.121316e+00
  2.130918e+01    1.099261e+00
  2.132505e+01    1.111401e+00
  2.134093e+01    1.138415e+00
  2.135680e+01    1.129296e+00
  2.137268e+01    1.139958e+00
  2.138855e+01    1.151367e+00
  2.140443e+01    1.152916e+00
  2.142031e+01    1.208929e+00
  2.143618e+01    1.212308e+00
  2.145206e+01    1.221108e+00
  2.146793e+01    1.234622e+00
  2.148381e+01    1.240654e+00
  2.149968e+01    1.262279e+00
  2.151556e+01    1.307446e+00
  2.153143e+01    1.341583e+00
  2.154731e+01    1.365493e+00
  2.156319e+01    1.421321e+00
  2.157906e+01    1.474405e+00
  2.159494e+01    1.529365e+00
  2.161081e+01    1.604555e+00
  2.162669e+01    1.671955e+00
  2.164256e+01    1.793179e+00
  2.165844e+01    1.919499e+00
  2.167431e+01    2.084397e+00
  2.169019e+01    2.307930e+00
  2.170607e+01    2.511771e+00
  2.172194e+01    2.826221e+00
  2.173782e+01    3.211259e+00
  2.175369e+01    3.698966e+00
  2.176957e+01    4.240336e+00
  2.178544e+01    4.829291e+00
  2.180132e+01    5.494726e+00
  2.181719e+01    6.164572e+00
  2.183307e+01    6.862888e+00
  2.184895e+01    7.547302e+00
  2.186482e+01    8.227093e+00
  2.188070e+01    8.827645e+00
  2.189657e+01    9.260788e+00
  2.191245e+01    9.270396e+00
  2.192832e+01    8.911648e+00
  2.194420e+01    8.155162e+00
  2.196007e+01    7.285585e+00
  2.197595e+01    6.319584e+00
  2.199183e+01    5.270998e+00
  2.200770e+01    4.501289e+00
  2.202358e+01    3.883283e+00
  2.203945e+01    3.384281e+00
  2.205533e+01    2.926542e+00
  2.207120e+01    2.584138e+00
  2.208708e+01    2.350200e+00
  2.210296e+01    2.127025e+00
  2.211883e+01    1.962555e+00
  2.213471e+01    1.807812e+00
  2.215058e+01    1.664482e+00
  2.216646e+01    1.575224e+00
  2.218233e+01    1.525171e+00
  2.219821e+01    1.432375e+00
  2.221408e+01    1.368826e+00
  2.222996e+01    1.341140e+00
  2.224584e+01    1.286606e+00
  2.226171e+01    1.249331e+00
  2.227759e+01    1.207355e+00
  2.229346e+01    1.209881e+00
  2.230934e+01    1.171268e+00
  2.232521e+01    1.166326e+00
  2.234109e+01    1.141856e+00
  2.235696e+01    1.122161e+00
  2.237284e+01    1.126087e+00
  2.238872e+01    1.094179e+00
  2.240459e+01    1.071987e+00
  2.242047e+01    1.053241e+00
  2.243634e+01    1.067255e+00
  2.245222e+01    1.051979e+00
  2.246809e+01    1.032931e+00
  2.248397e+01    1.031756e+00
  2.249984e+01    1.001437e+00
  2.251572e+01    1.004722e+00
  2.253160e+01    1.001568e+00
  2.254747e+01    9.884050e-01
  2.256335e+01    9.841827e-01
  2.257922e+01    9.945633e-01
  2.259510e+01    1.010582e+00
  2.261097e+01    9.963120e-01
  2.262685e+01    9.773304e-01
  2.264272e+01    9.787073e-01
  2.265860e+01    1.009151e+00
  2.267448e+01    9.903553e-01
  2.269035e+01    9.458972e-01
  2.270623e+01    9.276097e-01
  2.272210e+01    9.458053e-01
  2.273798e+01    9.496014e-01
  2.275385e+01    9.414582e-01
  2.276973e+01    9.325789e-01
  2.278560e+01    9.362168e-01
  2.280148e+01    9.533396e-01
  2.281736e+01    9.403334e-01
  2.283323e+01    9.459126e-01
  2.284911e+01    9.189792e-01
  2.286498e+01    9.324295e-01
  2.288086e+01    9.582858e-01
  2.289673e+01    9.141839e-01
  2.291261e+01    9.078034e-01
  2.292848e+01    9.098268e-01
  2.294436e+01    9.168702e-01
  2.296024e+01    9.184660e-01
  2.297611e+01    9.051356e-01
  2.299199e+01    8.916681e-01
  2.300786e+01    8.903651e-01
  2.302374e+01    8.817713e-01
  2.303961e+01    8.706403e-01
  2.305549e+01    8.882506e-01
  2.307137e+01    8.904731e-01
  2.308724e+01    8.796938e-01
  2.310312e+01    8.957667e-01
  2.311899e+01    8.881302e-01
  2.313487e+01    8.690059e-01
  2.315074e+01    8.642600e-01
  2.316662e+01    8.675761e-01
  2.318249e+01    8.778685e-01
  2.319837e+01    8.705453e-01
  2.321425e+01    8.827171e-01
  2.323012e+01    8.750355e-01
  2.324600e+01    8.650848e-01
  2.326187e+01    8.501248e-01
  2.327775e+01    8.566531e-01
  2.329362e+01    8.573315e-01
  2.330950e+01    8.355377e-01
  2.332537e+01    8.483698e-01
  2.334125e+01    8.722427e-01
  2.335713e+01    8.746980e-01
  2.337300e+01    8.549939e-01
  2.338888e+01    8.405327e-01
  2.340475e+01    8.541804e-01
  2.342063e+01    8.419026e-01
  2.343650e+01    8.327479e-01
  2.345238e+01    8.258796e-01
  2.346825e+01    8.316059e-01
  2.348413e+01    8.297344e-01
  2.350001e+01    8.214789e-01
  2.351588e+01    8.262687e-01
  2.353176e+01    8.424992e-01
  2.354763e+01    8.350121e-01
  2.356351e+01    8.280959e-01
  2.357938e+01    8.361400e-01
  2.359526e+01    8.419415e-01
  2.361113e+01    8.530061e-01
  2.362701e+01    8.443868e-01
  2.364289e+01    8.390804e-01
  2.365876e+01    8.229903e-01
  2.367464e+01    8.379273e-01
  2.369051e+01    8.198749e-01
  2.370639e+01    8.042107e-01
  2.372226e+01    8.054835e-01
  2.373814e+01    7.979057e-01
  2.375401e+01    8.157939e-01
  2.376989e+01    8.244084e-01
  2.378577e+01    8.209445e-01
  2.380164e+01    8.206461e-01
  2.381752e+01    7.976597e-01
  2.383339e+01    8.082112e-01
  2.384927e+01    8.111011e-01
  2.386514e+01    7.847183e-01
  2.388102e+01    8.053349e-01
  2.389689e+01    8.300641e-01
  2.391277e+01    8.111421e-01
  2.392865e+01    7.934359e-01
  2.394452e+01    7.906947e-01
  2.396040e+01    7.950246e-01
  2.397627e+01    7.943174e-01
  2.399215e+01    7.836803e-01
  2.400802e+01    7.827668e-01
  2.402390e+01    7.785414e-01
  2.403978e+01    7.874880e-01
  2.405565e+01    7.933697e-01
  2.407153e+01    7.872059e-01
  2.408740e+01    7.671453e-01
  2.410328e+01    7.831754e-01
  2.411915e+01    7.706753e-01
  2.413503e+01    7.543889e-01
  2.415090e+01    7.701384e-01
  2.416678e+01    7.603652e-01
  2.418266e+01    7.565596e-01
  2.419853e+01    7.579612e-01
  2.421441e+01    7.791270e-01
  2.423028e+01    7.753751e-01
  2.424616e+01    7.809945e-01
  2.426203e+01    7.868489e-01
  2.427791e+01    7.849554e-01
  2.429378e+01    7.765719e-01
  2.430966e+01    7.767001e-01
  2.432554e+01    7.672471e-01
  2.434141e+01    7.914605e-01
  2.435729e+01    8.002900e-01
  2.437316e+01    7.932800e-01
  2.438904e+01    7.831708e-01
  2.440491e+01    7.967475e-01
  2.442079e+01    7.930863e-01
  2.443666e+01    7.843052e-01
  2.445254e+01    7.803497e-01
  2.446842e+01    7.971569e-01
  2.448429e+01    7.877707e-01
  2.450017e+01    7.858887e-01
  2.451604e+01    7.971883e-01
  2.453192e+01    7.906257e-01
  2.454779e+01    7.985457e-01
  2.456367e+01    7.898226e-01
  2.457954e+01    7.734058e-01
  2.459542e+01    7.788571e-01
  2.461130e+01    7.851754e-01
  2.462717e+01    8.004950e-01
  2.464305e+01    7.988388e-01
  2.465892e+01    7.763312e-01
  2.467480e+01    7.762430e-01
  2.469067e+01    7.930914e-01
  2.470655e+01    7.868384e-01
  2.472242e+01    7.842238e-01
  2.473830e+01    7.574112e-01
  2.475418e+01    7.627098e-01
  2.477005e+01    7.833393e-01
  2.478593e+01    7.848315e-01
  2.480180e+01    7.618569e-01
  2.481768e+01    7.755396e-01
  2.483355e+01    7.988148e-01
  2.484943e+01    8.001031e-01
  2.486530e+01    7.886160e-01
  2.488118e+01    7.958221e-01
  2.489706e+01    7.939151e-01
  2.491293e+01    7.961669e-01
  2.492881e+01    7.771645e-01
  2.494468e+01    7.854703e-01
  2.496056e+01    8.081009e-01
  2.497643e+01    8.006668e-01
  2.499231e+01    7.903672e-01
  2.500819e+01    7.947269e-01
  2.502406e+01    7.824373e-01
  2.503994e+01    7.857016e-01
  2.505581e+01    7.945136e-01
  2.507169e+01    7.970857e-01
  2.508756e+01    8.206033e-01
  2.510344e+01    8.185689e-01
  2.511931e+01    8.125328e-01
  2.513519e+01    8.209056e-01
  2.515107e+01    8.289366e-01
  2.516694e+01    8.299937e-01
  2.518282e+01    8.284152e-01
  2.519869e+01    8.269973e-01
  2.521457e+01    8.304150e-01
  2.523044e+01    8.401331e-01
  2.524632e+01    8.482744e-01
  2.526219e+01    8.252179e-01
  2.527807e+01    8.407624e-01
  2.529395e+01    8.902407e-01
  2.530982e+01    8.736813e-01
  2.532570e+01    8.580138e-01
  2.534157e+01    8.668438e-01
  2.535745e+01    8.766414e-01
  2.537332e+01    8.843884e-01
  2.538920e+01    8.800584e-01
  2.540507e+01    8.806130e-01
  2.542095e+01    9.010952e-01
  2.543683e+01    9.098111e-01
  2.545270e+01    9.377906e-01
  2.546858e+01    9.340006e-01
  2.548445e+01    9.502965e-01
  2.550033e+01    9.547412e-01
  2.551620e+01    9.887734e-01
  2.553208e+01    1.005552e+00
  2.554795e+01    9.984347e-01
  2.556383e+01    1.045496e+00
  2.557971e+01    1.067379e+00
  2.559558e+01    1.077830e+00
  2.561146e+01    1.117334e+00
  2.562733e+01    1.191934e+00
  2.564321e+01    1.232341e+00
  2.565908e+01    1.282505e+00
  2.567496e+01    1.322666e+00
  2.569083e+01    1.393668e+00
  2.570671e+01    1.497544e+00
  2.572259e+01    1.581216e+00
  2.573846e+01    1.721182e+00
  2.575434e+01    1.868917e+00
  2.577021e+01    2.067391e+00
  2.578609e+01    2.262717e+00
  2.580196e+01    2.571034e+00
  2.581784e+01    2.937236e+00
  2.583371e+01    3.410848e+00
  2.584959e+01    3.849946e+00
  2.586547e+01    4.437028e+00
  2.588134e+01    5.030954e+00
  2.589722e+01    5.635404e+00
  2.591309e+01    6.227057e+00
  2.592897e+01    6.804729e+00
  2.594484e+01    7.293326e+00
  2.596072e+01    7.600181e+00
  2.597660e+01    7.631916e+00
  2.599247e+01    7.375777e+00
  2.600835e+01    6.802103e+00
  2.602422e+01    6.087343e+00
  2.604010e+01    5.343092e+00
  2.605597e+01    4.616559e+00
  2.607185e+01    3.955570e+00
  2.608772e+01    3.350186e+00
  2.610360e+01    2.879241e+00
  2.611948e+01    2.533523e+00
  2.613535e+01    2.258919e+00
  2.615123e+01    2.006128e+00
  2.616710e+01    1.863968e+00
  2.618298e+01    1.729276e+00
  2.619885e+01    1.579621e+00
  2.621473e+01    1.478049e+00
  2.623060e+01    1.417152e+00
  2.624648e+01    1.322276e+00
  2.626236e+01    1.257846e+00
  2.627823e+01    1.201578e+00
  2.629411e+01    1.147212e+00
  2.630998e+01    1.132476e+00
  2.632586e+01    1.097070e+00
  2.634173e+01    1.073397e+00
  2.635761e+01    1.043028e+00
  2.637348e+01    1.039158e+00
  2.638936e+01    1.012863e+00
  2.640524e+01    9.897081e-01
  2.642111e+01    9.484203e-01
  2.643699e+01    9.251587e-01
  2.645286e+01    9.416760e-01
  2.646874e+01    9.295619e-01
  2.648461e+01    9.251350e-01
  2.650049e+01    9.270555e-01
  2.651636e+01    9.189679e-01
  2.653224e+01    9.094694e-01
  2.654812e+01    9.021991e-01
  2.656399e+01    9.077795e-01
  2.657987e+01    8.947088e-01
  2.659574e+01    8.789765e-01
  2.661162e+01    8.823977e-01
  2.662749e+01    8.930767e-01
  2.664337e+01    9.048120e-01
  2.665924e+01    9.008546e-01
  2.667512e+01    9.140152e-01
  2.669100e+01    8.781669e-01
  2.670687e+01    8.876377e-01
  2.672275e+01    8.900174e-01
  2.673862e+01    8.815495e-01
  2.675450e+01    8.654022e-01
  2.677037e+01    8.713347e-01
  2.678625e+01    8.657998e-01
  2.680212e+01    8.907427e-01
  2.681800e+01    8.994566e-01
  2.683388e+01    8.968387e-01
  2.684975e+01    8.964983e-01
  2.686563e+01    9.085788e-01
  2.688150e+01    9.106547e-01
  2.689738e+01    9.201064e-01
  2.691325e+01    9.163723e-01
  2.692913e+01    9.145047e-01
  2.694501e+01    9.551959e-01
  2.696088e+01    9.520914e-01
  2.697676e+01    9.828839e-01
  2.699263e+01    1.007599e+00
  2.700851e+01    1.011582e+00
  2.702438e+01    1.044897e+00
  2.704026e+01    1.101143e+00
  2.705613e+01    1.161574e+00
  2.707201e+01    1.203070e+00
  2.708789e+01    1.272316e+00
  2.710376e+01    1.366301e+00
  2.711964e+01    1.478724e+00
  2.713551e+01    1.624645e+00
  2.715139e+01    1.762419e+00
  2.716726e+01    1.889982e+00
  2.718314e+01    2.008373e+00
  2.719901e+01    2.161740e+00
  2.721489e+01    2.224131e+00
  2.723077e+01    2.254040e+00
  2.724664e+01    2.201320e+00
  2.726252e+01    2.125783e+00
  2.727839e+01    2.006358e+00
  2.729427e+01    1.846779e+00
  2.731014e+01    1.691120e+00
  2.732602e+01    1.531066e+00
  2.734189e+01    1.401752e+00
  2.735777e+01    1.283678e+00
  2.737365e+01    1.207157e+00
  2.738952e+01    1.149380e+00
  2.740540e+01    1.084029e+00
  2.742127e+01    1.054402e+00
  2.743715e+01    1.012269e+00
  2.745302e+01    9.724075e-01
  2.746890e+01    9.575577e-01
  2.748477e+01    9.366853e-01
  2.750065e+01    9.164074e-01
  2.751653e+01    9.062673e-01
  2.753240e+01    8.811927e-01
  2.754828e+01    8.739459e-01
  2.756415e+01    8.591657e-01
  2.758003e+01    8.531924e-01
  2.759590e+01    8.405456e-01
  2.761178e+01    8.497756e-01
  2.762765e+01    8.244303e-01
  2.764353e+01    8.149006e-01
  2.765941e+01    8.267687e-01
  2.767528e+01    8.102144e-01
  2.769116e+01    8.252362e-01
  2.770703e+01    8.078336e-01
  2.772291e+01    8.053290e-01
  2.773878e+01    8.016576e-01
  2.775466e+01    8.113847e-01
  2.777054e+01    8.212084e-01
  2.778641e+01    8.210440e-01
  2.780229e+01    8.148655e-01
  2.781816e+01    8.035272e-01
  2.783404e+01    7.899669e-01
  2.784991e+01    8.007625e-01
  2.786579e+01    7.787983e-01
  2.788166e+01    7.897059e-01
  2.789754e+01    8.118681e-01
  2.791342e+01    8.085065e-01
  2.792929e+01    7.797377e-01
  2.794517e+01    7.935509e-01
  2.796104e+01    7.828164e-01
  2.797692e+01    7.728663e-01
  2.799279e+01    7.798910e-01
  2.800867e+01    7.847918e-01
  2.802454e+01    8.021120e-01
  2.804042e+01    7.880481e-01
  2.805630e+01    7.790922e-01
  2.807217e+01    7.780563e-01
  2.808805e+01    7.730942e-01
  2.810392e+01    7.761869e-01
  2.811980e+01    7.761962e-01
  2.813567e+01    7.737444e-01
  2.815155e+01    7.675189e-01
  2.816742e+01    7.869988e-01
  2.818330e+01    7.719950e-01
  2.819918e+01    7.786305e-01
  2.821505e+01    7.634119e-01
  2.823093e+01    7.340400e-01
  2.824680e+01    7.536765e-01
  2.826268e+01    7.332628e-01
  2.827855e+01    7.516195e-01
  2.829443e+01    7.959802e-01
  2.831030e+01    7.835315e-01
  2.832618e+01    7.725188e-01
  2.834206e+01    7.707002e-01
  2.835793e+01    7.665932e-01
  2.837381e+01    7.785224e-01
  2.838968e+01    7.572825e-01
  2.840556e+01    7.569770e-01
  2.842143e+01    7.520849e-01
  2.843731e+01    7.570366e-01
  2.845318e+01    7.606093e-01
  2.846906e+01    7.449285e-01
  2.848494e+01    7.353861e-01
  2.850081e+01    7.250836e-01
  2.851669e+01    7.515381e-01
  2.853256e+01    7.589232e-01
  2.854844e+01    7.491722e-01
  2.856431e+01    7.554547e-01
  2.858019e+01    7.318280e-01
  2.859606e+01    7.346725e-01
  2.861194e+01    7.312757e-01
  2.862782e+01    7.506257e-01
  2.864369e+01    7.499312e-01
  2.865957e+01    7.541354e-01
  2.867544e+01    7.270274e-01
  2.869132e+01    7.519684e-01
  2.870719e+01    7.315457e-01
  2.872307e+01    7.412250e-01
  2.873895e+01    7.605147e-01
  2.875482e+01    7.353211e-01
  2.877070e+01    7.323409e-01
  2.878657e+01    7.295079e-01
  2.880245e+01    7.478291e-01
  2.881832e+01    7.525545e-01
  2.883420e+01    7.534248e-01
  2.885007e+01    7.463922e-01
  2.886595e+01    7.361848e-01
  2.888183e+01    7.369135e-01
  2.889770e+01    7.361874e-01
  2.891358e+01    7.590989e-01
  2.892945e+01    7.430321e-01
  2.894533e+01    7.339307e-01
  2.896120e+01    7.281908e-01
  2.897708e+01    7.116587e-01
  2.899295e+01    7.321876e-01
  2.900883e+01    7.382001e-01
  2.902471e+01    7.373481e-01
  2.904058e+01    7.547904e-01
  2.905646e+01    7.464801e-01
  2.907233e+01    7.159289e-01
  2.908821e+01    7.145587e-01
  2.910408e+01    7.280595e-01
  2.911996e+01    7.316651e-01
  2.913583e+01    7.211977e-01
  2.915171e+01    7.325471e-01
  2.916759e+01    7.451959e-01
  2.918346e+01    7.361116e-01
  2.919934e+01    7.330391e-01
  2.921521e+01    7.251865e-01
  2.923109e+01    7.219939e-01
  2.924696e+01    7.045528e-01
  2.926284e+01    6.921532e-01
  2.927871e+01    6.984522e-01
  2.929459e+01    7.345533e-01
  2.931047e+01    7.498229e-01
  2.932634e+01    7.460862e-01
  2.934222e+01    7.260993e-01
  2.935809e+01    7.289947e-01
  2.937397e+01    7.235531e-01
  2.938984e+01    7.427592e-01
  2.940572e+01    7.279310e-01
  2.942159e+01    7.132788e-01
  2.943747e+01    7.285173e-01
  2.945335e+01    7.224217e-01
  2.946922e+01    7.108368e-01
  2.948510e+01    7.086329e-01
  2.950097e+01    7.251738e-01
  2.951685e+01    7.069733e-01
  2.953272e+01    6.855202e-01
  2.954860e+01    7.150735e-01
  2.956447e+01    7.129025e-01
  2.958035e+01    7.069539e-01
  2.959623e+01    7.283297e-01
  2.961210e+01    7.233350e-01
  2.962798e+01    7.051175e-01
  2.964385e+01    7.211756e-01
  2.965973e+01    7.381748e-01
  2.967560e+01    7.318082e-01
  2.969148e+01    7.257597e-01
  2.970736e+01    7.102745e-01
  2.972323e+01    7.112136e-01
  2.973911e+01    7.235274e-01
  2.975498e+01    7.056913e-01
  2.977086e+01    6.994460e-01
  2.978673e+01    7.070913e-01
  2.980261e+01    7.154971e-01
  2.981848e+01    7.342150e-01
  2.983436e+01    7.392013e-01
  2.985024e+01    7.134153e-01
  2.986611e+01    7.122909e-01
  2.988199e+01    7.260377e-01
  2.989786e+01    7.218977e-01
  2.991374e+01    6.987454e-01
  2.992961e+01    7.101088e-01
  2.994549e+01    7.067481e-01
  2.996136e+01    7.130427e-01
  2.997724e+01    7.088685e-01
  2.999312e+01    7.092296e-01
  3.000899e+01    7.342007e-01
  3.002487e+01    7.535380e-01
  3.004074e+01    7.382324e-01
  3.005662e+01    7.299694e-01
  3.007249e+01    7.448738e-01
  3.008837e+01    7.256479e-01
  3.010424e+01    7.105396e-01
  3.012012e+01    7.251679e-01
  3.013600e+01    7.048081e-01
  3.015187e+01    7.121618e-01
  3.016775e+01    7.112770e-01
  3.018362e+01    7.173369e-01
  3.019950e+01    7.188519e-01
  3.021537e+01    7.112423e-01
  3.023125e+01    7.019441e-01
  3.024712e+01    6.859493e-01
  3.026300e+01    6.985249e-01
  3.027888e+01    7.250783e-01
  3.029475e+01    7.004921e-01
  3.031063e+01    6.860039e-01
  3.032650e+01    6.971503e-01
  3.034238e+01    6.992625e-01
  3.035825e+01    7.030731e-01
  3.037413e+01    7.205656e-01
  3.039000e+01    7.295260e-01
  3.040588e+01    7.410775e-01
  3.042176e+01    7.250949e-01
  3.043763e+01    7.167243e-01
  3.045351e+01    7.077023e-01
  3.046938e+01    7.007781e-01
  3.048526e+01    7.223563e-01
  3.050113e+01    7.159851e-01
  3.051701e+01    7.052797e-01
  3.053288e+01    6.920083e-01
  3.054876e+01    7.004796e-01
  3.056464e+01    7.166814e-01
  3.058051e+01    7.263311e-01
  3.059639e+01    7.314038e-01
  3.061226e+01    7.245843e-01
  3.062814e+01    7.056428e-01
  3.064401e+01    7.040329e-01
  3.065989e+01    7.249874e-01
  3.067577e+01    7.112953e-01
  3.069164e+01    7.045782e-01
  3.070752e+01    7.131225e-01
  3.072339e+01    6.972727e-01
  3.073927e+01    6.819766e-01
  3.075514e+01    6.991337e-01
  3.077102e+01    6.992889e-01
  3.078689e+01    6.946266e-01
  3.080277e+01    6.952560e-01
  3.081865e+01    6.996764e-01
  3.083452e+01    6.936374e-01
  3.085040e+01    7.000654e-01
  3.086627e+01    6.989883e-01
  3.088215e+01    6.961252e-01
  3.089802e+01    7.152017e-01
  3.091390e+01    7.322472e-01
  3.092977e+01    7.168826e-01
  3.094565e+01    6.999358e-01
  3.096153e+01    7.000873e-01
  3.097740e+01    7.041364e-01
  3.099328e+01    7.154319e-01
  3.100915e+01    7.072035e-01
  3.102503e+01    7.013996e-01
  3.104090e+01    7.054712e-01
  3.105678e+01    7.150127e-01
  3.107265e+01    7.183606e-01
  3.108853e+01    7.048190e-01
  3.110441e+01    6.991296e-01
  3.112028e+01    7.485964e-01
  3.113616e+01    7.408872e-01
  3.115203e+01    7.029489e-01
  3.116791e+01    7.076142e-01
  3.118378e+01    6.982976e-01
  3.119966e+01    7.006361e-01
  3.121553e+01    7.076458e-01
  3.123141e+01    6.990932e-01
  3.124729e+01    7.003930e-01
  3.126316e+01    7.181550e-01
  3.127904e+01    7.448219e-01
  3.129491e+01    7.403193e-01
  3.131079e+01    7.395599e-01
  3.132666e+01    7.295877e-01
  3.134254e+01    7.325965e-01
  3.135841e+01    7.263824e-01
  3.137429e+01    7.066397e-01
  3.139017e+01    7.274250e-01
  3.140604e+01    7.262397e-01
  3.142192e+01    7.452024e-01
  3.143779e+01    7.693496e-01
  3.145367e+01    7.591553e-01
  3.146954e+01    7.492956e-01
  3.148542e+01    7.528895e-01
  3.150129e+01    7.497060e-01
  3.151717e+01    7.364973e-01
  3.153305e+01    7.534941e-01
  3.154892e+01    7.685388e-01
  3.156480e+01    8.037463e-01
  3.158067e+01    8.107442e-01
  3.159655e+01    8.043223e-01
  3.161242e+01    8.155101e-01
  3.162830e+01    8.019676e-01
  3.164418e+01    8.393978e-01
  3.166005e+01    8.699437e-01
  3.167593e+01    8.738723e-01
  3.169180e+01    9.426167e-01
  3.170768e+01    9.692489e-01
  3.172355e+01    1.005955e+00
  3.173943e+01    1.057533e+00
  3.175530e+01    1.095542e+00
  3.177118e+01    1.161932e+00
  3.178706e+01    1.260234e+00
  3.180293e+01    1.365688e+00
  3.181881e+01    1.484503e+00
  3.183468e+01    1.620480e+00
  3.185056e+01    1.763832e+00
  3.186643e+01    1.915529e+00
  3.188231e+01    2.042586e+00
  3.189818e+01    2.175906e+00
  3.191406e+01    2.241295e+00
  3.192994e+01    2.193548e+00
  3.194581e+01    2.117400e+00
  3.196169e+01    2.007094e+00
  3.197756e+01    1.859828e+00
  3.199344e+01    1.708900e+00
  3.200931e+01    1.570264e+00
  3.202519e+01    1.431119e+00
  3.204106e+01    1.317569e+00
  3.205694e+01    1.193811e+00
  3.207282e+01    1.129642e+00
  3.208869e+01    1.065942e+00
  3.210457e+01    9.850016e-01
  3.212044e+01    9.357784e-01
  3.213632e+01    9.136904e-01
  3.215219e+01    8.664731e-01
  3.216807e+01    8.561144e-01
  3.218394e+01    8.333536e-01
  3.219982e+01    8.253458e-01
  3.221570e+01    8.172972e-01
  3.223157e+01    7.658252e-01
  3.224745e+01    7.838013e-01
  3.226332e+01    7.824287e-01
  3.227920e+01    7.840146e-01
  3.229507e+01    7.730532e-01
  3.231095e+01    7.633583e-01
  3.232682e+01    7.625785e-01
  3.234270e+01    7.565835e-01
  3.235858e+01    7.470155e-01
  3.237445e+01    7.461920e-01
  3.239033e+01    7.358658e-01
  3.240620e+01    7.347315e-01
  3.242208e+01    7.470633e-01
  3.243795e+01    7.418749e-01
  3.245383e+01    7.333782e-01
  3.246970e+01    7.193849e-01
  3.248558e+01    7.259088e-01
  3.250146e+01    7.372245e-01
  3.251733e+01    7.276734e-01
  3.253321e+01    7.033526e-01
  3.254908e+01    7.262278e-01
