# == pyFAI calibration ==
# Distance Sample to Detector: 0.3999999939076516 m
# PONI: 9.750e-02, 1.135e-01 m
# Rotations: -0.000175 0.000000 -0.000000 rad
# 
# == Fit2d calibration ==
# Distance Sample-beamCenter: 400.000 mm
# Center: x=1514.000, y=1300.000 pix
# Tilt: 0.010 deg  TiltPlanRot: 0.010 deg
# 
# Detector Detector	 Spline= None	 PixelSize= 7.500e-05, 7.500e-05 m
#    Detector has a mask: False 
#    Detector has a dark current: False 
#    detector has a flat field: False 
# 
# Wavelength: 6.888e-11 m
# Mask applied: user provided
# Dark current applied: False
# Flat field applied: False
# Polarization factor: 0.99
# Normalization factor: 1.0
# --> /home/myspot/data/2024_07_Rosario/Ru-CGO-ex/2024-07-27_002_Ru-CGO-ex_Activtation_ramp_000002_data_000024.dat
#       q_nm^-1             I 
  2.003187e-02    0.000000e+00
  3.590745e-02    0.000000e+00
  5.178302e-02    7.387542e-02
  6.765859e-02    2.180818e-01
  8.353417e-02    2.641175e-01
  9.940974e-02    8.454213e-02
  1.152853e-01    3.027659e-02
  1.311609e-01    6.332428e-02
  1.470365e-01    2.606170e-02
  1.629120e-01    9.534434e-03
  1.787876e-01    0.000000e+00
  1.946632e-01    9.234424e-03
  2.105388e-01    1.789436e-02
  2.264143e-01    2.410367e-03
  2.422899e-01    1.568219e-02
  2.581655e-01    5.875380e-03
  2.740411e-01    8.660309e-03
  2.899166e-01    3.932733e-02
  3.057922e-01    2.776904e-02
  3.216678e-01    5.958178e-02
  3.375433e-01    7.221702e-02
  3.534189e-01    3.570992e-02
  3.692945e-01    6.489197e-03
  3.851701e-01    5.962728e-03
  4.010456e-01    5.359163e-02
  4.169212e-01    1.887611e-02
  4.327968e-01    3.952143e-02
  4.486724e-01    3.901966e-02
  4.645479e-01    5.651355e-02
  4.804235e-01    6.811445e-02
  4.962991e-01    7.200778e-02
  5.121747e-01    3.125527e-02
  5.280502e-01    6.178751e-02
  5.439258e-01    6.506196e-02
  5.598014e-01    2.857003e-02
  5.756770e-01    3.013836e-02
  5.915525e-01    2.395048e-02
  6.074281e-01    2.346687e-02
  6.233037e-01    2.160414e-02
  6.391793e-01    3.933874e-02
  6.550548e-01    7.356135e-02
  6.709304e-01    4.344459e-02
  6.868060e-01    4.333646e-02
  7.026815e-01    3.934406e-02
  7.185571e-01    3.338437e-02
  7.344327e-01    4.166780e-02
  7.503083e-01    5.068218e-02
  7.661838e-01    7.587490e-02
  7.820594e-01    1.281691e-01
  7.979350e-01    1.467698e-01
  8.138106e-01    1.773502e-01
  8.296861e-01    2.443172e-01
  8.455617e-01    3.097506e-01
  8.614373e-01    4.313470e-01
  8.773129e-01    5.312262e-01
  8.931884e-01    5.044395e-01
  9.090640e-01    5.581551e-01
  9.249396e-01    6.252335e-01
  9.408152e-01    7.783155e-01
  9.566907e-01    7.831929e-01
  9.725663e-01    8.483657e-01
  9.884419e-01    1.017175e+00
  1.004317e+00    1.085816e+00
  1.020193e+00    1.031065e+00
  1.036069e+00    1.101696e+00
  1.051944e+00    1.172391e+00
  1.067820e+00    1.330410e+00
  1.083695e+00    1.362639e+00
  1.099571e+00    1.312357e+00
  1.115446e+00    1.411472e+00
  1.131322e+00    1.364105e+00
  1.147198e+00    1.467398e+00
  1.163073e+00    1.428194e+00
  1.178949e+00    1.530604e+00
  1.194824e+00    1.699867e+00
  1.210700e+00    1.961820e+00
  1.226575e+00    2.145299e+00
  1.242451e+00    2.227299e+00
  1.258327e+00    2.338176e+00
  1.274202e+00    2.364590e+00
  1.290078e+00    2.425869e+00
  1.305953e+00    2.544874e+00
  1.321829e+00    2.635261e+00
  1.337705e+00    2.577101e+00
  1.353580e+00    2.481624e+00
  1.369456e+00    2.685734e+00
  1.385331e+00    2.679676e+00
  1.401207e+00    2.835277e+00
  1.417082e+00    2.736506e+00
  1.432958e+00    2.740000e+00
  1.448834e+00    2.627112e+00
  1.464709e+00    2.817273e+00
  1.480585e+00    2.853009e+00
  1.496460e+00    2.966028e+00
  1.512336e+00    3.064275e+00
  1.528211e+00    3.118753e+00
  1.544087e+00    3.181739e+00
  1.559963e+00    3.104470e+00
  1.575838e+00    2.947418e+00
  1.591714e+00    2.987791e+00
  1.607589e+00    2.918315e+00
  1.623465e+00    3.004479e+00
  1.639340e+00    2.857499e+00
  1.655216e+00    2.805246e+00
  1.671092e+00    2.880617e+00
  1.686967e+00    2.905677e+00
  1.702843e+00    2.952799e+00
  1.718718e+00    2.981740e+00
  1.734594e+00    2.963375e+00
  1.750469e+00    2.867883e+00
  1.766345e+00    2.914453e+00
  1.782221e+00    2.905207e+00
  1.798096e+00    2.763563e+00
  1.813972e+00    2.851604e+00
  1.829847e+00    2.797543e+00
  1.845723e+00    2.779180e+00
  1.861598e+00    2.943087e+00
  1.877474e+00    2.946326e+00
  1.893350e+00    2.868656e+00
  1.909225e+00    2.875960e+00
  1.925101e+00    2.902404e+00
  1.940976e+00    2.695904e+00
  1.956852e+00    2.583360e+00
  1.972727e+00    2.732410e+00
  1.988603e+00    2.708892e+00
  2.004479e+00    2.803226e+00
  2.020354e+00    2.749708e+00
  2.036230e+00    2.743835e+00
  2.052105e+00    2.779274e+00
  2.067981e+00    2.634428e+00
  2.083856e+00    2.844222e+00
  2.099732e+00    2.896196e+00
  2.115608e+00    2.762532e+00
  2.131483e+00    2.765554e+00
  2.147359e+00    2.776978e+00
  2.163234e+00    2.870687e+00
  2.179110e+00    2.776614e+00
  2.194985e+00    2.677999e+00
  2.210861e+00    2.702842e+00
  2.226737e+00    2.738896e+00
  2.242612e+00    2.670870e+00
  2.258488e+00    2.748238e+00
  2.274363e+00    2.825734e+00
  2.290239e+00    2.788378e+00
  2.306115e+00    2.828529e+00
  2.321990e+00    2.852791e+00
  2.337866e+00    2.821959e+00
  2.353741e+00    2.806777e+00
  2.369617e+00    2.843197e+00
  2.385492e+00    2.919288e+00
  2.401368e+00    2.920268e+00
  2.417244e+00    2.820315e+00
  2.433119e+00    2.825558e+00
  2.448995e+00    2.814506e+00
  2.464870e+00    2.819693e+00
  2.480746e+00    2.781836e+00
  2.496621e+00    2.811131e+00
  2.512497e+00    2.846256e+00
  2.528373e+00    2.864065e+00
  2.544248e+00    2.907268e+00
  2.560124e+00    2.904901e+00
  2.575999e+00    2.783941e+00
  2.591875e+00    2.698284e+00
  2.607750e+00    2.764771e+00
  2.623626e+00    2.764128e+00
  2.639502e+00    2.889636e+00
  2.655377e+00    2.905111e+00
  2.671253e+00    2.755061e+00
  2.687128e+00    2.841991e+00
  2.703004e+00    2.902861e+00
  2.718879e+00    2.961378e+00
  2.734755e+00    2.947543e+00
  2.750631e+00    2.832017e+00
  2.766506e+00    2.825486e+00
  2.782382e+00    2.876675e+00
  2.798257e+00    2.774323e+00
  2.814133e+00    2.838910e+00
  2.830008e+00    2.861138e+00
  2.845884e+00    2.880709e+00
  2.861760e+00    2.883060e+00
  2.877635e+00    2.894539e+00
  2.893511e+00    3.010930e+00
  2.909386e+00    2.891587e+00
  2.925262e+00    2.844729e+00
  2.941137e+00    2.846219e+00
  2.957013e+00    2.884440e+00
  2.972889e+00    2.963670e+00
  2.988764e+00    3.007364e+00
  3.004640e+00    2.989313e+00
  3.020515e+00    2.898170e+00
  3.036391e+00    2.836482e+00
  3.052266e+00    2.813216e+00
  3.068142e+00    2.906267e+00
  3.084018e+00    2.953608e+00
  3.099893e+00    2.934799e+00
  3.115769e+00    2.846169e+00
  3.131644e+00    2.760841e+00
  3.147520e+00    2.810176e+00
  3.163395e+00    2.902573e+00
  3.179271e+00    2.932576e+00
  3.195147e+00    2.921122e+00
  3.211022e+00    2.924314e+00
  3.226898e+00    2.939233e+00
  3.242773e+00    2.999856e+00
  3.258649e+00    3.024568e+00
  3.274525e+00    2.906292e+00
  3.290400e+00    2.892073e+00
  3.306276e+00    2.865183e+00
  3.322151e+00    2.894608e+00
  3.338027e+00    2.924102e+00
  3.353902e+00    2.900341e+00
  3.369778e+00    2.946731e+00
  3.385654e+00    3.030683e+00
  3.401529e+00    2.925413e+00
  3.417405e+00    2.835648e+00
  3.433280e+00    2.909987e+00
  3.449156e+00    3.024454e+00
  3.465031e+00    2.999480e+00
  3.480907e+00    3.022803e+00
  3.496783e+00    3.011527e+00
  3.512658e+00    2.937526e+00
  3.528534e+00    2.914480e+00
  3.544409e+00    3.039176e+00
  3.560285e+00    3.083121e+00
  3.576160e+00    2.991016e+00
  3.592036e+00    2.948029e+00
  3.607912e+00    2.997249e+00
  3.623787e+00    3.028283e+00
  3.639663e+00    2.984739e+00
  3.655538e+00    3.012905e+00
  3.671414e+00    3.002714e+00
  3.687289e+00    2.949016e+00
  3.703165e+00    2.957740e+00
  3.719041e+00    3.009614e+00
  3.734916e+00    3.014734e+00
  3.750792e+00    2.925415e+00
  3.766667e+00    2.985941e+00
  3.782543e+00    3.024570e+00
  3.798418e+00    3.004846e+00
  3.814294e+00    3.150215e+00
  3.830170e+00    3.103540e+00
  3.846045e+00    3.118489e+00
  3.861921e+00    3.030103e+00
  3.877796e+00    2.990962e+00
  3.893672e+00    3.050885e+00
  3.909547e+00    2.984662e+00
  3.925423e+00    2.984735e+00
  3.941299e+00    2.938988e+00
  3.957174e+00    2.964810e+00
  3.973050e+00    3.073652e+00
  3.988925e+00    3.050372e+00
  4.004801e+00    3.032837e+00
  4.020676e+00    3.021002e+00
  4.036552e+00    2.909895e+00
  4.052428e+00    3.043496e+00
  4.068303e+00    3.007861e+00
  4.084179e+00    3.041043e+00
  4.100054e+00    3.020230e+00
  4.115930e+00    3.045747e+00
  4.131806e+00    3.102438e+00
  4.147681e+00    3.112685e+00
  4.163557e+00    3.135598e+00
  4.179432e+00    3.089475e+00
  4.195308e+00    3.068888e+00
  4.211183e+00    3.039706e+00
  4.227059e+00    3.074539e+00
  4.242935e+00    3.142289e+00
  4.258810e+00    3.088705e+00
  4.274686e+00    3.053382e+00
  4.290561e+00    3.016826e+00
  4.306437e+00    3.048512e+00
  4.322312e+00    3.031256e+00
  4.338188e+00    3.022244e+00
  4.354064e+00    3.065763e+00
  4.369939e+00    3.081676e+00
  4.385815e+00    3.073017e+00
  4.401690e+00    3.060428e+00
  4.417566e+00    3.081083e+00
  4.433441e+00    3.103760e+00
  4.449317e+00    3.114913e+00
  4.465193e+00    3.099870e+00
  4.481068e+00    3.197081e+00
  4.496944e+00    3.059516e+00
  4.512819e+00    3.012363e+00
  4.528695e+00    3.016676e+00
  4.544570e+00    3.042287e+00
  4.560446e+00    3.049927e+00
  4.576322e+00    3.076962e+00
  4.592197e+00    3.093969e+00
  4.608073e+00    3.155696e+00
  4.623948e+00    3.104261e+00
  4.639824e+00    3.078612e+00
  4.655699e+00    3.051634e+00
  4.671575e+00    3.035257e+00
  4.687451e+00    3.055350e+00
  4.703326e+00    3.070943e+00
  4.719202e+00    2.997707e+00
  4.735077e+00    3.217343e+00
  4.750953e+00    3.166820e+00
  4.766828e+00    3.017966e+00
  4.782704e+00    3.137876e+00
  4.798580e+00    3.135480e+00
  4.814455e+00    3.128944e+00
  4.830331e+00    3.145076e+00
  4.846206e+00    3.145327e+00
  4.862082e+00    3.123181e+00
  4.877957e+00    3.115893e+00
  4.893833e+00    3.157988e+00
  4.909709e+00    3.225185e+00
  4.925584e+00    3.063429e+00
  4.941460e+00    3.063569e+00
  4.957335e+00    3.079281e+00
  4.973211e+00    3.132355e+00
  4.989086e+00    3.143510e+00
  5.004962e+00    3.070903e+00
  5.020838e+00    3.126288e+00
  5.036713e+00    3.084025e+00
  5.052589e+00    3.097755e+00
  5.068464e+00    3.174042e+00
  5.084340e+00    3.198052e+00
  5.100216e+00    3.178691e+00
  5.116091e+00    3.136764e+00
  5.131967e+00    3.148258e+00
  5.147842e+00    3.203858e+00
  5.163718e+00    3.320781e+00
  5.179593e+00    3.092092e+00
  5.195469e+00    3.080645e+00
  5.211345e+00    3.107625e+00
  5.227220e+00    3.141149e+00
  5.243096e+00    3.105477e+00
  5.258971e+00    3.095804e+00
  5.274847e+00    3.056108e+00
  5.290722e+00    3.046222e+00
  5.306598e+00    3.116002e+00
  5.322474e+00    3.087806e+00
  5.338349e+00    3.190856e+00
  5.354225e+00    3.172352e+00
  5.370100e+00    3.199411e+00
  5.385976e+00    3.103626e+00
  5.401851e+00    3.106821e+00
  5.417727e+00    3.120117e+00
  5.433603e+00    3.098277e+00
  5.449478e+00    3.167584e+00
  5.465354e+00    3.168012e+00
  5.481229e+00    3.132104e+00
  5.497105e+00    3.097509e+00
  5.512980e+00    3.176119e+00
  5.528856e+00    3.019089e+00
  5.544732e+00    3.000870e+00
  5.560607e+00    3.016398e+00
  5.576483e+00    3.081704e+00
  5.592358e+00    3.096999e+00
  5.608234e+00    3.086596e+00
  5.624109e+00    3.071790e+00
  5.639985e+00    3.075516e+00
  5.655861e+00    3.136159e+00
  5.671736e+00    3.112057e+00
  5.687612e+00    3.052052e+00
  5.703487e+00    3.068029e+00
  5.719363e+00    3.069239e+00
  5.735238e+00    3.080714e+00
  5.751114e+00    3.040987e+00
  5.766990e+00    3.095980e+00
  5.782865e+00    3.034856e+00
  5.798741e+00    3.046398e+00
  5.814616e+00    3.019768e+00
  5.830492e+00    3.055699e+00
  5.846367e+00    3.077307e+00
  5.862243e+00    3.072322e+00
  5.878119e+00    3.012002e+00
  5.893994e+00    3.034956e+00
  5.909870e+00    3.042328e+00
  5.925745e+00    3.064925e+00
  5.941621e+00    3.054185e+00
  5.957497e+00    3.019428e+00
  5.973372e+00    3.057975e+00
  5.989248e+00    3.031622e+00
  6.005123e+00    3.033677e+00
  6.020999e+00    3.040289e+00
  6.036874e+00    3.072783e+00
  6.052750e+00    3.077844e+00
  6.068626e+00    3.085397e+00
  6.084501e+00    3.098678e+00
  6.100377e+00    3.119090e+00
  6.116252e+00    3.153525e+00
  6.132128e+00    3.168796e+00
  6.148003e+00    3.056470e+00
  6.163879e+00    3.041229e+00
  6.179755e+00    3.073155e+00
  6.195630e+00    3.074881e+00
  6.211506e+00    3.024820e+00
  6.227381e+00    3.039417e+00
  6.243257e+00    3.036726e+00
  6.259132e+00    3.093997e+00
  6.275008e+00    3.043238e+00
  6.290884e+00    3.064036e+00
  6.306759e+00    3.069773e+00
  6.322635e+00    3.076726e+00
  6.338510e+00    3.025019e+00
  6.354386e+00    3.031374e+00
  6.370261e+00    3.078969e+00
  6.386137e+00    3.073474e+00
  6.402013e+00    3.182430e+00
  6.417888e+00    3.111521e+00
  6.433764e+00    3.003991e+00
  6.449639e+00    3.043335e+00
  6.465515e+00    3.055881e+00
  6.481390e+00    3.013198e+00
  6.497266e+00    3.058621e+00
  6.513142e+00    3.062603e+00
  6.529017e+00    3.140285e+00
  6.544893e+00    3.084309e+00
  6.560768e+00    3.051645e+00
  6.576644e+00    3.071031e+00
  6.592519e+00    3.077215e+00
  6.608395e+00    3.080397e+00
  6.624271e+00    3.088320e+00
  6.640146e+00    3.077259e+00
  6.656022e+00    3.125946e+00
  6.671897e+00    3.090198e+00
  6.687773e+00    3.063534e+00
  6.703648e+00    3.036987e+00
  6.719524e+00    3.043236e+00
  6.735400e+00    3.059574e+00
  6.751275e+00    3.065294e+00
  6.767151e+00    3.046875e+00
  6.783026e+00    3.012838e+00
  6.798902e+00    3.017430e+00
  6.814777e+00    3.048028e+00
  6.830653e+00    2.992832e+00
  6.846529e+00    3.019818e+00
  6.862404e+00    3.041060e+00
  6.878280e+00    2.986676e+00
  6.894155e+00    3.011241e+00
  6.910031e+00    3.004220e+00
  6.925907e+00    2.979172e+00
  6.941782e+00    3.018952e+00
  6.957658e+00    3.037890e+00
  6.973533e+00    3.007020e+00
  6.989409e+00    3.024262e+00
  7.005284e+00    3.026531e+00
  7.021160e+00    3.014561e+00
  7.037036e+00    2.978757e+00
  7.052911e+00    3.078641e+00
  7.068787e+00    3.009619e+00
  7.084662e+00    3.034399e+00
  7.100538e+00    3.046495e+00
  7.116413e+00    3.064774e+00
  7.132289e+00    3.056299e+00
  7.148165e+00    3.045640e+00
  7.164040e+00    2.986560e+00
  7.179916e+00    2.972045e+00
  7.195791e+00    3.028392e+00
  7.211667e+00    2.992500e+00
  7.227542e+00    2.995076e+00
  7.243418e+00    3.004350e+00
  7.259294e+00    2.965006e+00
  7.275169e+00    2.967321e+00
  7.291045e+00    2.983746e+00
  7.306920e+00    3.023405e+00
  7.322796e+00    3.042710e+00
  7.338671e+00    3.038076e+00
  7.354547e+00    2.974904e+00
  7.370423e+00    2.933487e+00
  7.386298e+00    2.967588e+00
  7.402174e+00    3.024611e+00
  7.418049e+00    3.067774e+00
  7.433925e+00    3.075833e+00
  7.449800e+00    3.032468e+00
  7.465676e+00    3.053594e+00
  7.481552e+00    3.009864e+00
  7.497427e+00    3.007643e+00
  7.513303e+00    3.044812e+00
  7.529178e+00    2.934950e+00
  7.545054e+00    2.964354e+00
  7.560929e+00    2.935638e+00
  7.576805e+00    2.906360e+00
  7.592681e+00    2.981922e+00
  7.608556e+00    3.007869e+00
  7.624432e+00    2.952228e+00
  7.640307e+00    3.005341e+00
  7.656183e+00    2.957313e+00
  7.672058e+00    2.959177e+00
  7.687934e+00    2.997981e+00
  7.703810e+00    3.029539e+00
  7.719685e+00    2.986610e+00
  7.735561e+00    2.946508e+00
  7.751436e+00    2.946277e+00
  7.767312e+00    2.923856e+00
  7.783187e+00    2.927353e+00
  7.799063e+00    2.917224e+00
  7.814939e+00    2.906354e+00
  7.830814e+00    2.955545e+00
  7.846690e+00    2.955078e+00
  7.862565e+00    2.965643e+00
  7.878441e+00    2.977841e+00
  7.894317e+00    2.951448e+00
  7.910192e+00    2.960434e+00
  7.926068e+00    2.950574e+00
  7.941943e+00    2.959133e+00
  7.957819e+00    2.948929e+00
  7.973694e+00    2.934035e+00
  7.989570e+00    2.937659e+00
  8.005446e+00    2.928707e+00
  8.021321e+00    2.913622e+00
  8.037197e+00    2.863733e+00
  8.053072e+00    2.825326e+00
  8.068948e+00    2.928229e+00
  8.084823e+00    2.956347e+00
  8.100699e+00    2.927694e+00
  8.116575e+00    2.944089e+00
  8.132450e+00    2.967264e+00
  8.148326e+00    2.955925e+00
  8.164201e+00    2.924495e+00
  8.180077e+00    2.956048e+00
  8.195952e+00    2.975898e+00
  8.211828e+00    2.966530e+00
  8.227704e+00    2.920665e+00
  8.243579e+00    2.978066e+00
  8.259455e+00    2.962876e+00
  8.275330e+00    2.965144e+00
  8.291206e+00    2.960556e+00
  8.307081e+00    2.966474e+00
  8.322957e+00    2.924277e+00
  8.338833e+00    2.929565e+00
  8.354708e+00    2.915971e+00
  8.370584e+00    2.885808e+00
  8.386459e+00    2.977167e+00
  8.402335e+00    2.968211e+00
  8.418210e+00    2.927750e+00
  8.434086e+00    2.911621e+00
  8.449962e+00    2.896424e+00
  8.465837e+00    2.939895e+00
  8.481713e+00    2.934673e+00
  8.497588e+00    2.918126e+00
  8.513464e+00    2.820991e+00
  8.529339e+00    2.856274e+00
  8.545215e+00    2.862337e+00
  8.561091e+00    2.838549e+00
  8.576966e+00    2.894784e+00
  8.592842e+00    2.884119e+00
  8.608717e+00    2.873502e+00
  8.624593e+00    2.879613e+00
  8.640468e+00    2.942564e+00
  8.656344e+00    2.907196e+00
  8.672220e+00    2.878193e+00
  8.688095e+00    2.913151e+00
  8.703971e+00    2.900048e+00
  8.719846e+00    2.902224e+00
  8.735722e+00    2.898753e+00
  8.751598e+00    2.851289e+00
  8.767473e+00    2.873302e+00
  8.783349e+00    2.887929e+00
  8.799224e+00    2.856633e+00
  8.815100e+00    2.878332e+00
  8.830975e+00    2.808186e+00
  8.846851e+00    2.796491e+00
  8.862727e+00    2.855278e+00
  8.878602e+00    2.848213e+00
  8.894478e+00    2.848038e+00
  8.910353e+00    2.852220e+00
  8.926229e+00    2.820073e+00
  8.942104e+00    2.820144e+00
  8.957980e+00    2.858687e+00
  8.973856e+00    2.813322e+00
  8.989731e+00    2.871956e+00
  9.005607e+00    2.833173e+00
  9.021482e+00    2.862567e+00
  9.037358e+00    2.882711e+00
  9.053233e+00    2.885982e+00
  9.069109e+00    2.832114e+00
  9.084985e+00    2.798434e+00
  9.100860e+00    2.861937e+00
  9.116736e+00    2.835644e+00
  9.132611e+00    2.795913e+00
  9.148487e+00    2.796162e+00
  9.164362e+00    2.864172e+00
  9.180238e+00    2.861233e+00
  9.196114e+00    2.820689e+00
  9.211989e+00    2.808852e+00
  9.227865e+00    2.767563e+00
  9.243740e+00    2.802509e+00
  9.259616e+00    2.828478e+00
  9.275491e+00    2.869077e+00
  9.291367e+00    2.770007e+00
  9.307243e+00    2.774666e+00
  9.323118e+00    2.790851e+00
  9.338994e+00    2.771157e+00
  9.354869e+00    2.771968e+00
  9.370745e+00    2.787209e+00
  9.386620e+00    2.771494e+00
  9.402496e+00    2.755401e+00
  9.418372e+00    2.747180e+00
  9.434247e+00    2.735765e+00
  9.450123e+00    2.771840e+00
  9.465998e+00    2.802155e+00
  9.481874e+00    2.761203e+00
  9.497749e+00    2.759669e+00
  9.513625e+00    2.762599e+00
  9.529501e+00    2.783302e+00
  9.545376e+00    2.773387e+00
  9.561252e+00    2.736235e+00
  9.577127e+00    2.789095e+00
  9.593003e+00    2.786247e+00
  9.608878e+00    2.792131e+00
  9.624754e+00    2.770686e+00
  9.640630e+00    2.760168e+00
  9.656505e+00    2.762916e+00
  9.672381e+00    2.736994e+00
  9.688256e+00    2.709953e+00
  9.704132e+00    2.710354e+00
  9.720008e+00    2.789526e+00
  9.735883e+00    2.769797e+00
  9.751759e+00    2.723750e+00
  9.767634e+00    2.717047e+00
  9.783510e+00    2.731217e+00
  9.799385e+00    2.731613e+00
  9.815261e+00    2.700922e+00
  9.831137e+00    2.725167e+00
  9.847012e+00    2.754961e+00
  9.862888e+00    2.744839e+00
  9.878763e+00    2.726587e+00
  9.894639e+00    2.718104e+00
  9.910514e+00    2.747402e+00
  9.926390e+00    2.742733e+00
  9.942266e+00    2.734430e+00
  9.958141e+00    2.742602e+00
  9.974017e+00    2.692790e+00
  9.989892e+00    2.685668e+00
  1.000577e+01    2.671050e+00
  1.002164e+01    2.653976e+00
  1.003752e+01    2.730948e+00
  1.005339e+01    2.684523e+00
  1.006927e+01    2.711050e+00
  1.008515e+01    2.704143e+00
  1.010102e+01    2.727195e+00
  1.011690e+01    2.671112e+00
  1.013277e+01    2.646644e+00
  1.014865e+01    2.661379e+00
  1.016452e+01    2.668242e+00
  1.018040e+01    2.676421e+00
  1.019627e+01    2.639746e+00
  1.021215e+01    2.642695e+00
  1.022803e+01    2.644477e+00
  1.024390e+01    2.675260e+00
  1.025978e+01    2.690386e+00
  1.027565e+01    2.624114e+00
  1.029153e+01    2.654598e+00
  1.030740e+01    2.681226e+00
  1.032328e+01    2.658213e+00
  1.033915e+01    2.666493e+00
  1.035503e+01    2.665781e+00
  1.037091e+01    2.634873e+00
  1.038678e+01    2.654741e+00
  1.040266e+01    2.601918e+00
  1.041853e+01    2.626977e+00
  1.043441e+01    2.632211e+00
  1.045028e+01    2.672237e+00
  1.046616e+01    2.669408e+00
  1.048204e+01    2.652739e+00
  1.049791e+01    2.633773e+00
  1.051379e+01    2.600051e+00
  1.052966e+01    2.558247e+00
  1.054554e+01    2.593476e+00
  1.056141e+01    2.557557e+00
  1.057729e+01    2.602942e+00
  1.059316e+01    2.594109e+00
  1.060904e+01    2.566445e+00
  1.062492e+01    2.591030e+00
  1.064079e+01    2.546135e+00
  1.065667e+01    2.555537e+00
  1.067254e+01    2.613872e+00
  1.068842e+01    2.584765e+00
  1.070429e+01    2.544451e+00
  1.072017e+01    2.518991e+00
  1.073604e+01    2.528641e+00
  1.075192e+01    2.547686e+00
  1.076780e+01    2.583383e+00
  1.078367e+01    2.550969e+00
  1.079955e+01    2.532227e+00
  1.081542e+01    2.524894e+00
  1.083130e+01    2.540981e+00
  1.084717e+01    2.543493e+00
  1.086305e+01    2.546548e+00
  1.087892e+01    2.595170e+00
  1.089480e+01    2.540241e+00
  1.091068e+01    2.509096e+00
  1.092655e+01    2.570809e+00
  1.094243e+01    2.503797e+00
  1.095830e+01    2.526091e+00
  1.097418e+01    2.533687e+00
  1.099005e+01    2.534483e+00
  1.100593e+01    2.544004e+00
  1.102180e+01    2.537388e+00
  1.103768e+01    2.544265e+00
  1.105356e+01    2.515061e+00
  1.106943e+01    2.476674e+00
  1.108531e+01    2.432398e+00
  1.110118e+01    2.435878e+00
  1.111706e+01    2.503148e+00
  1.113293e+01    2.501626e+00
  1.114881e+01    2.453394e+00
  1.116468e+01    2.411355e+00
  1.118056e+01    2.422663e+00
  1.119644e+01    2.454750e+00
  1.121231e+01    2.492880e+00
  1.122819e+01    2.514092e+00
  1.124406e+01    2.502097e+00
  1.125994e+01    2.430776e+00
  1.127581e+01    2.488309e+00
  1.129169e+01    2.469526e+00
  1.130756e+01    2.467291e+00
  1.132344e+01    2.441108e+00
  1.133932e+01    2.432657e+00
  1.135519e+01    2.469925e+00
  1.137107e+01    2.462175e+00
  1.138694e+01    2.457661e+00
  1.140282e+01    2.480193e+00
  1.141869e+01    2.462153e+00
  1.143457e+01    2.417232e+00
  1.145045e+01    2.441325e+00
  1.146632e+01    2.443964e+00
  1.148220e+01    2.471782e+00
  1.149807e+01    2.418060e+00
  1.151395e+01    2.464723e+00
  1.152982e+01    2.445332e+00
  1.154570e+01    2.424006e+00
  1.156157e+01    2.434606e+00
  1.157745e+01    2.383837e+00
  1.159333e+01    2.420415e+00
  1.160920e+01    2.438498e+00
  1.162508e+01    2.392007e+00
  1.164095e+01    2.416812e+00
  1.165683e+01    2.398911e+00
  1.167270e+01    2.414845e+00
  1.168858e+01    2.369598e+00
  1.170445e+01    2.338956e+00
  1.172033e+01    2.347824e+00
  1.173621e+01    2.332178e+00
  1.175208e+01    2.355419e+00
  1.176796e+01    2.389808e+00
  1.178383e+01    2.384374e+00
  1.179971e+01    2.346763e+00
  1.181558e+01    2.366171e+00
  1.183146e+01    2.436696e+00
  1.184733e+01    2.365830e+00
  1.186321e+01    2.345518e+00
  1.187909e+01    2.369388e+00
  1.189496e+01    2.349909e+00
  1.191084e+01    2.405818e+00
  1.192671e+01    2.362215e+00
  1.194259e+01    2.344837e+00
  1.195846e+01    2.345691e+00
  1.197434e+01    2.385206e+00
  1.199021e+01    2.374865e+00
  1.200609e+01    2.292081e+00
  1.202197e+01    2.323008e+00
  1.203784e+01    2.391452e+00
  1.205372e+01    2.369996e+00
  1.206959e+01    2.318406e+00
  1.208547e+01    2.314752e+00
  1.210134e+01    2.346128e+00
  1.211722e+01    2.332022e+00
  1.213309e+01    2.338468e+00
  1.214897e+01    2.367204e+00
  1.216485e+01    2.364521e+00
  1.218072e+01    2.332909e+00
  1.219660e+01    2.335391e+00
  1.221247e+01    2.302718e+00
  1.222835e+01    2.334347e+00
  1.224422e+01    2.369484e+00
  1.226010e+01    2.351969e+00
  1.227597e+01    2.343426e+00
  1.229185e+01    2.314748e+00
  1.230773e+01    2.301568e+00
  1.232360e+01    2.305767e+00
  1.233948e+01    2.326755e+00
  1.235535e+01    2.327841e+00
  1.237123e+01    2.367198e+00
  1.238710e+01    2.371078e+00
  1.240298e+01    2.364528e+00
  1.241886e+01    2.359295e+00
  1.243473e+01    2.328470e+00
  1.245061e+01    2.352010e+00
  1.246648e+01    2.403351e+00
  1.248236e+01    2.361177e+00
  1.249823e+01    2.358337e+00
  1.251411e+01    2.373921e+00
  1.252998e+01    2.376354e+00
  1.254586e+01    2.384389e+00
  1.256174e+01    2.378362e+00
  1.257761e+01    2.398741e+00
  1.259349e+01    2.402277e+00
  1.260936e+01    2.398653e+00
  1.262524e+01    2.425815e+00
  1.264111e+01    2.467148e+00
  1.265699e+01    2.433151e+00
  1.267286e+01    2.454013e+00
  1.268874e+01    2.506290e+00
  1.270462e+01    2.495121e+00
  1.272049e+01    2.505082e+00
  1.273637e+01    2.551519e+00
  1.275224e+01    2.594291e+00
  1.276812e+01    2.663526e+00
  1.278399e+01    2.686933e+00
  1.279987e+01    2.694518e+00
  1.281574e+01    2.734379e+00
  1.283162e+01    2.767940e+00
  1.284750e+01    2.847982e+00
  1.286337e+01    2.952306e+00
  1.287925e+01    3.036621e+00
  1.289512e+01    3.116187e+00
  1.291100e+01    3.254141e+00
  1.292687e+01    3.445891e+00
  1.294275e+01    3.714160e+00
  1.295862e+01    3.992137e+00
  1.297450e+01    4.292003e+00
  1.299038e+01    4.714059e+00
  1.300625e+01    5.230165e+00
  1.302213e+01    5.890756e+00
  1.303800e+01    6.710989e+00
  1.305388e+01    7.764615e+00
  1.306975e+01    9.133636e+00
  1.308563e+01    1.061258e+01
  1.310150e+01    1.210892e+01
  1.311738e+01    1.357598e+01
  1.313326e+01    1.507596e+01
  1.314913e+01    1.653597e+01
  1.316501e+01    1.804191e+01
  1.318088e+01    1.922660e+01
  1.319676e+01    1.986078e+01
  1.321263e+01    1.957010e+01
  1.322851e+01    1.816054e+01
  1.324438e+01    1.621500e+01
  1.326026e+01    1.385377e+01
  1.327614e+01    1.161289e+01
  1.329201e+01    9.691333e+00
  1.330789e+01    8.213855e+00
  1.332376e+01    7.057390e+00
  1.333964e+01    6.136601e+00
  1.335551e+01    5.375518e+00
  1.337139e+01    4.829395e+00
  1.338727e+01    4.362442e+00
  1.340314e+01    4.087633e+00
  1.341902e+01    3.797299e+00
  1.343489e+01    3.531901e+00
  1.345077e+01    3.338900e+00
  1.346664e+01    3.192574e+00
  1.348252e+01    3.042474e+00
  1.349839e+01    2.912622e+00
  1.351427e+01    2.828734e+00
  1.353015e+01    2.771822e+00
  1.354602e+01    2.706209e+00
  1.356190e+01    2.640058e+00
  1.357777e+01    2.612236e+00
  1.359365e+01    2.547655e+00
  1.360952e+01    2.508630e+00
  1.362540e+01    2.447924e+00
  1.364127e+01    2.410678e+00
  1.365715e+01    2.375203e+00
  1.367303e+01    2.333885e+00
  1.368890e+01    2.338544e+00
  1.370478e+01    2.329712e+00
  1.372065e+01    2.311828e+00
  1.373653e+01    2.272240e+00
  1.375240e+01    2.244183e+00
  1.376828e+01    2.230128e+00
  1.378415e+01    2.191716e+00
  1.380003e+01    2.178191e+00
  1.381591e+01    2.218928e+00
  1.383178e+01    2.211123e+00
  1.384766e+01    2.163267e+00
  1.386353e+01    2.180037e+00
  1.387941e+01    2.161703e+00
  1.389528e+01    2.140759e+00
  1.391116e+01    2.132187e+00
  1.392703e+01    2.119867e+00
  1.394291e+01    2.128026e+00
  1.395879e+01    2.131148e+00
  1.397466e+01    2.130056e+00
  1.399054e+01    2.102164e+00
  1.400641e+01    2.110587e+00
  1.402229e+01    2.103532e+00
  1.403816e+01    2.059845e+00
  1.405404e+01    2.051316e+00
  1.406991e+01    2.073816e+00
  1.408579e+01    2.075496e+00
  1.410167e+01    2.068072e+00
  1.411754e+01    2.052346e+00
  1.413342e+01    2.037960e+00
  1.414929e+01    2.041222e+00
  1.416517e+01    2.040731e+00
  1.418104e+01    2.047242e+00
  1.419692e+01    1.993928e+00
  1.421279e+01    2.012781e+00
  1.422867e+01    2.007508e+00
  1.424455e+01    2.014945e+00
  1.426042e+01    1.965549e+00
  1.427630e+01    1.953054e+00
  1.429217e+01    1.945256e+00
  1.430805e+01    1.959681e+00
  1.432392e+01    1.953100e+00
  1.433980e+01    1.958379e+00
  1.435568e+01    1.961258e+00
  1.437155e+01    1.952188e+00
  1.438743e+01    1.956724e+00
  1.440330e+01    1.976211e+00
  1.441918e+01    1.958313e+00
  1.443505e+01    1.949170e+00
  1.445093e+01    1.941489e+00
  1.446680e+01    1.957512e+00
  1.448268e+01    1.947953e+00
  1.449856e+01    1.912697e+00
  1.451443e+01    1.921975e+00
  1.453031e+01    1.949591e+00
  1.454618e+01    1.986207e+00
  1.456206e+01    1.963091e+00
  1.457793e+01    1.930965e+00
  1.459381e+01    1.961636e+00
  1.460968e+01    1.951226e+00
  1.462556e+01    1.927479e+00
  1.464144e+01    1.944866e+00
  1.465731e+01    1.930533e+00
  1.467319e+01    1.884293e+00
  1.468906e+01    1.919766e+00
  1.470494e+01    1.943691e+00
  1.472081e+01    1.939853e+00
  1.473669e+01    1.929827e+00
  1.475256e+01    1.927205e+00
  1.476844e+01    1.930299e+00
  1.478432e+01    1.924310e+00
  1.480019e+01    1.912803e+00
  1.481607e+01    1.956611e+00
  1.483194e+01    1.968023e+00
  1.484782e+01    1.985971e+00
  1.486369e+01    1.995244e+00
  1.487957e+01    1.983893e+00
  1.489544e+01    1.978202e+00
  1.491132e+01    1.921803e+00
  1.492720e+01    1.961237e+00
  1.494307e+01    2.021565e+00
  1.495895e+01    2.010940e+00
  1.497482e+01    2.051265e+00
  1.499070e+01    2.109288e+00
  1.500657e+01    2.155457e+00
  1.502245e+01    2.199986e+00
  1.503832e+01    2.257395e+00
  1.505420e+01    2.330391e+00
  1.507008e+01    2.472484e+00
  1.508595e+01    2.591812e+00
  1.510183e+01    2.725169e+00
  1.511770e+01    2.972308e+00
  1.513358e+01    3.243387e+00
  1.514945e+01    3.591366e+00
  1.516533e+01    4.008377e+00
  1.518120e+01    4.424874e+00
  1.519708e+01    4.870571e+00
  1.521296e+01    5.245946e+00
  1.522883e+01    5.666122e+00
  1.524471e+01    6.033691e+00
  1.526058e+01    6.351747e+00
  1.527646e+01    6.457997e+00
  1.529233e+01    6.586089e+00
  1.530821e+01    6.565926e+00
  1.532409e+01    6.154498e+00
  1.533996e+01    5.563303e+00
  1.535584e+01    5.001634e+00
  1.537171e+01    4.369504e+00
  1.538759e+01    3.952908e+00
  1.540346e+01    3.491784e+00
  1.541934e+01    3.155747e+00
  1.543521e+01    2.849440e+00
  1.545109e+01    2.621364e+00
  1.546697e+01    2.485217e+00
  1.548284e+01    2.362059e+00
  1.549872e+01    2.242235e+00
  1.551459e+01    2.204252e+00
  1.553047e+01    2.151219e+00
  1.554634e+01    2.074368e+00
  1.556222e+01    1.976929e+00
  1.557809e+01    1.958738e+00
  1.559397e+01    1.952520e+00
  1.560985e+01    1.924787e+00
  1.562572e+01    1.913419e+00
  1.564160e+01    1.850224e+00
  1.565747e+01    1.848232e+00
  1.567335e+01    1.832461e+00
  1.568922e+01    1.784062e+00
  1.570510e+01    1.823775e+00
  1.572097e+01    1.806083e+00
  1.573685e+01    1.776517e+00
  1.575273e+01    1.760594e+00
  1.576860e+01    1.748655e+00
  1.578448e+01    1.717869e+00
  1.580035e+01    1.729741e+00
  1.581623e+01    1.739505e+00
  1.583210e+01    1.724941e+00
  1.584798e+01    1.715315e+00
  1.586385e+01    1.671011e+00
  1.587973e+01    1.654971e+00
  1.589561e+01    1.676216e+00
  1.591148e+01    1.684647e+00
  1.592736e+01    1.642721e+00
  1.594323e+01    1.627103e+00
  1.595911e+01    1.657377e+00
  1.597498e+01    1.658299e+00
  1.599086e+01    1.643693e+00
  1.600673e+01    1.643222e+00
  1.602261e+01    1.626634e+00
  1.603849e+01    1.612232e+00
  1.605436e+01    1.592846e+00
  1.607024e+01    1.601772e+00
  1.608611e+01    1.604022e+00
  1.610199e+01    1.579065e+00
  1.611786e+01    1.652940e+00
  1.613374e+01    1.644921e+00
  1.614961e+01    1.601904e+00
  1.616549e+01    1.592234e+00
  1.618137e+01    1.615161e+00
  1.619724e+01    1.626358e+00
  1.621312e+01    1.617761e+00
  1.622899e+01    1.600110e+00
  1.624487e+01    1.544547e+00
  1.626074e+01    1.579507e+00
  1.627662e+01    1.591407e+00
  1.629250e+01    1.556487e+00
  1.630837e+01    1.564122e+00
  1.632425e+01    1.594080e+00
  1.634012e+01    1.574400e+00
  1.635600e+01    1.539767e+00
  1.637187e+01    1.554483e+00
  1.638775e+01    1.538939e+00
  1.640362e+01    1.551521e+00
  1.641950e+01    1.536356e+00
  1.643538e+01    1.538390e+00
  1.645125e+01    1.551751e+00
  1.646713e+01    1.550142e+00
  1.648300e+01    1.555395e+00
  1.649888e+01    1.558279e+00
  1.651475e+01    1.540436e+00
  1.653063e+01    1.524889e+00
  1.654650e+01    1.520439e+00
  1.656238e+01    1.552908e+00
  1.657826e+01    1.542218e+00
  1.659413e+01    1.527717e+00
  1.661001e+01    1.505957e+00
  1.662588e+01    1.472920e+00
  1.664176e+01    1.496912e+00
  1.665763e+01    1.496841e+00
  1.667351e+01    1.503044e+00
  1.668938e+01    1.488967e+00
  1.670526e+01    1.504354e+00
  1.672114e+01    1.502372e+00
  1.673701e+01    1.478509e+00
  1.675289e+01    1.489599e+00
  1.676876e+01    1.484269e+00
  1.678464e+01    1.504910e+00
  1.680051e+01    1.488084e+00
  1.681639e+01    1.449247e+00
  1.683226e+01    1.459651e+00
  1.684814e+01    1.499918e+00
  1.686402e+01    1.497129e+00
  1.687989e+01    1.493724e+00
  1.689577e+01    1.461174e+00
  1.691164e+01    1.479152e+00
  1.692752e+01    1.442385e+00
  1.694339e+01    1.455995e+00
  1.695927e+01    1.467875e+00
  1.697514e+01    1.441860e+00
  1.699102e+01    1.437019e+00
  1.700690e+01    1.456430e+00
  1.702277e+01    1.475656e+00
  1.703865e+01    1.455373e+00
  1.705452e+01    1.399606e+00
  1.707040e+01    1.432056e+00
  1.708627e+01    1.427967e+00
  1.710215e+01    1.431761e+00
  1.711802e+01    1.441892e+00
  1.713390e+01    1.448554e+00
  1.714978e+01    1.449877e+00
  1.716565e+01    1.455694e+00
  1.718153e+01    1.417634e+00
  1.719740e+01    1.406189e+00
  1.721328e+01    1.427032e+00
  1.722915e+01    1.424307e+00
  1.724503e+01    1.412186e+00
  1.726091e+01    1.430790e+00
  1.727678e+01    1.416364e+00
  1.729266e+01    1.411125e+00
  1.730853e+01    1.354984e+00
  1.732441e+01    1.382078e+00
  1.734028e+01    1.424609e+00
  1.735616e+01    1.403928e+00
  1.737203e+01    1.380445e+00
  1.738791e+01    1.383066e+00
  1.740379e+01    1.393934e+00
  1.741966e+01    1.387525e+00
  1.743554e+01    1.401972e+00
  1.745141e+01    1.408832e+00
  1.746729e+01    1.354210e+00
  1.748316e+01    1.365695e+00
  1.749904e+01    1.363186e+00
  1.751491e+01    1.386897e+00
  1.753079e+01    1.413937e+00
  1.754667e+01    1.390602e+00
  1.756254e+01    1.365957e+00
  1.757842e+01    1.367919e+00
  1.759429e+01    1.394722e+00
  1.761017e+01    1.396996e+00
  1.762604e+01    1.378758e+00
  1.764192e+01    1.382819e+00
  1.765779e+01    1.369644e+00
  1.767367e+01    1.322715e+00
  1.768955e+01    1.345585e+00
  1.770542e+01    1.354527e+00
  1.772130e+01    1.341097e+00
  1.773717e+01    1.359695e+00
  1.775305e+01    1.345748e+00
  1.776892e+01    1.350325e+00
  1.778480e+01    1.355922e+00
  1.780067e+01    1.347279e+00
  1.781655e+01    1.334756e+00
  1.783243e+01    1.337827e+00
  1.784830e+01    1.303243e+00
  1.786418e+01    1.288060e+00
  1.788005e+01    1.341928e+00
  1.789593e+01    1.342141e+00
  1.791180e+01    1.318001e+00
  1.792768e+01    1.317916e+00
  1.794355e+01    1.352787e+00
  1.795943e+01    1.336928e+00
  1.797531e+01    1.348364e+00
  1.799118e+01    1.319851e+00
  1.800706e+01    1.305536e+00
  1.802293e+01    1.286568e+00
  1.803881e+01    1.313462e+00
  1.805468e+01    1.321933e+00
  1.807056e+01    1.316165e+00
  1.808643e+01    1.282004e+00
  1.810231e+01    1.323059e+00
  1.811819e+01    1.305936e+00
  1.813406e+01    1.300206e+00
  1.814994e+01    1.315403e+00
  1.816581e+01    1.275614e+00
  1.818169e+01    1.304871e+00
  1.819756e+01    1.330977e+00
  1.821344e+01    1.306925e+00
  1.822932e+01    1.292797e+00
  1.824519e+01    1.261649e+00
  1.826107e+01    1.280965e+00
  1.827694e+01    1.297252e+00
  1.829282e+01    1.300843e+00
  1.830869e+01    1.301040e+00
  1.832457e+01    1.291345e+00
  1.834044e+01    1.295277e+00
  1.835632e+01    1.291607e+00
  1.837220e+01    1.269917e+00
  1.838807e+01    1.266942e+00
  1.840395e+01    1.268633e+00
  1.841982e+01    1.274573e+00
  1.843570e+01    1.275714e+00
  1.845157e+01    1.274704e+00
  1.846745e+01    1.275833e+00
  1.848332e+01    1.256261e+00
  1.849920e+01    1.265747e+00
  1.851508e+01    1.278438e+00
  1.853095e+01    1.265125e+00
  1.854683e+01    1.250088e+00
  1.856270e+01    1.263281e+00
  1.857858e+01    1.265624e+00
  1.859445e+01    1.258970e+00
  1.861033e+01    1.274076e+00
  1.862620e+01    1.236477e+00
  1.864208e+01    1.233642e+00
  1.865796e+01    1.261152e+00
  1.867383e+01    1.261574e+00
  1.868971e+01    1.242290e+00
  1.870558e+01    1.250864e+00
  1.872146e+01    1.245515e+00
  1.873733e+01    1.246948e+00
  1.875321e+01    1.247936e+00
  1.876908e+01    1.252599e+00
  1.878496e+01    1.252198e+00
  1.880084e+01    1.242336e+00
  1.881671e+01    1.238282e+00
  1.883259e+01    1.218692e+00
  1.884846e+01    1.210154e+00
  1.886434e+01    1.225234e+00
  1.888021e+01    1.215621e+00
  1.889609e+01    1.187463e+00
  1.891196e+01    1.211587e+00
  1.892784e+01    1.228779e+00
  1.894372e+01    1.256003e+00
  1.895959e+01    1.264102e+00
  1.897547e+01    1.228682e+00
  1.899134e+01    1.219802e+00
  1.900722e+01    1.216814e+00
  1.902309e+01    1.231666e+00
  1.903897e+01    1.234491e+00
  1.905484e+01    1.222573e+00
  1.907072e+01    1.202017e+00
  1.908660e+01    1.214760e+00
  1.910247e+01    1.207803e+00
  1.911835e+01    1.202538e+00
  1.913422e+01    1.220200e+00
  1.915010e+01    1.211719e+00
  1.916597e+01    1.207321e+00
  1.918185e+01    1.200965e+00
  1.919773e+01    1.188998e+00
  1.921360e+01    1.202898e+00
  1.922948e+01    1.180333e+00
  1.924535e+01    1.182867e+00
  1.926123e+01    1.180163e+00
  1.927710e+01    1.192776e+00
  1.929298e+01    1.201152e+00
  1.930885e+01    1.217936e+00
  1.932473e+01    1.203173e+00
  1.934061e+01    1.178541e+00
  1.935648e+01    1.189734e+00
  1.937236e+01    1.181616e+00
  1.938823e+01    1.188289e+00
  1.940411e+01    1.191716e+00
  1.941998e+01    1.196183e+00
  1.943586e+01    1.198491e+00
  1.945173e+01    1.191734e+00
  1.946761e+01    1.183381e+00
  1.948349e+01    1.181973e+00
  1.949936e+01    1.186054e+00
  1.951524e+01    1.179586e+00
  1.953111e+01    1.159025e+00
  1.954699e+01    1.148627e+00
  1.956286e+01    1.157003e+00
  1.957874e+01    1.161655e+00
  1.959461e+01    1.168508e+00
  1.961049e+01    1.190233e+00
  1.962637e+01    1.162853e+00
  1.964224e+01    1.149689e+00
  1.965812e+01    1.167858e+00
  1.967399e+01    1.153734e+00
  1.968987e+01    1.151960e+00
  1.970574e+01    1.157091e+00
  1.972162e+01    1.158115e+00
  1.973749e+01    1.159446e+00
  1.975337e+01    1.189735e+00
  1.976925e+01    1.181629e+00
  1.978512e+01    1.138696e+00
  1.980100e+01    1.134441e+00
  1.981687e+01    1.148295e+00
  1.983275e+01    1.159695e+00
  1.984862e+01    1.143656e+00
  1.986450e+01    1.118779e+00
  1.988037e+01    1.131899e+00
  1.989625e+01    1.145958e+00
  1.991213e+01    1.125413e+00
  1.992800e+01    1.134210e+00
  1.994388e+01    1.130337e+00
  1.995975e+01    1.120920e+00
  1.997563e+01    1.123351e+00
  1.999150e+01    1.137002e+00
  2.000738e+01    1.144021e+00
  2.002325e+01    1.104556e+00
  2.003913e+01    1.126280e+00
  2.005501e+01    1.138956e+00
  2.007088e+01    1.132635e+00
  2.008676e+01    1.118893e+00
  2.010263e+01    1.116963e+00
  2.011851e+01    1.100599e+00
  2.013438e+01    1.104153e+00
  2.015026e+01    1.105249e+00
  2.016614e+01    1.094599e+00
  2.018201e+01    1.124795e+00
  2.019789e+01    1.124174e+00
  2.021376e+01    1.128005e+00
  2.022964e+01    1.122761e+00
  2.024551e+01    1.106528e+00
  2.026139e+01    1.125272e+00
  2.027726e+01    1.109126e+00
  2.029314e+01    1.115796e+00
  2.030902e+01    1.150391e+00
  2.032489e+01    1.125730e+00
  2.034077e+01    1.116241e+00
  2.035664e+01    1.117476e+00
  2.037252e+01    1.126883e+00
  2.038839e+01    1.112715e+00
  2.040427e+01    1.114541e+00
  2.042014e+01    1.128869e+00
  2.043602e+01    1.113087e+00
  2.045190e+01    1.099296e+00
  2.046777e+01    1.102365e+00
  2.048365e+01    1.142043e+00
  2.049952e+01    1.121739e+00
  2.051540e+01    1.101602e+00
  2.053127e+01    1.104991e+00
  2.054715e+01    1.080937e+00
  2.056302e+01    1.091227e+00
  2.057890e+01    1.091758e+00
  2.059478e+01    1.111912e+00
  2.061065e+01    1.108672e+00
  2.062653e+01    1.110330e+00
  2.064240e+01    1.083421e+00
  2.065828e+01    1.112003e+00
  2.067415e+01    1.112205e+00
  2.069003e+01    1.107608e+00
  2.070590e+01    1.120991e+00
  2.072178e+01    1.121884e+00
  2.073766e+01    1.097518e+00
  2.075353e+01    1.083780e+00
  2.076941e+01    1.094093e+00
  2.078528e+01    1.113439e+00
  2.080116e+01    1.098588e+00
  2.081703e+01    1.078739e+00
  2.083291e+01    1.078101e+00
  2.084878e+01    1.081384e+00
  2.086466e+01    1.085280e+00
  2.088054e+01    1.088306e+00
  2.089641e+01    1.113735e+00
  2.091229e+01    1.114123e+00
  2.092816e+01    1.103135e+00
  2.094404e+01    1.098261e+00
  2.095991e+01    1.083951e+00
  2.097579e+01    1.089919e+00
  2.099166e+01    1.099430e+00
  2.100754e+01    1.101724e+00
  2.102342e+01    1.076100e+00
  2.103929e+01    1.116461e+00
  2.105517e+01    1.135525e+00
  2.107104e+01    1.074019e+00
  2.108692e+01    1.078737e+00
  2.110279e+01    1.096529e+00
  2.111867e+01    1.079234e+00
  2.113455e+01    1.097725e+00
  2.115042e+01    1.119177e+00
  2.116630e+01    1.106772e+00
  2.118217e+01    1.104614e+00
  2.119805e+01    1.095669e+00
  2.121392e+01    1.107308e+00
  2.122980e+01    1.140892e+00
  2.124567e+01    1.140146e+00
  2.126155e+01    1.136392e+00
  2.127743e+01    1.143303e+00
  2.129330e+01    1.119021e+00
  2.130918e+01    1.109190e+00
  2.132505e+01    1.146335e+00
  2.134093e+01    1.158044e+00
  2.135680e+01    1.150369e+00
  2.137268e+01    1.160641e+00
  2.138855e+01    1.156149e+00
  2.140443e+01    1.188407e+00
  2.142031e+01    1.204206e+00
  2.143618e+01    1.226652e+00
  2.145206e+01    1.218810e+00
  2.146793e+01    1.226663e+00
  2.148381e+01    1.275361e+00
  2.149968e+01    1.290637e+00
  2.151556e+01    1.301461e+00
  2.153143e+01    1.302041e+00
  2.154731e+01    1.364954e+00
  2.156319e+01    1.407938e+00
  2.157906e+01    1.446252e+00
  2.159494e+01    1.511439e+00
  2.161081e+01    1.542677e+00
  2.162669e+01    1.620349e+00
  2.164256e+01    1.700198e+00
  2.165844e+01    1.830712e+00
  2.167431e+01    1.965151e+00
  2.169019e+01    2.114370e+00
  2.170607e+01    2.310759e+00
  2.172194e+01    2.556267e+00
  2.173782e+01    2.845108e+00
  2.175369e+01    3.199740e+00
  2.176957e+01    3.687837e+00
  2.178544e+01    4.221144e+00
  2.180132e+01    4.840799e+00
  2.181719e+01    5.507057e+00
  2.183307e+01    6.366443e+00
  2.184895e+01    7.145506e+00
  2.186482e+01    8.009636e+00
  2.188070e+01    8.920838e+00
  2.189657e+01    9.860692e+00
  2.191245e+01    1.063075e+01
  2.192832e+01    1.098015e+01
  2.194420e+01    1.091462e+01
  2.196007e+01    1.043878e+01
  2.197595e+01    9.493315e+00
  2.199183e+01    8.349799e+00
  2.200770e+01    7.098054e+00
  2.202358e+01    6.012314e+00
  2.203945e+01    5.082179e+00
  2.205533e+01    4.343194e+00
  2.207120e+01    3.747089e+00
  2.208708e+01    3.289361e+00
  2.210296e+01    2.873700e+00
  2.211883e+01    2.585934e+00
  2.213471e+01    2.345445e+00
  2.215058e+01    2.164751e+00
  2.216646e+01    1.994551e+00
  2.218233e+01    1.849734e+00
  2.219821e+01    1.734773e+00
  2.221408e+01    1.648088e+00
  2.222996e+01    1.559934e+00
  2.224584e+01    1.476981e+00
  2.226171e+01    1.406356e+00
  2.227759e+01    1.370415e+00
  2.229346e+01    1.328126e+00
  2.230934e+01    1.288717e+00
  2.232521e+01    1.244711e+00
  2.234109e+01    1.213241e+00
  2.235696e+01    1.201132e+00
  2.237284e+01    1.178741e+00
  2.238872e+01    1.170350e+00
  2.240459e+01    1.146149e+00
  2.242047e+01    1.111698e+00
  2.243634e+01    1.122799e+00
  2.245222e+01    1.088935e+00
  2.246809e+01    1.088517e+00
  2.248397e+01    1.065986e+00
  2.249984e+01    1.062602e+00
  2.251572e+01    1.065273e+00
  2.253160e+01    1.057585e+00
  2.254747e+01    1.046014e+00
  2.256335e+01    1.028836e+00
  2.257922e+01    1.012421e+00
  2.259510e+01    1.028175e+00
  2.261097e+01    1.015368e+00
  2.262685e+01    1.026736e+00
  2.264272e+01    1.030742e+00
  2.265860e+01    1.015010e+00
  2.267448e+01    1.014545e+00
  2.269035e+01    1.003837e+00
  2.270623e+01    9.910609e-01
  2.272210e+01    1.002049e+00
  2.273798e+01    9.879478e-01
  2.275385e+01    9.710490e-01
  2.276973e+01    9.773819e-01
  2.278560e+01    9.666380e-01
  2.280148e+01    9.593499e-01
  2.281736e+01    9.492769e-01
  2.283323e+01    9.519761e-01
  2.284911e+01    9.634522e-01
  2.286498e+01    9.528963e-01
  2.288086e+01    9.439961e-01
  2.289673e+01    9.347191e-01
  2.291261e+01    9.413804e-01
  2.292848e+01    9.333681e-01
  2.294436e+01    9.361371e-01
  2.296024e+01    9.382474e-01
  2.297611e+01    9.386978e-01
  2.299199e+01    9.291432e-01
  2.300786e+01    9.231446e-01
  2.302374e+01    9.238998e-01
  2.303961e+01    9.099626e-01
  2.305549e+01    9.259626e-01
  2.307137e+01    9.097225e-01
  2.308724e+01    9.100034e-01
  2.310312e+01    9.080002e-01
  2.311899e+01    9.072877e-01
  2.313487e+01    9.043306e-01
  2.315074e+01    9.000166e-01
  2.316662e+01    9.097447e-01
  2.318249e+01    9.026528e-01
  2.319837e+01    8.838656e-01
  2.321425e+01    8.812243e-01
  2.323012e+01    8.764621e-01
  2.324600e+01    8.739912e-01
  2.326187e+01    9.000289e-01
  2.327775e+01    9.020975e-01
  2.329362e+01    8.739390e-01
  2.330950e+01    8.676760e-01
  2.332537e+01    8.923079e-01
  2.334125e+01    8.922017e-01
  2.335713e+01    8.698288e-01
  2.337300e+01    8.532868e-01
  2.338888e+01    8.518493e-01
  2.340475e+01    8.806576e-01
  2.342063e+01    8.760379e-01
  2.343650e+01    8.903497e-01
  2.345238e+01    8.812942e-01
  2.346825e+01    8.671872e-01
  2.348413e+01    8.799722e-01
  2.350001e+01    8.701216e-01
  2.351588e+01    8.628242e-01
  2.353176e+01    8.766115e-01
  2.354763e+01    8.607340e-01
  2.356351e+01    8.462443e-01
  2.357938e+01    8.471299e-01
  2.359526e+01    8.416126e-01
  2.361113e+01    8.665952e-01
  2.362701e+01    8.662105e-01
  2.364289e+01    8.576018e-01
  2.365876e+01    8.494349e-01
  2.367464e+01    8.421772e-01
  2.369051e+01    8.491052e-01
  2.370639e+01    8.404527e-01
  2.372226e+01    8.437849e-01
  2.373814e+01    8.168059e-01
  2.375401e+01    8.148475e-01
  2.376989e+01    8.153366e-01
  2.378577e+01    8.279507e-01
  2.380164e+01    8.405831e-01
  2.381752e+01    8.252943e-01
  2.383339e+01    8.223375e-01
  2.384927e+01    8.138740e-01
  2.386514e+01    8.096253e-01
  2.388102e+01    8.197167e-01
  2.389689e+01    8.107775e-01
  2.391277e+01    8.216299e-01
  2.392865e+01    8.041201e-01
  2.394452e+01    8.147464e-01
  2.396040e+01    8.238169e-01
  2.397627e+01    8.080804e-01
  2.399215e+01    8.119107e-01
  2.400802e+01    8.075302e-01
  2.402390e+01    8.012103e-01
  2.403978e+01    7.908831e-01
  2.405565e+01    8.093298e-01
  2.407153e+01    7.953609e-01
  2.408740e+01    7.751805e-01
  2.410328e+01    7.800534e-01
  2.411915e+01    8.096144e-01
  2.413503e+01    7.841087e-01
  2.415090e+01    7.744476e-01
  2.416678e+01    7.927052e-01
  2.418266e+01    8.069526e-01
  2.419853e+01    8.050931e-01
  2.421441e+01    8.195809e-01
  2.423028e+01    8.127655e-01
  2.424616e+01    7.949536e-01
  2.426203e+01    8.083668e-01
  2.427791e+01    8.022481e-01
  2.429378e+01    7.939357e-01
  2.430966e+01    7.955128e-01
  2.432554e+01    8.078548e-01
  2.434141e+01    8.210452e-01
  2.435729e+01    8.261467e-01
  2.437316e+01    8.204404e-01
  2.438904e+01    8.099000e-01
  2.440491e+01    7.905477e-01
  2.442079e+01    7.908919e-01
  2.443666e+01    8.116671e-01
  2.445254e+01    7.970321e-01
  2.446842e+01    7.835879e-01
  2.448429e+01    7.978330e-01
  2.450017e+01    8.095475e-01
  2.451604e+01    8.103126e-01
  2.453192e+01    7.999208e-01
  2.454779e+01    8.074294e-01
  2.456367e+01    8.037274e-01
  2.457954e+01    7.946280e-01
  2.459542e+01    7.854630e-01
  2.461130e+01    7.887835e-01
  2.462717e+01    8.010533e-01
  2.464305e+01    8.141353e-01
  2.465892e+01    8.281269e-01
  2.467480e+01    8.231680e-01
  2.469067e+01    8.187929e-01
  2.470655e+01    8.082308e-01
  2.472242e+01    8.040011e-01
  2.473830e+01    8.043265e-01
  2.475418e+01    8.115360e-01
  2.477005e+01    8.179944e-01
  2.478593e+01    8.138282e-01
  2.480180e+01    8.203920e-01
  2.481768e+01    8.031689e-01
  2.483355e+01    8.176177e-01
  2.484943e+01    8.032094e-01
  2.486530e+01    8.044145e-01
  2.488118e+01    8.124853e-01
  2.489706e+01    7.971380e-01
  2.491293e+01    8.149300e-01
  2.492881e+01    8.154034e-01
  2.494468e+01    8.185984e-01
  2.496056e+01    8.246962e-01
  2.497643e+01    8.279668e-01
  2.499231e+01    8.264217e-01
  2.500819e+01    8.124450e-01
  2.502406e+01    8.220497e-01
  2.503994e+01    8.385309e-01
  2.505581e+01    8.238034e-01
  2.507169e+01    8.193685e-01
  2.508756e+01    8.287000e-01
  2.510344e+01    8.209686e-01
  2.511931e+01    8.317406e-01
  2.513519e+01    8.267420e-01
  2.515107e+01    8.352274e-01
  2.516694e+01    8.546187e-01
  2.518282e+01    8.430550e-01
  2.519869e+01    8.368683e-01
  2.521457e+01    8.231297e-01
  2.523044e+01    8.427006e-01
  2.524632e+01    8.566017e-01
  2.526219e+01    8.654396e-01
  2.527807e+01    8.738407e-01
  2.529395e+01    8.665112e-01
  2.530982e+01    8.823305e-01
  2.532570e+01    8.876231e-01
  2.534157e+01    8.839492e-01
  2.535745e+01    8.963897e-01
  2.537332e+01    8.902624e-01
  2.538920e+01    9.063120e-01
  2.540507e+01    9.243896e-01
  2.542095e+01    9.352809e-01
  2.543683e+01    9.419242e-01
  2.545270e+01    9.367469e-01
  2.546858e+01    9.484910e-01
  2.548445e+01    9.470803e-01
  2.550033e+01    9.510713e-01
  2.551620e+01    9.851982e-01
  2.553208e+01    1.005820e+00
  2.554795e+01    1.018029e+00
  2.556383e+01    1.046736e+00
  2.557971e+01    1.073315e+00
  2.559558e+01    1.111043e+00
  2.561146e+01    1.112314e+00
  2.562733e+01    1.144073e+00
  2.564321e+01    1.200269e+00
  2.565908e+01    1.229922e+00
  2.567496e+01    1.248804e+00
  2.569083e+01    1.321620e+00
  2.570671e+01    1.400787e+00
  2.572259e+01    1.482861e+00
  2.573846e+01    1.557094e+00
  2.575434e+01    1.674042e+00
  2.577021e+01    1.844784e+00
  2.578609e+01    2.015430e+00
  2.580196e+01    2.218588e+00
  2.581784e+01    2.486353e+00
  2.583371e+01    2.767184e+00
  2.584959e+01    3.179468e+00
  2.586547e+01    3.631134e+00
  2.588134e+01    4.136852e+00
  2.589722e+01    4.799928e+00
  2.591309e+01    5.526265e+00
  2.592897e+01    6.331706e+00
  2.594484e+01    7.242414e+00
  2.596072e+01    7.925692e+00
  2.597660e+01    8.609340e+00
  2.599247e+01    9.011300e+00
  2.600835e+01    9.113410e+00
  2.602422e+01    8.969262e+00
  2.604010e+01    8.388766e+00
  2.605597e+01    7.520348e+00
  2.607185e+01    6.629207e+00
  2.608772e+01    5.667770e+00
  2.610360e+01    4.821526e+00
  2.611948e+01    4.176826e+00
  2.613535e+01    3.544622e+00
  2.615123e+01    3.074564e+00
  2.616710e+01    2.747147e+00
  2.618298e+01    2.415631e+00
  2.619885e+01    2.146954e+00
  2.621473e+01    1.966116e+00
  2.623060e+01    1.800516e+00
  2.624648e+01    1.669907e+00
  2.626236e+01    1.570784e+00
  2.627823e+01    1.492607e+00
  2.629411e+01    1.407138e+00
  2.630998e+01    1.353636e+00
  2.632586e+01    1.265938e+00
  2.634173e+01    1.207753e+00
  2.635761e+01    1.187501e+00
  2.637348e+01    1.144925e+00
  2.638936e+01    1.138691e+00
  2.640524e+01    1.085051e+00
  2.642111e+01    1.052366e+00
  2.643699e+01    1.069933e+00
  2.645286e+01    1.044304e+00
  2.646874e+01    1.028957e+00
  2.648461e+01    1.004562e+00
  2.650049e+01    9.950336e-01
  2.651636e+01    9.974739e-01
  2.653224e+01    9.930358e-01
  2.654812e+01    1.001297e+00
  2.656399e+01    9.575090e-01
  2.657987e+01    9.434097e-01
  2.659574e+01    9.564173e-01
  2.661162e+01    9.604730e-01
  2.662749e+01    9.482391e-01
  2.664337e+01    9.003202e-01
  2.665924e+01    9.432204e-01
  2.667512e+01    9.387624e-01
  2.669100e+01    9.318716e-01
  2.670687e+01    9.395753e-01
  2.672275e+01    9.224501e-01
  2.673862e+01    9.208682e-01
  2.675450e+01    9.537550e-01
  2.677037e+01    9.361134e-01
  2.678625e+01    9.227855e-01
  2.680212e+01    9.205138e-01
  2.681800e+01    9.390281e-01
  2.683388e+01    9.196702e-01
  2.684975e+01    8.906787e-01
  2.686563e+01    9.212038e-01
  2.688150e+01    9.364846e-01
  2.689738e+01    9.353944e-01
  2.691325e+01    9.424307e-01
  2.692913e+01    9.438013e-01
  2.694501e+01    9.520685e-01
  2.696088e+01    9.727894e-01
  2.697676e+01    9.883924e-01
  2.699263e+01    9.986874e-01
  2.700851e+01    1.021461e+00
  2.702438e+01    1.034833e+00
  2.704026e+01    1.064116e+00
  2.705613e+01    1.090230e+00
  2.707201e+01    1.168000e+00
  2.708789e+01    1.211503e+00
  2.710376e+01    1.265108e+00
  2.711964e+01    1.345895e+00
  2.713551e+01    1.428476e+00
  2.715139e+01    1.563414e+00
  2.716726e+01    1.704160e+00
  2.718314e+01    1.873464e+00
  2.719901e+01    2.038629e+00
  2.721489e+01    2.217222e+00
  2.723077e+01    2.420490e+00
  2.724664e+01    2.508447e+00
  2.726252e+01    2.590047e+00
  2.727839e+01    2.605353e+00
  2.729427e+01    2.512231e+00
  2.731014e+01    2.338107e+00
  2.732602e+01    2.134927e+00
  2.734189e+01    1.963977e+00
  2.735777e+01    1.804535e+00
  2.737365e+01    1.628989e+00
  2.738952e+01    1.510182e+00
  2.740540e+01    1.394662e+00
  2.742127e+01    1.278416e+00
  2.743715e+01    1.209749e+00
  2.745302e+01    1.154150e+00
  2.746890e+01    1.101373e+00
  2.748477e+01    1.057937e+00
  2.750065e+01    1.029386e+00
  2.751653e+01    9.933067e-01
  2.753240e+01    9.820932e-01
  2.754828e+01    9.643192e-01
  2.756415e+01    9.562931e-01
  2.758003e+01    9.236686e-01
  2.759590e+01    9.269470e-01
  2.761178e+01    8.857219e-01
  2.762765e+01    8.813072e-01
  2.764353e+01    8.862060e-01
  2.765941e+01    8.627234e-01
  2.767528e+01    8.387172e-01
  2.769116e+01    8.397284e-01
  2.770703e+01    8.395719e-01
  2.772291e+01    8.146719e-01
  2.773878e+01    8.487981e-01
  2.775466e+01    8.649777e-01
  2.777054e+01    8.481583e-01
  2.778641e+01    8.398163e-01
  2.780229e+01    8.482317e-01
  2.781816e+01    8.344340e-01
  2.783404e+01    8.525634e-01
  2.784991e+01    8.564822e-01
  2.786579e+01    8.380989e-01
  2.788166e+01    8.152276e-01
  2.789754e+01    8.077634e-01
  2.791342e+01    8.380072e-01
  2.792929e+01    8.371316e-01
  2.794517e+01    8.296335e-01
  2.796104e+01    8.252964e-01
  2.797692e+01    8.166890e-01
  2.799279e+01    8.072030e-01
  2.800867e+01    8.135939e-01
  2.802454e+01    8.262172e-01
  2.804042e+01    8.071359e-01
  2.805630e+01    7.940476e-01
  2.807217e+01    7.942954e-01
  2.808805e+01    8.023728e-01
  2.810392e+01    7.902459e-01
  2.811980e+01    7.821517e-01
  2.813567e+01    7.826481e-01
  2.815155e+01    7.831145e-01
  2.816742e+01    7.863652e-01
  2.818330e+01    7.895201e-01
  2.819918e+01    7.867425e-01
  2.821505e+01    7.910086e-01
  2.823093e+01    7.940313e-01
  2.824680e+01    7.942889e-01
  2.826268e+01    7.960960e-01
  2.827855e+01    8.082765e-01
  2.829443e+01    7.985864e-01
  2.831030e+01    7.943506e-01
  2.832618e+01    7.914057e-01
  2.834206e+01    7.839609e-01
  2.835793e+01    7.910972e-01
  2.837381e+01    7.938588e-01
  2.838968e+01    7.999560e-01
  2.840556e+01    7.815866e-01
  2.842143e+01    7.742847e-01
  2.843731e+01    7.923146e-01
  2.845318e+01    7.940412e-01
  2.846906e+01    7.780848e-01
  2.848494e+01    7.845680e-01
  2.850081e+01    7.849686e-01
  2.851669e+01    7.700654e-01
  2.853256e+01    7.830200e-01
  2.854844e+01    7.765791e-01
  2.856431e+01    7.858226e-01
  2.858019e+01    7.654039e-01
  2.859606e+01    7.761124e-01
  2.861194e+01    7.501144e-01
  2.862782e+01    7.656363e-01
  2.864369e+01    7.787172e-01
  2.865957e+01    7.818443e-01
  2.867544e+01    7.711320e-01
  2.869132e+01    7.698523e-01
  2.870719e+01    7.642862e-01
  2.872307e+01    7.534741e-01
  2.873895e+01    7.489834e-01
  2.875482e+01    7.744668e-01
  2.877070e+01    7.745429e-01
  2.878657e+01    7.638705e-01
  2.880245e+01    7.676306e-01
  2.881832e+01    7.526658e-01
  2.883420e+01    7.533865e-01
  2.885007e+01    7.539049e-01
  2.886595e+01    7.338961e-01
  2.888183e+01    7.578445e-01
  2.889770e+01    7.739365e-01
  2.891358e+01    7.670604e-01
  2.892945e+01    7.633296e-01
  2.894533e+01    7.757587e-01
  2.896120e+01    7.713205e-01
  2.897708e+01    7.471331e-01
  2.899295e+01    7.540936e-01
  2.900883e+01    7.342602e-01
  2.902471e+01    7.486253e-01
  2.904058e+01    7.690706e-01
  2.905646e+01    7.512443e-01
  2.907233e+01    7.549211e-01
  2.908821e+01    7.704535e-01
  2.910408e+01    7.612550e-01
  2.911996e+01    7.444301e-01
  2.913583e+01    7.587482e-01
  2.915171e+01    7.355472e-01
  2.916759e+01    7.440937e-01
  2.918346e+01    7.477838e-01
  2.919934e+01    7.488157e-01
  2.921521e+01    7.292372e-01
  2.923109e+01    7.382457e-01
  2.924696e+01    7.425762e-01
  2.926284e+01    7.599609e-01
  2.927871e+01    7.648423e-01
  2.929459e+01    7.320600e-01
  2.931047e+01    7.311587e-01
  2.932634e+01    7.603472e-01
  2.934222e+01    7.533909e-01
  2.935809e+01    7.493641e-01
  2.937397e+01    7.492629e-01
  2.938984e+01    7.228795e-01
  2.940572e+01    7.200941e-01
  2.942159e+01    7.243085e-01
  2.943747e+01    7.306646e-01
  2.945335e+01    7.336856e-01
  2.946922e+01    7.374483e-01
  2.948510e+01    7.469626e-01
  2.950097e+01    7.446409e-01
  2.951685e+01    7.357176e-01
  2.953272e+01    7.371287e-01
  2.954860e+01    7.426033e-01
  2.956447e+01    7.309368e-01
  2.958035e+01    7.322360e-01
  2.959623e+01    7.422007e-01
  2.961210e+01    7.695602e-01
  2.962798e+01    7.373443e-01
  2.964385e+01    7.458410e-01
  2.965973e+01    7.320822e-01
  2.967560e+01    7.316657e-01
  2.969148e+01    7.339239e-01
  2.970736e+01    7.365614e-01
  2.972323e+01    7.424994e-01
  2.973911e+01    7.494281e-01
  2.975498e+01    7.500310e-01
  2.977086e+01    7.262841e-01
  2.978673e+01    7.332185e-01
  2.980261e+01    7.269833e-01
  2.981848e+01    7.115318e-01
  2.983436e+01    7.099870e-01
  2.985024e+01    7.313375e-01
  2.986611e+01    7.325491e-01
  2.988199e+01    7.335125e-01
  2.989786e+01    7.390153e-01
  2.991374e+01    7.390465e-01
  2.992961e+01    7.241397e-01
  2.994549e+01    7.229182e-01
  2.996136e+01    7.203866e-01
  2.997724e+01    7.290214e-01
  2.999312e+01    7.402437e-01
  3.000899e+01    7.529327e-01
  3.002487e+01    7.351580e-01
  3.004074e+01    7.294249e-01
  3.005662e+01    7.605816e-01
  3.007249e+01    7.381697e-01
  3.008837e+01    7.316920e-01
  3.010424e+01    7.481753e-01
  3.012012e+01    7.668290e-01
  3.013600e+01    7.289196e-01
  3.015187e+01    7.214143e-01
  3.016775e+01    7.228180e-01
  3.018362e+01    7.254770e-01
  3.019950e+01    7.304927e-01
  3.021537e+01    7.200138e-01
  3.023125e+01    7.099254e-01
  3.024712e+01    7.059792e-01
  3.026300e+01    7.154584e-01
  3.027888e+01    7.220953e-01
  3.029475e+01    7.365341e-01
  3.031063e+01    7.129285e-01
  3.032650e+01    7.090212e-01
  3.034238e+01    7.186677e-01
  3.035825e+01    7.186513e-01
  3.037413e+01    7.333818e-01
  3.039000e+01    7.238685e-01
  3.040588e+01    7.383991e-01
  3.042176e+01    7.364820e-01
  3.043763e+01    7.345806e-01
  3.045351e+01    7.344686e-01
  3.046938e+01    7.292930e-01
  3.048526e+01    7.586998e-01
  3.050113e+01    7.441120e-01
  3.051701e+01    7.280921e-01
  3.053288e+01    7.069681e-01
  3.054876e+01    7.024426e-01
  3.056464e+01    7.019755e-01
  3.058051e+01    7.346029e-01
  3.059639e+01    7.088128e-01
  3.061226e+01    7.138887e-01
  3.062814e+01    7.251225e-01
  3.064401e+01    7.265886e-01
  3.065989e+01    7.289699e-01
  3.067577e+01    7.399185e-01
  3.069164e+01    7.300138e-01
  3.070752e+01    7.196062e-01
  3.072339e+01    7.437444e-01
  3.073927e+01    7.410756e-01
  3.075514e+01    7.410012e-01
  3.077102e+01    7.219200e-01
  3.078689e+01    7.218484e-01
  3.080277e+01    7.212312e-01
  3.081865e+01    7.121812e-01
  3.083452e+01    7.292148e-01
  3.085040e+01    7.430851e-01
  3.086627e+01    7.510058e-01
  3.088215e+01    7.467113e-01
  3.089802e+01    7.409475e-01
  3.091390e+01    7.459290e-01
  3.092977e+01    7.162855e-01
  3.094565e+01    7.404462e-01
  3.096153e+01    7.165045e-01
  3.097740e+01    7.337446e-01
  3.099328e+01    7.319109e-01
  3.100915e+01    7.292947e-01
  3.102503e+01    7.111268e-01
  3.104090e+01    7.175279e-01
  3.105678e+01    7.299826e-01
  3.107265e+01    7.159795e-01
  3.108853e+01    7.199622e-01
  3.110441e+01    7.252741e-01
  3.112028e+01    7.460828e-01
  3.113616e+01    7.659032e-01
  3.115203e+01    7.366357e-01
  3.116791e+01    7.305712e-01
  3.118378e+01    7.315910e-01
  3.119966e+01    7.469232e-01
  3.121553e+01    7.458154e-01
  3.123141e+01    7.394511e-01
  3.124729e+01    7.277337e-01
  3.126316e+01    7.273599e-01
  3.127904e+01    7.445735e-01
  3.129491e+01    7.406713e-01
  3.131079e+01    7.321112e-01
  3.132666e+01    7.328504e-01
  3.134254e+01    7.374157e-01
  3.135841e+01    7.337111e-01
  3.137429e+01    7.566309e-01
  3.139017e+01    7.401293e-01
  3.140604e+01    7.435946e-01
  3.142192e+01    7.342420e-01
  3.143779e+01    7.494155e-01
  3.145367e+01    7.575499e-01
  3.146954e+01    7.732079e-01
  3.148542e+01    7.845472e-01
  3.150129e+01    7.807463e-01
  3.151717e+01    7.790000e-01
  3.153305e+01    7.718888e-01
  3.154892e+01    7.839494e-01
  3.156480e+01    7.902181e-01
  3.158067e+01    7.872868e-01
  3.159655e+01    7.929754e-01
  3.161242e+01    8.315756e-01
  3.162830e+01    8.343642e-01
  3.164418e+01    8.567526e-01
  3.166005e+01    8.391382e-01
  3.167593e+01    8.817801e-01
  3.169180e+01    8.985336e-01
  3.170768e+01    9.162716e-01
  3.172355e+01    9.352931e-01
  3.173943e+01    9.652240e-01
  3.175530e+01    1.021407e+00
  3.177118e+01    1.071259e+00
  3.178706e+01    1.109985e+00
  3.180293e+01    1.218651e+00
  3.181881e+01    1.316941e+00
  3.183468e+01    1.411643e+00
  3.185056e+01    1.542130e+00
  3.186643e+01    1.698276e+00
  3.188231e+01    1.866918e+00
  3.189818e+01    2.045305e+00
  3.191406e+01    2.240900e+00
  3.192994e+01    2.392180e+00
  3.194581e+01    2.540307e+00
  3.196169e+01    2.590851e+00
  3.197756e+01    2.584125e+00
  3.199344e+01    2.490920e+00
  3.200931e+01    2.319412e+00
  3.202519e+01    2.120154e+00
  3.204106e+01    1.932030e+00
  3.205694e+01    1.750437e+00
  3.207282e+01    1.588645e+00
  3.208869e+01    1.410237e+00
  3.210457e+01    1.269235e+00
  3.212044e+01    1.193955e+00
  3.213632e+01    1.126455e+00
  3.215219e+01    1.052802e+00
  3.216807e+01    9.905428e-01
  3.218394e+01    9.513007e-01
  3.219982e+01    9.187426e-01
  3.221570e+01    9.153990e-01
  3.223157e+01    9.038264e-01
  3.224745e+01    8.724458e-01
  3.226332e+01    8.429008e-01
  3.227920e+01    8.179714e-01
  3.229507e+01    8.070215e-01
  3.231095e+01    8.057922e-01
  3.232682e+01    8.088688e-01
  3.234270e+01    8.086935e-01
  3.235858e+01    7.695981e-01
  3.237445e+01    7.682959e-01
  3.239033e+01    7.632029e-01
  3.240620e+01    7.482336e-01
  3.242208e+01    7.525244e-01
  3.243795e+01    7.664387e-01
  3.245383e+01    7.343130e-01
  3.246970e+01    7.625911e-01
  3.248558e+01    7.490565e-01
  3.250146e+01    7.516462e-01
  3.251733e+01    7.693689e-01
  3.253321e+01    7.427607e-01
  3.254908e+01    7.464383e-01
