# == pyFAI calibration ==
# Distance Sample to Detector: 0.3999999939076516 m
# PONI: 9.750e-02, 1.135e-01 m
# Rotations: -0.000175 0.000000 -0.000000 rad
# 
# == Fit2d calibration ==
# Distance Sample-beamCenter: 400.000 mm
# Center: x=1514.000, y=1300.000 pix
# Tilt: 0.010 deg  TiltPlanRot: 0.010 deg
# 
# Detector Detector	 Spline= None	 PixelSize= 7.500e-05, 7.500e-05 m
#    Detector has a mask: False 
#    Detector has a dark current: False 
#    detector has a flat field: False 
# 
# Wavelength: 6.888e-11 m
# Mask applied: user provided
# Dark current applied: False
# Flat field applied: False
# Polarization factor: 0.99
# Normalization factor: 1.0
# --> /home/myspot/data/2024_07_Rosario/Ru-CGO-ex/2024-07-27_002_Ru-CGO-ex_Activtation_ramp_000002_data_000075.dat
#       q_nm^-1             I 
  2.003187e-02    0.000000e+00
  3.590745e-02    7.159096e-02
  5.178302e-02    7.652842e-02
  6.765859e-02    1.226932e-01
  8.353417e-02    1.230289e-01
  9.940974e-02    1.228605e-01
  1.152853e-01    1.195532e-01
  1.311609e-01    5.839701e-02
  1.470365e-01    3.849828e-02
  1.629120e-01    2.712052e-02
  1.787876e-01    1.083039e-01
  1.946632e-01    2.972584e-02
  2.105388e-01    3.813315e-02
  2.264143e-01    4.552574e-02
  2.422899e-01    5.900582e-02
  2.581655e-01    4.281968e-02
  2.740411e-01    2.847151e-02
  2.899166e-01    3.097322e-02
  3.057922e-01    2.241258e-02
  3.216678e-01    4.226224e-02
  3.375433e-01    2.119857e-02
  3.534189e-01    2.986650e-02
  3.692945e-01    3.378113e-02
  3.851701e-01    2.620628e-02
  4.010456e-01    3.049558e-02
  4.169212e-01    3.136689e-02
  4.327968e-01    4.125510e-02
  4.486724e-01    3.553583e-02
  4.645479e-01    2.961453e-02
  4.804235e-01    2.317317e-02
  4.962991e-01    2.248387e-02
  5.121747e-01    2.239406e-02
  5.280502e-01    4.228118e-02
  5.439258e-01    3.270316e-02
  5.598014e-01    3.034179e-02
  5.756770e-01    2.841973e-02
  5.915525e-01    5.814308e-02
  6.074281e-01    4.827442e-02
  6.233037e-01    3.248789e-02
  6.391793e-01    5.623525e-02
  6.550548e-01    4.263022e-02
  6.709304e-01    2.815870e-02
  6.868060e-01    3.615097e-02
  7.026815e-01    2.796510e-02
  7.185571e-01    1.820749e-02
  7.344327e-01    4.137747e-02
  7.503083e-01    5.225518e-02
  7.661838e-01    6.108622e-02
  7.820594e-01    1.001323e-01
  7.979350e-01    1.342388e-01
  8.138106e-01    1.639015e-01
  8.296861e-01    2.222444e-01
  8.455617e-01    2.986124e-01
  8.614373e-01    3.544777e-01
  8.773129e-01    4.275921e-01
  8.931884e-01    5.062225e-01
  9.090640e-01    5.404297e-01
  9.249396e-01    6.200514e-01
  9.408152e-01    7.157855e-01
  9.566907e-01    8.097435e-01
  9.725663e-01    8.519436e-01
  9.884419e-01    8.974122e-01
  1.004317e+00    1.007637e+00
  1.020193e+00    1.111476e+00
  1.036069e+00    1.141854e+00
  1.051944e+00    1.273818e+00
  1.067820e+00    1.376004e+00
  1.083695e+00    1.355868e+00
  1.099571e+00    1.266081e+00
  1.115446e+00    1.424857e+00
  1.131322e+00    1.604183e+00
  1.147198e+00    1.599815e+00
  1.163073e+00    1.619044e+00
  1.178949e+00    1.643497e+00
  1.194824e+00    1.678029e+00
  1.210700e+00    1.876007e+00
  1.226575e+00    2.022857e+00
  1.242451e+00    2.243794e+00
  1.258327e+00    2.316471e+00
  1.274202e+00    2.372118e+00
  1.290078e+00    2.409415e+00
  1.305953e+00    2.457620e+00
  1.321829e+00    2.426050e+00
  1.337705e+00    2.525074e+00
  1.353580e+00    2.516734e+00
  1.369456e+00    2.523236e+00
  1.385331e+00    2.637440e+00
  1.401207e+00    2.606268e+00
  1.417082e+00    2.515339e+00
  1.432958e+00    2.561769e+00
  1.448834e+00    2.760317e+00
  1.464709e+00    2.850322e+00
  1.480585e+00    2.990777e+00
  1.496460e+00    2.854181e+00
  1.512336e+00    2.829839e+00
  1.528211e+00    2.942034e+00
  1.544087e+00    3.088287e+00
  1.559963e+00    2.963579e+00
  1.575838e+00    2.994689e+00
  1.591714e+00    2.997649e+00
  1.607589e+00    2.956259e+00
  1.623465e+00    3.020353e+00
  1.639340e+00    2.902970e+00
  1.655216e+00    2.828264e+00
  1.671092e+00    2.885865e+00
  1.686967e+00    2.802326e+00
  1.702843e+00    2.878006e+00
  1.718718e+00    2.863714e+00
  1.734594e+00    2.658333e+00
  1.750469e+00    2.767265e+00
  1.766345e+00    2.783453e+00
  1.782221e+00    2.917420e+00
  1.798096e+00    2.905419e+00
  1.813972e+00    2.886125e+00
  1.829847e+00    2.758950e+00
  1.845723e+00    2.788630e+00
  1.861598e+00    2.800899e+00
  1.877474e+00    2.928546e+00
  1.893350e+00    2.784596e+00
  1.909225e+00    2.803944e+00
  1.925101e+00    2.784601e+00
  1.940976e+00    2.759773e+00
  1.956852e+00    2.779940e+00
  1.972727e+00    2.737247e+00
  1.988603e+00    2.729999e+00
  2.004479e+00    2.690736e+00
  2.020354e+00    2.751835e+00
  2.036230e+00    2.767524e+00
  2.052105e+00    2.727905e+00
  2.067981e+00    2.713791e+00
  2.083856e+00    2.655627e+00
  2.099732e+00    2.661365e+00
  2.115608e+00    2.724138e+00
  2.131483e+00    2.832652e+00
  2.147359e+00    2.769252e+00
  2.163234e+00    2.827005e+00
  2.179110e+00    2.770518e+00
  2.194985e+00    2.823591e+00
  2.210861e+00    2.857669e+00
  2.226737e+00    2.912111e+00
  2.242612e+00    2.883789e+00
  2.258488e+00    2.831861e+00
  2.274363e+00    2.790620e+00
  2.290239e+00    2.733822e+00
  2.306115e+00    2.694304e+00
  2.321990e+00    2.741863e+00
  2.337866e+00    2.799105e+00
  2.353741e+00    2.707504e+00
  2.369617e+00    2.803561e+00
  2.385492e+00    2.879801e+00
  2.401368e+00    2.925529e+00
  2.417244e+00    2.790720e+00
  2.433119e+00    2.748718e+00
  2.448995e+00    2.776609e+00
  2.464870e+00    2.736912e+00
  2.480746e+00    2.772295e+00
  2.496621e+00    2.698104e+00
  2.512497e+00    2.723816e+00
  2.528373e+00    2.805073e+00
  2.544248e+00    2.755534e+00
  2.560124e+00    2.710762e+00
  2.575999e+00    2.816056e+00
  2.591875e+00    2.845217e+00
  2.607750e+00    2.766726e+00
  2.623626e+00    2.871597e+00
  2.639502e+00    2.821764e+00
  2.655377e+00    2.842897e+00
  2.671253e+00    2.811861e+00
  2.687128e+00    2.778921e+00
  2.703004e+00    2.859825e+00
  2.718879e+00    2.935099e+00
  2.734755e+00    2.829599e+00
  2.750631e+00    2.763171e+00
  2.766506e+00    2.860181e+00
  2.782382e+00    2.877154e+00
  2.798257e+00    2.844734e+00
  2.814133e+00    2.886483e+00
  2.830008e+00    2.742924e+00
  2.845884e+00    2.790668e+00
  2.861760e+00    2.895313e+00
  2.877635e+00    2.855686e+00
  2.893511e+00    2.799632e+00
  2.909386e+00    2.831685e+00
  2.925262e+00    2.868336e+00
  2.941137e+00    2.880556e+00
  2.957013e+00    2.890038e+00
  2.972889e+00    2.830756e+00
  2.988764e+00    2.875039e+00
  3.004640e+00    2.925451e+00
  3.020515e+00    2.901186e+00
  3.036391e+00    2.904527e+00
  3.052266e+00    2.789726e+00
  3.068142e+00    2.868418e+00
  3.084018e+00    2.904208e+00
  3.099893e+00    2.836864e+00
  3.115769e+00    2.862835e+00
  3.131644e+00    2.855496e+00
  3.147520e+00    2.877371e+00
  3.163395e+00    2.802229e+00
  3.179271e+00    2.808159e+00
  3.195147e+00    2.858410e+00
  3.211022e+00    2.892526e+00
  3.226898e+00    2.866583e+00
  3.242773e+00    2.861503e+00
  3.258649e+00    2.880049e+00
  3.274525e+00    2.858441e+00
  3.290400e+00    2.933385e+00
  3.306276e+00    2.907867e+00
  3.322151e+00    2.960896e+00
  3.338027e+00    2.964351e+00
  3.353902e+00    2.925730e+00
  3.369778e+00    2.975091e+00
  3.385654e+00    3.043402e+00
  3.401529e+00    3.019593e+00
  3.417405e+00    2.927587e+00
  3.433280e+00    2.989107e+00
  3.449156e+00    2.928045e+00
  3.465031e+00    2.962679e+00
  3.480907e+00    2.915096e+00
  3.496783e+00    2.864727e+00
  3.512658e+00    2.946012e+00
  3.528534e+00    2.975285e+00
  3.544409e+00    2.942867e+00
  3.560285e+00    2.925415e+00
  3.576160e+00    3.044736e+00
  3.592036e+00    3.047331e+00
  3.607912e+00    3.079874e+00
  3.623787e+00    2.981486e+00
  3.639663e+00    2.968479e+00
  3.655538e+00    2.994325e+00
  3.671414e+00    2.985656e+00
  3.687289e+00    2.902636e+00
  3.703165e+00    2.859697e+00
  3.719041e+00    2.951294e+00
  3.734916e+00    2.963003e+00
  3.750792e+00    3.009064e+00
  3.766667e+00    2.938828e+00
  3.782543e+00    2.950972e+00
  3.798418e+00    2.992954e+00
  3.814294e+00    3.002318e+00
  3.830170e+00    2.988619e+00
  3.846045e+00    3.052031e+00
  3.861921e+00    3.173483e+00
  3.877796e+00    3.056653e+00
  3.893672e+00    2.944674e+00
  3.909547e+00    2.943336e+00
  3.925423e+00    2.973693e+00
  3.941299e+00    3.054368e+00
  3.957174e+00    3.035404e+00
  3.973050e+00    2.983893e+00
  3.988925e+00    3.057837e+00
  4.004801e+00    3.162951e+00
  4.020676e+00    3.090805e+00
  4.036552e+00    2.989220e+00
  4.052428e+00    2.995096e+00
  4.068303e+00    3.017040e+00
  4.084179e+00    3.028130e+00
  4.100054e+00    3.008500e+00
  4.115930e+00    3.016982e+00
  4.131806e+00    3.097574e+00
  4.147681e+00    3.129822e+00
  4.163557e+00    3.029535e+00
  4.179432e+00    3.007522e+00
  4.195308e+00    3.151784e+00
  4.211183e+00    3.149541e+00
  4.227059e+00    3.017107e+00
  4.242935e+00    3.014180e+00
  4.258810e+00    3.035973e+00
  4.274686e+00    3.040030e+00
  4.290561e+00    3.069311e+00
  4.306437e+00    3.077197e+00
  4.322312e+00    3.117119e+00
  4.338188e+00    3.090230e+00
  4.354064e+00    3.118317e+00
  4.369939e+00    3.092392e+00
  4.385815e+00    3.033484e+00
  4.401690e+00    3.005769e+00
  4.417566e+00    3.015615e+00
  4.433441e+00    2.993361e+00
  4.449317e+00    3.027405e+00
  4.465193e+00    2.966794e+00
  4.481068e+00    3.013079e+00
  4.496944e+00    3.098244e+00
  4.512819e+00    3.111335e+00
  4.528695e+00    3.033429e+00
  4.544570e+00    3.066999e+00
  4.560446e+00    3.052500e+00
  4.576322e+00    3.096024e+00
  4.592197e+00    3.128529e+00
  4.608073e+00    3.066267e+00
  4.623948e+00    3.142900e+00
  4.639824e+00    3.086144e+00
  4.655699e+00    3.067099e+00
  4.671575e+00    3.100217e+00
  4.687451e+00    3.075517e+00
  4.703326e+00    3.094248e+00
  4.719202e+00    3.008671e+00
  4.735077e+00    3.274974e+00
  4.750953e+00    3.250541e+00
  4.766828e+00    3.059118e+00
  4.782704e+00    3.054331e+00
  4.798580e+00    3.095545e+00
  4.814455e+00    3.106130e+00
  4.830331e+00    3.158221e+00
  4.846206e+00    3.116499e+00
  4.862082e+00    3.121241e+00
  4.877957e+00    3.188612e+00
  4.893833e+00    3.112980e+00
  4.909709e+00    3.139602e+00
  4.925584e+00    3.169672e+00
  4.941460e+00    3.120635e+00
  4.957335e+00    3.091340e+00
  4.973211e+00    3.096203e+00
  4.989086e+00    3.078203e+00
  5.004962e+00    3.166951e+00
  5.020838e+00    3.121033e+00
  5.036713e+00    3.125660e+00
  5.052589e+00    3.120709e+00
  5.068464e+00    3.114601e+00
  5.084340e+00    3.015113e+00
  5.100216e+00    3.056309e+00
  5.116091e+00    3.164732e+00
  5.131967e+00    3.177363e+00
  5.147842e+00    3.351196e+00
  5.163718e+00    3.413637e+00
  5.179593e+00    3.128258e+00
  5.195469e+00    3.107255e+00
  5.211345e+00    3.078056e+00
  5.227220e+00    3.134199e+00
  5.243096e+00    3.169558e+00
  5.258971e+00    3.135184e+00
  5.274847e+00    3.108056e+00
  5.290722e+00    3.127967e+00
  5.306598e+00    3.082801e+00
  5.322474e+00    3.126229e+00
  5.338349e+00    3.180682e+00
  5.354225e+00    3.128257e+00
  5.370100e+00    3.095611e+00
  5.385976e+00    3.098185e+00
  5.401851e+00    3.077636e+00
  5.417727e+00    3.076517e+00
  5.433603e+00    3.091400e+00
  5.449478e+00    3.076551e+00
  5.465354e+00    3.082478e+00
  5.481229e+00    3.015602e+00
  5.497105e+00    3.073887e+00
  5.512980e+00    3.084768e+00
  5.528856e+00    3.062223e+00
  5.544732e+00    3.039618e+00
  5.560607e+00    3.077309e+00
  5.576483e+00    3.097524e+00
  5.592358e+00    3.000079e+00
  5.608234e+00    3.054996e+00
  5.624109e+00    3.079627e+00
  5.639985e+00    3.026939e+00
  5.655861e+00    3.016969e+00
  5.671736e+00    3.019112e+00
  5.687612e+00    2.964602e+00
  5.703487e+00    3.001280e+00
  5.719363e+00    3.099144e+00
  5.735238e+00    3.123004e+00
  5.751114e+00    3.095796e+00
  5.766990e+00    2.992101e+00
  5.782865e+00    2.978799e+00
  5.798741e+00    3.095895e+00
  5.814616e+00    3.047265e+00
  5.830492e+00    3.074751e+00
  5.846367e+00    3.032851e+00
  5.862243e+00    3.049828e+00
  5.878119e+00    3.014158e+00
  5.893994e+00    2.976619e+00
  5.909870e+00    3.007091e+00
  5.925745e+00    3.026824e+00
  5.941621e+00    3.003889e+00
  5.957497e+00    3.053607e+00
  5.973372e+00    3.008326e+00
  5.989248e+00    2.981365e+00
  6.005123e+00    3.022799e+00
  6.020999e+00    3.004841e+00
  6.036874e+00    3.034050e+00
  6.052750e+00    2.970393e+00
  6.068626e+00    3.031018e+00
  6.084501e+00    3.014229e+00
  6.100377e+00    3.025173e+00
  6.116252e+00    3.036216e+00
  6.132128e+00    3.049643e+00
  6.148003e+00    3.034138e+00
  6.163879e+00    3.075633e+00
  6.179755e+00    3.067045e+00
  6.195630e+00    3.085509e+00
  6.211506e+00    3.102325e+00
  6.227381e+00    3.115942e+00
  6.243257e+00    3.104942e+00
  6.259132e+00    3.078485e+00
  6.275008e+00    3.033579e+00
  6.290884e+00    3.036742e+00
  6.306759e+00    3.045922e+00
  6.322635e+00    2.988859e+00
  6.338510e+00    3.003388e+00
  6.354386e+00    3.037846e+00
  6.370261e+00    3.027156e+00
  6.386137e+00    2.964902e+00
  6.402013e+00    3.010645e+00
  6.417888e+00    2.960688e+00
  6.433764e+00    2.947946e+00
  6.449639e+00    2.952953e+00
  6.465515e+00    2.974571e+00
  6.481390e+00    3.015739e+00
  6.497266e+00    2.961693e+00
  6.513142e+00    3.010284e+00
  6.529017e+00    3.071761e+00
  6.544893e+00    3.025667e+00
  6.560768e+00    3.002036e+00
  6.576644e+00    3.019653e+00
  6.592519e+00    3.021726e+00
  6.608395e+00    2.989705e+00
  6.624271e+00    2.987856e+00
  6.640146e+00    3.009424e+00
  6.656022e+00    2.995298e+00
  6.671897e+00    3.034494e+00
  6.687773e+00    3.058990e+00
  6.703648e+00    3.033265e+00
  6.719524e+00    3.016738e+00
  6.735400e+00    2.979976e+00
  6.751275e+00    3.052290e+00
  6.767151e+00    3.022100e+00
  6.783026e+00    3.019660e+00
  6.798902e+00    3.025249e+00
  6.814777e+00    3.042273e+00
  6.830653e+00    3.035697e+00
  6.846529e+00    2.987886e+00
  6.862404e+00    2.961143e+00
  6.878280e+00    2.983125e+00
  6.894155e+00    3.035568e+00
  6.910031e+00    2.898223e+00
  6.925907e+00    2.998712e+00
  6.941782e+00    3.119898e+00
  6.957658e+00    3.067455e+00
  6.973533e+00    3.031797e+00
  6.989409e+00    3.004648e+00
  7.005284e+00    2.992973e+00
  7.021160e+00    3.002158e+00
  7.037036e+00    3.005054e+00
  7.052911e+00    3.009433e+00
  7.068787e+00    3.008074e+00
  7.084662e+00    2.988383e+00
  7.100538e+00    2.986303e+00
  7.116413e+00    3.026879e+00
  7.132289e+00    3.003872e+00
  7.148165e+00    2.952046e+00
  7.164040e+00    3.014387e+00
  7.179916e+00    2.961440e+00
  7.195791e+00    2.980659e+00
  7.211667e+00    3.068016e+00
  7.227542e+00    3.022533e+00
  7.243418e+00    2.994354e+00
  7.259294e+00    3.002274e+00
  7.275169e+00    2.954705e+00
  7.291045e+00    2.943387e+00
  7.306920e+00    3.017368e+00
  7.322796e+00    3.040092e+00
  7.338671e+00    3.035500e+00
  7.354547e+00    2.966221e+00
  7.370423e+00    2.982202e+00
  7.386298e+00    2.939087e+00
  7.402174e+00    2.961290e+00
  7.418049e+00    2.920443e+00
  7.433925e+00    2.933950e+00
  7.449800e+00    2.952549e+00
  7.465676e+00    2.972725e+00
  7.481552e+00    2.941295e+00
  7.497427e+00    2.949324e+00
  7.513303e+00    2.968466e+00
  7.529178e+00    2.968659e+00
  7.545054e+00    2.975074e+00
  7.560929e+00    2.980936e+00
  7.576805e+00    2.930998e+00
  7.592681e+00    2.983745e+00
  7.608556e+00    2.991919e+00
  7.624432e+00    2.950260e+00
  7.640307e+00    2.958589e+00
  7.656183e+00    2.972823e+00
  7.672058e+00    2.988127e+00
  7.687934e+00    2.981950e+00
  7.703810e+00    2.890505e+00
  7.719685e+00    2.953522e+00
  7.735561e+00    2.913938e+00
  7.751436e+00    2.910577e+00
  7.767312e+00    2.946166e+00
  7.783187e+00    2.895056e+00
  7.799063e+00    2.872632e+00
  7.814939e+00    2.874366e+00
  7.830814e+00    2.907978e+00
  7.846690e+00    2.993779e+00
  7.862565e+00    2.888855e+00
  7.878441e+00    2.918993e+00
  7.894317e+00    2.888254e+00
  7.910192e+00    2.914529e+00
  7.926068e+00    2.974627e+00
  7.941943e+00    2.920770e+00
  7.957819e+00    2.903079e+00
  7.973694e+00    2.915496e+00
  7.989570e+00    2.934661e+00
  8.005446e+00    2.936263e+00
  8.021321e+00    2.983162e+00
  8.037197e+00    2.980205e+00
  8.053072e+00    3.026393e+00
  8.068948e+00    2.877617e+00
  8.084823e+00    2.851883e+00
  8.100699e+00    2.924604e+00
  8.116575e+00    2.922240e+00
  8.132450e+00    2.952839e+00
  8.148326e+00    2.955262e+00
  8.164201e+00    2.987893e+00
  8.180077e+00    2.972151e+00
  8.195952e+00    2.917925e+00
  8.211828e+00    2.937100e+00
  8.227704e+00    2.930703e+00
  8.243579e+00    2.910465e+00
  8.259455e+00    2.927729e+00
  8.275330e+00    2.915930e+00
  8.291206e+00    2.932266e+00
  8.307081e+00    2.935613e+00
  8.322957e+00    2.938719e+00
  8.338833e+00    2.921819e+00
  8.354708e+00    2.901480e+00
  8.370584e+00    2.887620e+00
  8.386459e+00    2.929211e+00
  8.402335e+00    2.860359e+00
  8.418210e+00    2.836026e+00
  8.434086e+00    2.886281e+00
  8.449962e+00    2.912053e+00
  8.465837e+00    2.961554e+00
  8.481713e+00    2.896418e+00
  8.497588e+00    2.887968e+00
  8.513464e+00    2.909680e+00
  8.529339e+00    2.891434e+00
  8.545215e+00    2.850097e+00
  8.561091e+00    2.808723e+00
  8.576966e+00    2.857401e+00
  8.592842e+00    2.898085e+00
  8.608717e+00    2.844515e+00
  8.624593e+00    2.780448e+00
  8.640468e+00    2.807161e+00
  8.656344e+00    2.852043e+00
  8.672220e+00    2.824311e+00
  8.688095e+00    2.857746e+00
  8.703971e+00    2.867436e+00
  8.719846e+00    2.827810e+00
  8.735722e+00    2.846467e+00
  8.751598e+00    2.833400e+00
  8.767473e+00    2.846305e+00
  8.783349e+00    2.816668e+00
  8.799224e+00    2.811085e+00
  8.815100e+00    2.842986e+00
  8.830975e+00    2.800948e+00
  8.846851e+00    2.762628e+00
  8.862727e+00    2.809592e+00
  8.878602e+00    2.870291e+00
  8.894478e+00    2.845845e+00
  8.910353e+00    2.862035e+00
  8.926229e+00    2.816601e+00
  8.942104e+00    2.849233e+00
  8.957980e+00    2.839022e+00
  8.973856e+00    2.876190e+00
  8.989731e+00    2.819247e+00
  9.005607e+00    2.777528e+00
  9.021482e+00    2.796839e+00
  9.037358e+00    2.798067e+00
  9.053233e+00    2.800072e+00
  9.069109e+00    2.820408e+00
  9.084985e+00    2.793360e+00
  9.100860e+00    2.822031e+00
  9.116736e+00    2.820392e+00
  9.132611e+00    2.751086e+00
  9.148487e+00    2.784201e+00
  9.164362e+00    2.821099e+00
  9.180238e+00    2.809538e+00
  9.196114e+00    2.819228e+00
  9.211989e+00    2.734147e+00
  9.227865e+00    2.720120e+00
  9.243740e+00    2.794801e+00
  9.259616e+00    2.856960e+00
  9.275491e+00    2.763655e+00
  9.291367e+00    2.785970e+00
  9.307243e+00    2.735816e+00
  9.323118e+00    2.795302e+00
  9.338994e+00    2.785445e+00
  9.354869e+00    2.718422e+00
  9.370745e+00    2.737982e+00
  9.386620e+00    2.701653e+00
  9.402496e+00    2.772763e+00
  9.418372e+00    2.743603e+00
  9.434247e+00    2.740157e+00
  9.450123e+00    2.768892e+00
  9.465998e+00    2.770714e+00
  9.481874e+00    2.771930e+00
  9.497749e+00    2.742921e+00
  9.513625e+00    2.742403e+00
  9.529501e+00    2.714546e+00
  9.545376e+00    2.743078e+00
  9.561252e+00    2.773613e+00
  9.577127e+00    2.765056e+00
  9.593003e+00    2.745019e+00
  9.608878e+00    2.686877e+00
  9.624754e+00    2.772316e+00
  9.640630e+00    2.825327e+00
  9.656505e+00    2.747660e+00
  9.672381e+00    2.765587e+00
  9.688256e+00    2.764271e+00
  9.704132e+00    2.725233e+00
  9.720008e+00    2.708771e+00
  9.735883e+00    2.706510e+00
  9.751759e+00    2.678885e+00
  9.767634e+00    2.651916e+00
  9.783510e+00    2.711490e+00
  9.799385e+00    2.801250e+00
  9.815261e+00    2.734308e+00
  9.831137e+00    2.702059e+00
  9.847012e+00    2.721068e+00
  9.862888e+00    2.707338e+00
  9.878763e+00    2.682288e+00
  9.894639e+00    2.695580e+00
  9.910514e+00    2.717470e+00
  9.926390e+00    2.684243e+00
  9.942266e+00    2.677853e+00
  9.958141e+00    2.661130e+00
  9.974017e+00    2.691362e+00
  9.989892e+00    2.696252e+00
  1.000577e+01    2.653835e+00
  1.002164e+01    2.652098e+00
  1.003752e+01    2.695513e+00
  1.005339e+01    2.681150e+00
  1.006927e+01    2.711399e+00
  1.008515e+01    2.716112e+00
  1.010102e+01    2.624660e+00
  1.011690e+01    2.648618e+00
  1.013277e+01    2.701015e+00
  1.014865e+01    2.694471e+00
  1.016452e+01    2.658986e+00
  1.018040e+01    2.622978e+00
  1.019627e+01    2.611022e+00
  1.021215e+01    2.631377e+00
  1.022803e+01    2.633878e+00
  1.024390e+01    2.636603e+00
  1.025978e+01    2.626649e+00
  1.027565e+01    2.579972e+00
  1.029153e+01    2.537437e+00
  1.030740e+01    2.583057e+00
  1.032328e+01    2.605791e+00
  1.033915e+01    2.647945e+00
  1.035503e+01    2.579421e+00
  1.037091e+01    2.619339e+00
  1.038678e+01    2.633985e+00
  1.040266e+01    2.584919e+00
  1.041853e+01    2.589130e+00
  1.043441e+01    2.560515e+00
  1.045028e+01    2.581192e+00
  1.046616e+01    2.586086e+00
  1.048204e+01    2.574301e+00
  1.049791e+01    2.603679e+00
  1.051379e+01    2.586552e+00
  1.052966e+01    2.593249e+00
  1.054554e+01    2.577446e+00
  1.056141e+01    2.556883e+00
  1.057729e+01    2.601614e+00
  1.059316e+01    2.574348e+00
  1.060904e+01    2.556796e+00
  1.062492e+01    2.543234e+00
  1.064079e+01    2.572807e+00
  1.065667e+01    2.550407e+00
  1.067254e+01    2.530632e+00
  1.068842e+01    2.543974e+00
  1.070429e+01    2.530413e+00
  1.072017e+01    2.548718e+00
  1.073604e+01    2.524971e+00
  1.075192e+01    2.508545e+00
  1.076780e+01    2.510430e+00
  1.078367e+01    2.529709e+00
  1.079955e+01    2.584062e+00
  1.081542e+01    2.579638e+00
  1.083130e+01    2.564412e+00
  1.084717e+01    2.502577e+00
  1.086305e+01    2.514305e+00
  1.087892e+01    2.530257e+00
  1.089480e+01    2.480153e+00
  1.091068e+01    2.476034e+00
  1.092655e+01    2.485010e+00
  1.094243e+01    2.470720e+00
  1.095830e+01    2.523820e+00
  1.097418e+01    2.493760e+00
  1.099005e+01    2.465372e+00
  1.100593e+01    2.480421e+00
  1.102180e+01    2.498186e+00
  1.103768e+01    2.548495e+00
  1.105356e+01    2.536331e+00
  1.106943e+01    2.508658e+00
  1.108531e+01    2.488407e+00
  1.110118e+01    2.531038e+00
  1.111706e+01    2.507811e+00
  1.113293e+01    2.482356e+00
  1.114881e+01    2.473135e+00
  1.116468e+01    2.445554e+00
  1.118056e+01    2.441475e+00
  1.119644e+01    2.467538e+00
  1.121231e+01    2.404248e+00
  1.122819e+01    2.419366e+00
  1.124406e+01    2.459300e+00
  1.125994e+01    2.476121e+00
  1.127581e+01    2.452421e+00
  1.129169e+01    2.407797e+00
  1.130756e+01    2.412341e+00
  1.132344e+01    2.422072e+00
  1.133932e+01    2.424451e+00
  1.135519e+01    2.361922e+00
  1.137107e+01    2.423738e+00
  1.138694e+01    2.474781e+00
  1.140282e+01    2.396906e+00
  1.141869e+01    2.380728e+00
  1.143457e+01    2.371540e+00
  1.145045e+01    2.404278e+00
  1.146632e+01    2.411718e+00
  1.148220e+01    2.423951e+00
  1.149807e+01    2.386413e+00
  1.151395e+01    2.351536e+00
  1.152982e+01    2.389010e+00
  1.154570e+01    2.403062e+00
  1.156157e+01    2.396331e+00
  1.157745e+01    2.420133e+00
  1.159333e+01    2.378759e+00
  1.160920e+01    2.374412e+00
  1.162508e+01    2.415566e+00
  1.164095e+01    2.376635e+00
  1.165683e+01    2.351458e+00
  1.167270e+01    2.352074e+00
  1.168858e+01    2.333018e+00
  1.170445e+01    2.416246e+00
  1.172033e+01    2.392152e+00
  1.173621e+01    2.391054e+00
  1.175208e+01    2.369741e+00
  1.176796e+01    2.361833e+00
  1.178383e+01    2.372854e+00
  1.179971e+01    2.355358e+00
  1.181558e+01    2.341546e+00
  1.183146e+01    2.342338e+00
  1.184733e+01    2.377109e+00
  1.186321e+01    2.339140e+00
  1.187909e+01    2.350080e+00
  1.189496e+01    2.324376e+00
  1.191084e+01    2.341373e+00
  1.192671e+01    2.364140e+00
  1.194259e+01    2.313273e+00
  1.195846e+01    2.284027e+00
  1.197434e+01    2.317360e+00
  1.199021e+01    2.312446e+00
  1.200609e+01    2.386350e+00
  1.202197e+01    2.355538e+00
  1.203784e+01    2.367867e+00
  1.205372e+01    2.341749e+00
  1.206959e+01    2.315094e+00
  1.208547e+01    2.333424e+00
  1.210134e+01    2.350679e+00
  1.211722e+01    2.312070e+00
  1.213309e+01    2.343845e+00
  1.214897e+01    2.321171e+00
  1.216485e+01    2.306082e+00
  1.218072e+01    2.297032e+00
  1.219660e+01    2.288040e+00
  1.221247e+01    2.309750e+00
  1.222835e+01    2.324622e+00
  1.224422e+01    2.334367e+00
  1.226010e+01    2.336282e+00
  1.227597e+01    2.280132e+00
  1.229185e+01    2.282168e+00
  1.230773e+01    2.312513e+00
  1.232360e+01    2.282359e+00
  1.233948e+01    2.283858e+00
  1.235535e+01    2.285836e+00
  1.237123e+01    2.310483e+00
  1.238710e+01    2.287457e+00
  1.240298e+01    2.284479e+00
  1.241886e+01    2.294494e+00
  1.243473e+01    2.335422e+00
  1.245061e+01    2.350169e+00
  1.246648e+01    2.301710e+00
  1.248236e+01    2.353124e+00
  1.249823e+01    2.375810e+00
  1.251411e+01    2.350253e+00
  1.252998e+01    2.377090e+00
  1.254586e+01    2.371380e+00
  1.256174e+01    2.359307e+00
  1.257761e+01    2.323102e+00
  1.259349e+01    2.355835e+00
  1.260936e+01    2.414031e+00
  1.262524e+01    2.428766e+00
  1.264111e+01    2.428736e+00
  1.265699e+01    2.460364e+00
  1.267286e+01    2.474252e+00
  1.268874e+01    2.475656e+00
  1.270462e+01    2.495003e+00
  1.272049e+01    2.524460e+00
  1.273637e+01    2.526076e+00
  1.275224e+01    2.558333e+00
  1.276812e+01    2.609866e+00
  1.278399e+01    2.628190e+00
  1.279987e+01    2.700140e+00
  1.281574e+01    2.748858e+00
  1.283162e+01    2.760474e+00
  1.284750e+01    2.870170e+00
  1.286337e+01    2.989284e+00
  1.287925e+01    3.043601e+00
  1.289512e+01    3.181321e+00
  1.291100e+01    3.264855e+00
  1.292687e+01    3.434636e+00
  1.294275e+01    3.695215e+00
  1.295862e+01    3.956097e+00
  1.297450e+01    4.331892e+00
  1.299038e+01    4.758658e+00
  1.300625e+01    5.360984e+00
  1.302213e+01    6.034731e+00
  1.303800e+01    6.852262e+00
  1.305388e+01    8.022913e+00
  1.306975e+01    9.363308e+00
  1.308563e+01    1.074488e+01
  1.310150e+01    1.218826e+01
  1.311738e+01    1.367926e+01
  1.313326e+01    1.493666e+01
  1.314913e+01    1.624878e+01
  1.316501e+01    1.744596e+01
  1.318088e+01    1.814607e+01
  1.319676e+01    1.828532e+01
  1.321263e+01    1.768852e+01
  1.322851e+01    1.606306e+01
  1.324438e+01    1.401436e+01
  1.326026e+01    1.187336e+01
  1.327614e+01    9.864191e+00
  1.329201e+01    8.387338e+00
  1.330789e+01    7.193449e+00
  1.332376e+01    6.228280e+00
  1.333964e+01    5.434313e+00
  1.335551e+01    4.900577e+00
  1.337139e+01    4.468732e+00
  1.338727e+01    4.127047e+00
  1.340314e+01    3.788887e+00
  1.341902e+01    3.476184e+00
  1.343489e+01    3.284684e+00
  1.345077e+01    3.157382e+00
  1.346664e+01    3.021019e+00
  1.348252e+01    2.889468e+00
  1.349839e+01    2.824633e+00
  1.351427e+01    2.709394e+00
  1.353015e+01    2.620474e+00
  1.354602e+01    2.603673e+00
  1.356190e+01    2.558404e+00
  1.357777e+01    2.471935e+00
  1.359365e+01    2.426429e+00
  1.360952e+01    2.379342e+00
  1.362540e+01    2.371734e+00
  1.364127e+01    2.357706e+00
  1.365715e+01    2.317782e+00
  1.367303e+01    2.317679e+00
  1.368890e+01    2.291108e+00
  1.370478e+01    2.235697e+00
  1.372065e+01    2.201759e+00
  1.373653e+01    2.226944e+00
  1.375240e+01    2.248637e+00
  1.376828e+01    2.228409e+00
  1.378415e+01    2.203803e+00
  1.380003e+01    2.192824e+00
  1.381591e+01    2.095149e+00
  1.383178e+01    2.117926e+00
  1.384766e+01    2.147653e+00
  1.386353e+01    2.175555e+00
  1.387941e+01    2.141330e+00
  1.389528e+01    2.110106e+00
  1.391116e+01    2.096653e+00
  1.392703e+01    2.098989e+00
  1.394291e+01    2.079121e+00
  1.395879e+01    2.081040e+00
  1.397466e+01    2.075376e+00
  1.399054e+01    2.052908e+00
  1.400641e+01    2.053843e+00
  1.402229e+01    2.046434e+00
  1.403816e+01    2.088948e+00
  1.405404e+01    2.087069e+00
  1.406991e+01    2.050350e+00
  1.408579e+01    2.009952e+00
  1.410167e+01    2.000499e+00
  1.411754e+01    2.031572e+00
  1.413342e+01    2.024092e+00
  1.414929e+01    1.970876e+00
  1.416517e+01    2.021230e+00
  1.418104e+01    2.023615e+00
  1.419692e+01    1.985236e+00
  1.421279e+01    1.976646e+00
  1.422867e+01    1.992031e+00
  1.424455e+01    1.957230e+00
  1.426042e+01    1.932354e+00
  1.427630e+01    1.992420e+00
  1.429217e+01    1.985496e+00
  1.430805e+01    1.977902e+00
  1.432392e+01    1.980685e+00
  1.433980e+01    1.989408e+00
  1.435568e+01    1.922146e+00
  1.437155e+01    1.926809e+00
  1.438743e+01    1.935185e+00
  1.440330e+01    1.944028e+00
  1.441918e+01    1.924435e+00
  1.443505e+01    1.933590e+00
  1.445093e+01    1.959529e+00
  1.446680e+01    1.943238e+00
  1.448268e+01    1.954155e+00
  1.449856e+01    1.916442e+00
  1.451443e+01    1.941957e+00
  1.453031e+01    1.907410e+00
  1.454618e+01    1.891764e+00
  1.456206e+01    1.919169e+00
  1.457793e+01    1.945433e+00
  1.459381e+01    1.940714e+00
  1.460968e+01    1.919037e+00
  1.462556e+01    1.893084e+00
  1.464144e+01    1.894297e+00
  1.465731e+01    1.932791e+00
  1.467319e+01    1.928152e+00
  1.468906e+01    1.924677e+00
  1.470494e+01    1.873496e+00
  1.472081e+01    1.880550e+00
  1.473669e+01    1.874747e+00
  1.475256e+01    1.893219e+00
  1.476844e+01    1.935777e+00
  1.478432e+01    1.911546e+00
  1.480019e+01    1.906805e+00
  1.481607e+01    1.934861e+00
  1.483194e+01    1.911916e+00
  1.484782e+01    1.931927e+00
  1.486369e+01    1.918159e+00
  1.487957e+01    1.918551e+00
  1.489544e+01    1.907019e+00
  1.491132e+01    1.951205e+00
  1.492720e+01    1.992406e+00
  1.494307e+01    2.042238e+00
  1.495895e+01    2.020618e+00
  1.497482e+01    2.030870e+00
  1.499070e+01    2.079133e+00
  1.500657e+01    2.162475e+00
  1.502245e+01    2.217751e+00
  1.503832e+01    2.242028e+00
  1.505420e+01    2.378344e+00
  1.507008e+01    2.486594e+00
  1.508595e+01    2.602743e+00
  1.510183e+01    2.839476e+00
  1.511770e+01    3.116509e+00
  1.513358e+01    3.390130e+00
  1.514945e+01    3.743144e+00
  1.516533e+01    4.086094e+00
  1.518120e+01    4.498084e+00
  1.519708e+01    4.954206e+00
  1.521296e+01    5.214750e+00
  1.522883e+01    5.558033e+00
  1.524471e+01    5.932714e+00
  1.526058e+01    6.114392e+00
  1.527646e+01    6.202270e+00
  1.529233e+01    6.140772e+00
  1.530821e+01    5.981855e+00
  1.532409e+01    5.523218e+00
  1.533996e+01    4.968488e+00
  1.535584e+01    4.341775e+00
  1.537171e+01    3.827461e+00
  1.538759e+01    3.414308e+00
  1.540346e+01    3.085508e+00
  1.541934e+01    2.832847e+00
  1.543521e+01    2.656214e+00
  1.545109e+01    2.492240e+00
  1.546697e+01    2.328033e+00
  1.548284e+01    2.249975e+00
  1.549872e+01    2.184482e+00
  1.551459e+01    2.098061e+00
  1.553047e+01    2.069338e+00
  1.554634e+01    2.006736e+00
  1.556222e+01    1.961742e+00
  1.557809e+01    1.921261e+00
  1.559397e+01    1.869517e+00
  1.560985e+01    1.856282e+00
  1.562572e+01    1.823495e+00
  1.564160e+01    1.807664e+00
  1.565747e+01    1.807541e+00
  1.567335e+01    1.770126e+00
  1.568922e+01    1.771496e+00
  1.570510e+01    1.762921e+00
  1.572097e+01    1.746674e+00
  1.573685e+01    1.738219e+00
  1.575273e+01    1.742421e+00
  1.576860e+01    1.715892e+00
  1.578448e+01    1.679830e+00
  1.580035e+01    1.690983e+00
  1.581623e+01    1.713148e+00
  1.583210e+01    1.698316e+00
  1.584798e+01    1.656451e+00
  1.586385e+01    1.664626e+00
  1.587973e+01    1.648879e+00
  1.589561e+01    1.638154e+00
  1.591148e+01    1.636185e+00
  1.592736e+01    1.632191e+00
  1.594323e+01    1.643617e+00
  1.595911e+01    1.632905e+00
  1.597498e+01    1.600436e+00
  1.599086e+01    1.607748e+00
  1.600673e+01    1.575358e+00
  1.602261e+01    1.580297e+00
  1.603849e+01    1.603320e+00
  1.605436e+01    1.614437e+00
  1.607024e+01    1.580269e+00
  1.608611e+01    1.556687e+00
  1.610199e+01    1.608748e+00
  1.611786e+01    1.609052e+00
  1.613374e+01    1.574972e+00
  1.614961e+01    1.567623e+00
  1.616549e+01    1.584649e+00
  1.618137e+01    1.575307e+00
  1.619724e+01    1.566266e+00
  1.621312e+01    1.567330e+00
  1.622899e+01    1.558080e+00
  1.624487e+01    1.559659e+00
  1.626074e+01    1.564873e+00
  1.627662e+01    1.522475e+00
  1.629250e+01    1.537950e+00
  1.630837e+01    1.526677e+00
  1.632425e+01    1.532130e+00
  1.634012e+01    1.556364e+00
  1.635600e+01    1.535874e+00
  1.637187e+01    1.509762e+00
  1.638775e+01    1.540996e+00
  1.640362e+01    1.557711e+00
  1.641950e+01    1.522391e+00
  1.643538e+01    1.486939e+00
  1.645125e+01    1.487945e+00
  1.646713e+01    1.523623e+00
  1.648300e+01    1.560527e+00
  1.649888e+01    1.529580e+00
  1.651475e+01    1.499719e+00
  1.653063e+01    1.531118e+00
  1.654650e+01    1.497680e+00
  1.656238e+01    1.488389e+00
  1.657826e+01    1.505427e+00
  1.659413e+01    1.479194e+00
  1.661001e+01    1.469019e+00
  1.662588e+01    1.516084e+00
  1.664176e+01    1.499463e+00
  1.665763e+01    1.470891e+00
  1.667351e+01    1.489456e+00
  1.668938e+01    1.473989e+00
  1.670526e+01    1.471790e+00
  1.672114e+01    1.495398e+00
  1.673701e+01    1.461380e+00
  1.675289e+01    1.475751e+00
  1.676876e+01    1.465185e+00
  1.678464e+01    1.451456e+00
  1.680051e+01    1.449334e+00
  1.681639e+01    1.467072e+00
  1.683226e+01    1.452148e+00
  1.684814e+01    1.439568e+00
  1.686402e+01    1.428468e+00
  1.687989e+01    1.450346e+00
  1.689577e+01    1.471868e+00
  1.691164e+01    1.441012e+00
  1.692752e+01    1.446031e+00
  1.694339e+01    1.468367e+00
  1.695927e+01    1.410350e+00
  1.697514e+01    1.444418e+00
  1.699102e+01    1.430656e+00
  1.700690e+01    1.411405e+00
  1.702277e+01    1.416141e+00
  1.703865e+01    1.389352e+00
  1.705452e+01    1.400280e+00
  1.707040e+01    1.414477e+00
  1.708627e+01    1.421583e+00
  1.710215e+01    1.416766e+00
  1.711802e+01    1.402868e+00
  1.713390e+01    1.412957e+00
  1.714978e+01    1.407931e+00
  1.716565e+01    1.377279e+00
  1.718153e+01    1.348620e+00
  1.719740e+01    1.362921e+00
  1.721328e+01    1.395169e+00
  1.722915e+01    1.412002e+00
  1.724503e+01    1.395331e+00
  1.726091e+01    1.405663e+00
  1.727678e+01    1.383179e+00
  1.729266e+01    1.358033e+00
  1.730853e+01    1.397322e+00
  1.732441e+01    1.424599e+00
  1.734028e+01    1.395565e+00
  1.735616e+01    1.407480e+00
  1.737203e+01    1.414035e+00
  1.738791e+01    1.386287e+00
  1.740379e+01    1.353336e+00
  1.741966e+01    1.397492e+00
  1.743554e+01    1.398960e+00
  1.745141e+01    1.377946e+00
  1.746729e+01    1.379269e+00
  1.748316e+01    1.374261e+00
  1.749904e+01    1.344297e+00
  1.751491e+01    1.349984e+00
  1.753079e+01    1.361469e+00
  1.754667e+01    1.383157e+00
  1.756254e+01    1.352794e+00
  1.757842e+01    1.351585e+00
  1.759429e+01    1.381565e+00
  1.761017e+01    1.374567e+00
  1.762604e+01    1.341781e+00
  1.764192e+01    1.323249e+00
  1.765779e+01    1.321043e+00
  1.767367e+01    1.338443e+00
  1.768955e+01    1.369313e+00
  1.770542e+01    1.357442e+00
  1.772130e+01    1.332172e+00
  1.773717e+01    1.322513e+00
  1.775305e+01    1.340622e+00
  1.776892e+01    1.340368e+00
  1.778480e+01    1.312002e+00
  1.780067e+01    1.323196e+00
  1.781655e+01    1.350972e+00
  1.783243e+01    1.332856e+00
  1.784830e+01    1.300985e+00
  1.786418e+01    1.320819e+00
  1.788005e+01    1.321612e+00
  1.789593e+01    1.321169e+00
  1.791180e+01    1.336296e+00
  1.792768e+01    1.324782e+00
  1.794355e+01    1.282047e+00
  1.795943e+01    1.299483e+00
  1.797531e+01    1.316325e+00
  1.799118e+01    1.306592e+00
  1.800706e+01    1.305789e+00
  1.802293e+01    1.292314e+00
  1.803881e+01    1.312745e+00
  1.805468e+01    1.331843e+00
  1.807056e+01    1.281277e+00
  1.808643e+01    1.286259e+00
  1.810231e+01    1.323773e+00
  1.811819e+01    1.303395e+00
  1.813406e+01    1.307407e+00
  1.814994e+01    1.278325e+00
  1.816581e+01    1.279205e+00
  1.818169e+01    1.263660e+00
  1.819756e+01    1.285010e+00
  1.821344e+01    1.286182e+00
  1.822932e+01    1.284573e+00
  1.824519e+01    1.293509e+00
  1.826107e+01    1.272936e+00
  1.827694e+01    1.268308e+00
  1.829282e+01    1.262898e+00
  1.830869e+01    1.258277e+00
  1.832457e+01    1.249637e+00
  1.834044e+01    1.254612e+00
  1.835632e+01    1.262623e+00
  1.837220e+01    1.256231e+00
  1.838807e+01    1.245063e+00
  1.840395e+01    1.266554e+00
  1.841982e+01    1.303271e+00
  1.843570e+01    1.275022e+00
  1.845157e+01    1.243368e+00
  1.846745e+01    1.244893e+00
  1.848332e+01    1.232096e+00
  1.849920e+01    1.252046e+00
  1.851508e+01    1.251016e+00
  1.853095e+01    1.254915e+00
  1.854683e+01    1.243950e+00
  1.856270e+01    1.243857e+00
  1.857858e+01    1.265430e+00
  1.859445e+01    1.235016e+00
  1.861033e+01    1.243843e+00
  1.862620e+01    1.255826e+00
  1.864208e+01    1.249709e+00
  1.865796e+01    1.284151e+00
  1.867383e+01    1.241521e+00
  1.868971e+01    1.216141e+00
  1.870558e+01    1.225984e+00
  1.872146e+01    1.220418e+00
  1.873733e+01    1.227490e+00
  1.875321e+01    1.225425e+00
  1.876908e+01    1.218541e+00
  1.878496e+01    1.223639e+00
  1.880084e+01    1.222474e+00
  1.881671e+01    1.199290e+00
  1.883259e+01    1.207069e+00
  1.884846e+01    1.216309e+00
  1.886434e+01    1.217011e+00
  1.888021e+01    1.211711e+00
  1.889609e+01    1.203271e+00
  1.891196e+01    1.193228e+00
  1.892784e+01    1.235786e+00
  1.894372e+01    1.235806e+00
  1.895959e+01    1.223830e+00
  1.897547e+01    1.222076e+00
  1.899134e+01    1.211497e+00
  1.900722e+01    1.184673e+00
  1.902309e+01    1.179083e+00
  1.903897e+01    1.197520e+00
  1.905484e+01    1.223132e+00
  1.907072e+01    1.197907e+00
  1.908660e+01    1.176476e+00
  1.910247e+01    1.177377e+00
  1.911835e+01    1.211560e+00
  1.913422e+01    1.195633e+00
  1.915010e+01    1.177992e+00
  1.916597e+01    1.189522e+00
  1.918185e+01    1.192961e+00
  1.919773e+01    1.201173e+00
  1.921360e+01    1.199092e+00
  1.922948e+01    1.213494e+00
  1.924535e+01    1.177597e+00
  1.926123e+01    1.154637e+00
  1.927710e+01    1.177009e+00
  1.929298e+01    1.174349e+00
  1.930885e+01    1.162090e+00
  1.932473e+01    1.177310e+00
  1.934061e+01    1.180858e+00
  1.935648e+01    1.169202e+00
  1.937236e+01    1.196527e+00
  1.938823e+01    1.181583e+00
  1.940411e+01    1.158020e+00
  1.941998e+01    1.173999e+00
  1.943586e+01    1.218068e+00
  1.945173e+01    1.177095e+00
  1.946761e+01    1.169301e+00
  1.948349e+01    1.162551e+00
  1.949936e+01    1.175461e+00
  1.951524e+01    1.194066e+00
  1.953111e+01    1.157022e+00
  1.954699e+01    1.150338e+00
  1.956286e+01    1.145568e+00
  1.957874e+01    1.139133e+00
  1.959461e+01    1.162424e+00
  1.961049e+01    1.189167e+00
  1.962637e+01    1.147040e+00
  1.964224e+01    1.140349e+00
  1.965812e+01    1.133191e+00
  1.967399e+01    1.162597e+00
  1.968987e+01    1.153842e+00
  1.970574e+01    1.132682e+00
  1.972162e+01    1.128502e+00
  1.973749e+01    1.119860e+00
  1.975337e+01    1.141581e+00
  1.976925e+01    1.146062e+00
  1.978512e+01    1.123309e+00
  1.980100e+01    1.109969e+00
  1.981687e+01    1.113232e+00
  1.983275e+01    1.128488e+00
  1.984862e+01    1.129554e+00
  1.986450e+01    1.141565e+00
  1.988037e+01    1.145977e+00
  1.989625e+01    1.150360e+00
  1.991213e+01    1.158691e+00
  1.992800e+01    1.120649e+00
  1.994388e+01    1.102788e+00
  1.995975e+01    1.114117e+00
  1.997563e+01    1.119741e+00
  1.999150e+01    1.108159e+00
  2.000738e+01    1.113088e+00
  2.002325e+01    1.144474e+00
  2.003913e+01    1.126897e+00
  2.005501e+01    1.087755e+00
  2.007088e+01    1.100268e+00
  2.008676e+01    1.115751e+00
  2.010263e+01    1.124442e+00
  2.011851e+01    1.117347e+00
  2.013438e+01    1.144341e+00
  2.015026e+01    1.129103e+00
  2.016614e+01    1.101008e+00
  2.018201e+01    1.099983e+00
  2.019789e+01    1.111509e+00
  2.021376e+01    1.119933e+00
  2.022964e+01    1.093905e+00
  2.024551e+01    1.087433e+00
  2.026139e+01    1.088174e+00
  2.027726e+01    1.119951e+00
  2.029314e+01    1.097824e+00
  2.030902e+01    1.092498e+00
  2.032489e+01    1.103671e+00
  2.034077e+01    1.087122e+00
  2.035664e+01    1.084425e+00
  2.037252e+01    1.090927e+00
  2.038839e+01    1.076627e+00
  2.040427e+01    1.085437e+00
  2.042014e+01    1.088124e+00
  2.043602e+01    1.086291e+00
  2.045190e+01    1.105551e+00
  2.046777e+01    1.106081e+00
  2.048365e+01    1.089597e+00
  2.049952e+01    1.094274e+00
  2.051540e+01    1.075844e+00
  2.053127e+01    1.078509e+00
  2.054715e+01    1.098422e+00
  2.056302e+01    1.102817e+00
  2.057890e+01    1.067066e+00
  2.059478e+01    1.074593e+00
  2.061065e+01    1.093166e+00
  2.062653e+01    1.115310e+00
  2.064240e+01    1.074112e+00
  2.065828e+01    1.078062e+00
  2.067415e+01    1.101186e+00
  2.069003e+01    1.115918e+00
  2.070590e+01    1.088799e+00
  2.072178e+01    1.058998e+00
  2.073766e+01    1.084270e+00
  2.075353e+01    1.095234e+00
  2.076941e+01    1.111227e+00
  2.078528e+01    1.086989e+00
  2.080116e+01    1.063293e+00
  2.081703e+01    1.066940e+00
  2.083291e+01    1.091532e+00
  2.084878e+01    1.090695e+00
  2.086466e+01    1.084414e+00
  2.088054e+01    1.068496e+00
  2.089641e+01    1.073697e+00
  2.091229e+01    1.106508e+00
  2.092816e+01    1.070424e+00
  2.094404e+01    1.069892e+00
  2.095991e+01    1.049270e+00
  2.097579e+01    1.069343e+00
  2.099166e+01    1.090969e+00
  2.100754e+01    1.100203e+00
  2.102342e+01    1.091949e+00
  2.103929e+01    1.074944e+00
  2.105517e+01    1.087941e+00
  2.107104e+01    1.090060e+00
  2.108692e+01    1.081954e+00
  2.110279e+01    1.088982e+00
  2.111867e+01    1.093997e+00
  2.113455e+01    1.086054e+00
  2.115042e+01    1.109968e+00
  2.116630e+01    1.106527e+00
  2.118217e+01    1.081399e+00
  2.119805e+01    1.093664e+00
  2.121392e+01    1.104464e+00
  2.122980e+01    1.093555e+00
  2.124567e+01    1.087874e+00
  2.126155e+01    1.118668e+00
  2.127743e+01    1.115391e+00
  2.129330e+01    1.122679e+00
  2.130918e+01    1.108200e+00
  2.132505e+01    1.139717e+00
  2.134093e+01    1.150501e+00
  2.135680e+01    1.159850e+00
  2.137268e+01    1.165182e+00
  2.138855e+01    1.165134e+00
  2.140443e+01    1.173844e+00
  2.142031e+01    1.174119e+00
  2.143618e+01    1.217076e+00
  2.145206e+01    1.248539e+00
  2.146793e+01    1.251994e+00
  2.148381e+01    1.266362e+00
  2.149968e+01    1.251726e+00
  2.151556e+01    1.272779e+00
  2.153143e+01    1.335703e+00
  2.154731e+01    1.352698e+00
  2.156319e+01    1.402614e+00
  2.157906e+01    1.416833e+00
  2.159494e+01    1.480897e+00
  2.161081e+01    1.581733e+00
  2.162669e+01    1.667604e+00
  2.164256e+01    1.752775e+00
  2.165844e+01    1.876519e+00
  2.167431e+01    2.039780e+00
  2.169019e+01    2.207449e+00
  2.170607e+01    2.422803e+00
  2.172194e+01    2.703293e+00
  2.173782e+01    3.060465e+00
  2.175369e+01    3.456470e+00
  2.176957e+01    3.945675e+00
  2.178544e+01    4.545244e+00
  2.180132e+01    5.245646e+00
  2.181719e+01    5.957856e+00
  2.183307e+01    6.675032e+00
  2.184895e+01    7.485460e+00
  2.186482e+01    8.312057e+00
  2.188070e+01    9.124668e+00
  2.189657e+01    9.746496e+00
  2.191245e+01    1.015643e+01
  2.192832e+01    1.022189e+01
  2.194420e+01    9.721015e+00
  2.196007e+01    8.897057e+00
  2.197595e+01    7.901727e+00
  2.199183e+01    6.740892e+00
  2.200770e+01    5.672779e+00
  2.202358e+01    4.804970e+00
  2.203945e+01    4.055676e+00
  2.205533e+01    3.564201e+00
  2.207120e+01    3.154623e+00
  2.208708e+01    2.777888e+00
  2.210296e+01    2.464305e+00
  2.211883e+01    2.235407e+00
  2.213471e+01    2.047586e+00
  2.215058e+01    1.891080e+00
  2.216646e+01    1.783660e+00
  2.218233e+01    1.659209e+00
  2.219821e+01    1.563207e+00
  2.221408e+01    1.473918e+00
  2.222996e+01    1.445276e+00
  2.224584e+01    1.398278e+00
  2.226171e+01    1.343740e+00
  2.227759e+01    1.329757e+00
  2.229346e+01    1.265725e+00
  2.230934e+01    1.205618e+00
  2.232521e+01    1.185818e+00
  2.234109e+01    1.205835e+00
  2.235696e+01    1.166564e+00
  2.237284e+01    1.162674e+00
  2.238872e+01    1.166651e+00
  2.240459e+01    1.128979e+00
  2.242047e+01    1.106065e+00
  2.243634e+01    1.110112e+00
  2.245222e+01    1.082111e+00
  2.246809e+01    1.049554e+00
  2.248397e+01    1.064447e+00
  2.249984e+01    1.060276e+00
  2.251572e+01    1.048896e+00
  2.253160e+01    1.009533e+00
  2.254747e+01    1.007462e+00
  2.256335e+01    1.015444e+00
  2.257922e+01    1.002675e+00
  2.259510e+01    1.009361e+00
  2.261097e+01    9.884700e-01
  2.262685e+01    9.828081e-01
  2.264272e+01    9.962752e-01
  2.265860e+01    9.905313e-01
  2.267448e+01    9.844679e-01
  2.269035e+01    9.795337e-01
  2.270623e+01    9.585828e-01
  2.272210e+01    9.736387e-01
  2.273798e+01    9.764994e-01
  2.275385e+01    9.901534e-01
  2.276973e+01    9.658352e-01
  2.278560e+01    9.694798e-01
  2.280148e+01    9.499280e-01
  2.281736e+01    9.239335e-01
  2.283323e+01    9.213229e-01
  2.284911e+01    9.329957e-01
  2.286498e+01    9.241355e-01
  2.288086e+01    9.277828e-01
  2.289673e+01    9.260955e-01
  2.291261e+01    8.979450e-01
  2.292848e+01    9.171069e-01
  2.294436e+01    9.116057e-01
  2.296024e+01    9.305929e-01
  2.297611e+01    9.031982e-01
  2.299199e+01    9.008625e-01
  2.300786e+01    9.053624e-01
  2.302374e+01    8.898029e-01
  2.303961e+01    8.785718e-01
  2.305549e+01    8.887522e-01
  2.307137e+01    9.022220e-01
  2.308724e+01    8.935916e-01
  2.310312e+01    8.895704e-01
  2.311899e+01    8.757918e-01
  2.313487e+01    9.062929e-01
  2.315074e+01    8.801448e-01
  2.316662e+01    8.790305e-01
  2.318249e+01    8.884857e-01
  2.319837e+01    8.681925e-01
  2.321425e+01    8.573575e-01
  2.323012e+01    8.828309e-01
  2.324600e+01    8.798797e-01
  2.326187e+01    8.685285e-01
  2.327775e+01    8.916509e-01
  2.329362e+01    8.787539e-01
  2.330950e+01    8.629437e-01
  2.332537e+01    8.663748e-01
  2.334125e+01    8.596386e-01
  2.335713e+01    8.623306e-01
  2.337300e+01    8.663902e-01
  2.338888e+01    8.534436e-01
  2.340475e+01    8.610350e-01
  2.342063e+01    8.516430e-01
  2.343650e+01    8.607959e-01
  2.345238e+01    8.424244e-01
  2.346825e+01    8.661456e-01
  2.348413e+01    8.628077e-01
  2.350001e+01    8.587669e-01
  2.351588e+01    8.550333e-01
  2.353176e+01    8.503551e-01
  2.354763e+01    8.419175e-01
  2.356351e+01    8.317515e-01
  2.357938e+01    8.320564e-01
  2.359526e+01    8.263005e-01
  2.361113e+01    8.393754e-01
  2.362701e+01    8.421052e-01
  2.364289e+01    8.396195e-01
  2.365876e+01    8.256486e-01
  2.367464e+01    8.061751e-01
  2.369051e+01    8.146616e-01
  2.370639e+01    8.203329e-01
  2.372226e+01    8.325542e-01
  2.373814e+01    8.241270e-01
  2.375401e+01    8.225562e-01
  2.376989e+01    8.223764e-01
  2.378577e+01    8.234694e-01
  2.380164e+01    8.210083e-01
  2.381752e+01    8.223779e-01
  2.383339e+01    8.112667e-01
  2.384927e+01    7.943554e-01
  2.386514e+01    7.967323e-01
  2.388102e+01    8.163584e-01
  2.389689e+01    8.350576e-01
  2.391277e+01    8.021724e-01
  2.392865e+01    8.164149e-01
  2.394452e+01    7.979457e-01
  2.396040e+01    7.905393e-01
  2.397627e+01    7.943414e-01
  2.399215e+01    8.105836e-01
  2.400802e+01    7.934185e-01
  2.402390e+01    8.094147e-01
  2.403978e+01    8.132210e-01
  2.405565e+01    7.941093e-01
  2.407153e+01    7.814555e-01
  2.408740e+01    7.936910e-01
  2.410328e+01    7.977318e-01
  2.411915e+01    8.025942e-01
  2.413503e+01    8.054000e-01
  2.415090e+01    7.939839e-01
  2.416678e+01    7.815440e-01
  2.418266e+01    7.948461e-01
  2.419853e+01    7.928733e-01
  2.421441e+01    7.763087e-01
  2.423028e+01    7.556680e-01
  2.424616e+01    7.761325e-01
  2.426203e+01    7.790565e-01
  2.427791e+01    8.007761e-01
  2.429378e+01    8.057902e-01
  2.430966e+01    7.733893e-01
  2.432554e+01    7.817608e-01
  2.434141e+01    8.043545e-01
  2.435729e+01    8.223939e-01
  2.437316e+01    8.113919e-01
  2.438904e+01    7.939502e-01
  2.440491e+01    7.959282e-01
  2.442079e+01    7.849640e-01
  2.443666e+01    7.684932e-01
  2.445254e+01    7.819846e-01
  2.446842e+01    8.035244e-01
  2.448429e+01    8.051550e-01
  2.450017e+01    8.018154e-01
  2.451604e+01    7.971015e-01
  2.453192e+01    8.071551e-01
  2.454779e+01    7.751346e-01
  2.456367e+01    7.780862e-01
  2.457954e+01    8.073161e-01
  2.459542e+01    7.967048e-01
  2.461130e+01    8.072312e-01
  2.462717e+01    8.047903e-01
  2.464305e+01    7.799716e-01
  2.465892e+01    7.787176e-01
  2.467480e+01    7.956653e-01
  2.469067e+01    8.041298e-01
  2.470655e+01    7.844418e-01
  2.472242e+01    8.019207e-01
  2.473830e+01    7.874984e-01
  2.475418e+01    7.801864e-01
  2.477005e+01    7.960868e-01
  2.478593e+01    7.914615e-01
  2.480180e+01    7.836000e-01
  2.481768e+01    7.969660e-01
  2.483355e+01    8.218103e-01
  2.484943e+01    7.981326e-01
  2.486530e+01    8.111631e-01
  2.488118e+01    8.033524e-01
  2.489706e+01    8.079500e-01
  2.491293e+01    7.995033e-01
  2.492881e+01    7.923751e-01
  2.494468e+01    7.815685e-01
  2.496056e+01    7.837217e-01
  2.497643e+01    7.893221e-01
  2.499231e+01    8.175183e-01
  2.500819e+01    8.202125e-01
  2.502406e+01    8.167492e-01
  2.503994e+01    8.165227e-01
  2.505581e+01    8.039903e-01
  2.507169e+01    8.036402e-01
  2.508756e+01    8.109721e-01
  2.510344e+01    8.173015e-01
  2.511931e+01    8.059897e-01
  2.513519e+01    8.148289e-01
  2.515107e+01    8.469850e-01
  2.516694e+01    8.351499e-01
  2.518282e+01    8.214409e-01
  2.519869e+01    8.304085e-01
  2.521457e+01    8.345268e-01
  2.523044e+01    8.261191e-01
  2.524632e+01    8.384640e-01
  2.526219e+01    8.563038e-01
  2.527807e+01    8.497123e-01
  2.529395e+01    8.565573e-01
  2.530982e+01    8.503430e-01
  2.532570e+01    8.708176e-01
  2.534157e+01    8.598642e-01
  2.535745e+01    8.759080e-01
  2.537332e+01    8.956713e-01
  2.538920e+01    9.031289e-01
  2.540507e+01    9.186345e-01
  2.542095e+01    9.351907e-01
  2.543683e+01    9.164231e-01
  2.545270e+01    9.244185e-01
  2.546858e+01    9.487855e-01
  2.548445e+01    9.670072e-01
  2.550033e+01    9.671613e-01
  2.551620e+01    9.907600e-01
  2.553208e+01    1.002498e+00
  2.554795e+01    1.009335e+00
  2.556383e+01    1.019374e+00
  2.557971e+01    1.058460e+00
  2.559558e+01    1.088790e+00
  2.561146e+01    1.114192e+00
  2.562733e+01    1.154517e+00
  2.564321e+01    1.191486e+00
  2.565908e+01    1.247484e+00
  2.567496e+01    1.292754e+00
  2.569083e+01    1.352026e+00
  2.570671e+01    1.422965e+00
  2.572259e+01    1.538949e+00
  2.573846e+01    1.665959e+00
  2.575434e+01    1.764737e+00
  2.577021e+01    1.928582e+00
  2.578609e+01    2.126289e+00
  2.580196e+01    2.378196e+00
  2.581784e+01    2.660840e+00
  2.583371e+01    3.065930e+00
  2.584959e+01    3.493099e+00
  2.586547e+01    4.005212e+00
  2.588134e+01    4.581825e+00
  2.589722e+01    5.264116e+00
  2.591309e+01    5.962701e+00
  2.592897e+01    6.664162e+00
  2.594484e+01    7.376428e+00
  2.596072e+01    7.959567e+00
  2.597660e+01    8.365679e+00
  2.599247e+01    8.440800e+00
  2.600835e+01    8.267778e+00
  2.602422e+01    7.690410e+00
  2.604010e+01    6.890440e+00
  2.605597e+01    6.001823e+00
  2.607185e+01    5.154173e+00
  2.608772e+01    4.376886e+00
  2.610360e+01    3.714004e+00
  2.611948e+01    3.204025e+00
  2.613535e+01    2.837827e+00
  2.615123e+01    2.485050e+00
  2.616710e+01    2.224513e+00
  2.618298e+01    2.007996e+00
  2.619885e+01    1.825418e+00
  2.621473e+01    1.698648e+00
  2.623060e+01    1.586080e+00
  2.624648e+01    1.447203e+00
  2.626236e+01    1.386514e+00
  2.627823e+01    1.339109e+00
  2.629411e+01    1.297291e+00
  2.630998e+01    1.233028e+00
  2.632586e+01    1.186066e+00
  2.634173e+01    1.148878e+00
  2.635761e+01    1.129821e+00
  2.637348e+01    1.083830e+00
  2.638936e+01    1.079281e+00
  2.640524e+01    1.048792e+00
  2.642111e+01    1.024468e+00
  2.643699e+01    1.005489e+00
  2.645286e+01    9.819118e-01
  2.646874e+01    9.815146e-01
  2.648461e+01    9.609549e-01
  2.650049e+01    9.591897e-01
  2.651636e+01    9.482918e-01
  2.653224e+01    9.180431e-01
  2.654812e+01    9.361122e-01
  2.656399e+01    9.520704e-01
  2.657987e+01    9.414348e-01
  2.659574e+01    9.410156e-01
  2.661162e+01    9.360699e-01
  2.662749e+01    9.272538e-01
  2.664337e+01    9.274176e-01
  2.665924e+01    9.085577e-01
  2.667512e+01    8.969299e-01
  2.669100e+01    9.157457e-01
  2.670687e+01    9.069483e-01
  2.672275e+01    8.851191e-01
  2.673862e+01    8.878062e-01
  2.675450e+01    9.050015e-01
  2.677037e+01    9.152778e-01
  2.678625e+01    9.023390e-01
  2.680212e+01    9.094907e-01
  2.681800e+01    9.072406e-01
  2.683388e+01    8.856598e-01
  2.684975e+01    8.932357e-01
  2.686563e+01    9.048159e-01
  2.688150e+01    9.035652e-01
  2.689738e+01    9.203197e-01
  2.691325e+01    9.331720e-01
  2.692913e+01    9.589787e-01
  2.694501e+01    9.575492e-01
  2.696088e+01    9.904454e-01
  2.697676e+01    9.967268e-01
  2.699263e+01    1.001371e+00
  2.700851e+01    1.027800e+00
  2.702438e+01    1.074056e+00
  2.704026e+01    1.088935e+00
  2.705613e+01    1.093810e+00
  2.707201e+01    1.157731e+00
  2.708789e+01    1.248719e+00
  2.710376e+01    1.342055e+00
  2.711964e+01    1.443817e+00
  2.713551e+01    1.535647e+00
  2.715139e+01    1.661185e+00
  2.716726e+01    1.823118e+00
  2.718314e+01    1.958522e+00
  2.719901e+01    2.148851e+00
  2.721489e+01    2.276588e+00
  2.723077e+01    2.401921e+00
  2.724664e+01    2.443117e+00
  2.726252e+01    2.418228e+00
  2.727839e+01    2.339304e+00
  2.729427e+01    2.195391e+00
  2.731014e+01    2.004449e+00
  2.732602e+01    1.863368e+00
  2.734189e+01    1.686241e+00
  2.735777e+01    1.509076e+00
  2.737365e+01    1.355193e+00
  2.738952e+01    1.265753e+00
  2.740540e+01    1.205237e+00
  2.742127e+01    1.170117e+00
  2.743715e+01    1.098824e+00
  2.745302e+01    1.038291e+00
  2.746890e+01    1.032251e+00
  2.748477e+01    9.970926e-01
  2.750065e+01    9.779539e-01
  2.751653e+01    9.670144e-01
  2.753240e+01    9.210380e-01
  2.754828e+01    9.254462e-01
  2.756415e+01    9.042477e-01
  2.758003e+01    8.833976e-01
  2.759590e+01    8.802326e-01
  2.761178e+01    8.601436e-01
  2.762765e+01    8.264762e-01
  2.764353e+01    8.354366e-01
  2.765941e+01    8.395237e-01
  2.767528e+01    8.601271e-01
  2.769116e+01    8.484534e-01
  2.770703e+01    8.365092e-01
  2.772291e+01    8.401659e-01
  2.773878e+01    8.376955e-01
  2.775466e+01    8.119704e-01
  2.777054e+01    8.290006e-01
  2.778641e+01    8.274133e-01
  2.780229e+01    8.158666e-01
  2.781816e+01    7.974152e-01
  2.783404e+01    8.049014e-01
  2.784991e+01    8.263042e-01
  2.786579e+01    8.169077e-01
  2.788166e+01    8.247291e-01
  2.789754e+01    8.131348e-01
  2.791342e+01    7.945719e-01
  2.792929e+01    7.781642e-01
  2.794517e+01    7.985204e-01
  2.796104e+01    7.913615e-01
  2.797692e+01    7.954894e-01
  2.799279e+01    7.996566e-01
  2.800867e+01    8.045592e-01
  2.802454e+01    7.894414e-01
  2.804042e+01    7.998317e-01
  2.805630e+01    8.024407e-01
  2.807217e+01    8.053515e-01
  2.808805e+01    7.835230e-01
  2.810392e+01    7.892078e-01
  2.811980e+01    7.749552e-01
  2.813567e+01    7.814593e-01
  2.815155e+01    7.929496e-01
  2.816742e+01    7.848860e-01
  2.818330e+01    7.984743e-01
  2.819918e+01    8.000548e-01
  2.821505e+01    7.969649e-01
  2.823093e+01    7.752039e-01
  2.824680e+01    7.783152e-01
  2.826268e+01    7.632229e-01
  2.827855e+01    7.459641e-01
  2.829443e+01    7.721173e-01
  2.831030e+01    7.825783e-01
  2.832618e+01    7.777091e-01
  2.834206e+01    7.853699e-01
  2.835793e+01    7.676693e-01
  2.837381e+01    7.648033e-01
  2.838968e+01    7.692173e-01
  2.840556e+01    7.727740e-01
  2.842143e+01    7.843270e-01
  2.843731e+01    7.865026e-01
  2.845318e+01    7.627717e-01
  2.846906e+01    7.498525e-01
  2.848494e+01    7.370013e-01
  2.850081e+01    7.638156e-01
  2.851669e+01    7.619092e-01
  2.853256e+01    7.626662e-01
  2.854844e+01    7.608814e-01
  2.856431e+01    7.548119e-01
  2.858019e+01    7.581288e-01
  2.859606e+01    7.671778e-01
  2.861194e+01    7.485111e-01
  2.862782e+01    7.496343e-01
  2.864369e+01    7.201350e-01
  2.865957e+01    7.463001e-01
  2.867544e+01    7.618149e-01
  2.869132e+01    7.744972e-01
  2.870719e+01    7.646322e-01
  2.872307e+01    7.456475e-01
  2.873895e+01    7.465193e-01
  2.875482e+01    7.584144e-01
  2.877070e+01    7.489803e-01
  2.878657e+01    7.562177e-01
  2.880245e+01    7.611448e-01
  2.881832e+01    7.563173e-01
  2.883420e+01    7.562901e-01
  2.885007e+01    7.391368e-01
  2.886595e+01    7.460205e-01
  2.888183e+01    7.493501e-01
  2.889770e+01    7.399829e-01
  2.891358e+01    7.524294e-01
  2.892945e+01    7.608977e-01
  2.894533e+01    7.392583e-01
  2.896120e+01    7.678069e-01
  2.897708e+01    7.652068e-01
  2.899295e+01    7.559029e-01
  2.900883e+01    7.624720e-01
  2.902471e+01    7.685341e-01
  2.904058e+01    7.534516e-01
  2.905646e+01    7.464847e-01
  2.907233e+01    7.500048e-01
  2.908821e+01    7.325991e-01
  2.910408e+01    7.254347e-01
  2.911996e+01    7.433312e-01
  2.913583e+01    7.377235e-01
  2.915171e+01    7.294121e-01
  2.916759e+01    7.269353e-01
  2.918346e+01    7.357906e-01
  2.919934e+01    7.216389e-01
  2.921521e+01    7.411388e-01
  2.923109e+01    7.400161e-01
  2.924696e+01    7.260957e-01
  2.926284e+01    7.367437e-01
  2.927871e+01    7.445413e-01
  2.929459e+01    7.270660e-01
  2.931047e+01    7.461840e-01
  2.932634e+01    7.274432e-01
  2.934222e+01    7.388424e-01
  2.935809e+01    7.499240e-01
  2.937397e+01    7.421154e-01
  2.938984e+01    7.399953e-01
  2.940572e+01    7.190897e-01
  2.942159e+01    7.158844e-01
  2.943747e+01    7.192385e-01
  2.945335e+01    7.398419e-01
  2.946922e+01    7.395589e-01
  2.948510e+01    7.268727e-01
  2.950097e+01    7.334495e-01
  2.951685e+01    7.427081e-01
  2.953272e+01    7.529365e-01
  2.954860e+01    7.499915e-01
  2.956447e+01    7.275676e-01
  2.958035e+01    7.221059e-01
  2.959623e+01    7.085466e-01
  2.961210e+01    7.142296e-01
  2.962798e+01    7.293226e-01
  2.964385e+01    7.174379e-01
  2.965973e+01    7.202223e-01
  2.967560e+01    7.265585e-01
  2.969148e+01    7.129607e-01
  2.970736e+01    7.343323e-01
  2.972323e+01    7.110621e-01
  2.973911e+01    7.107415e-01
  2.975498e+01    7.148125e-01
  2.977086e+01    7.336110e-01
  2.978673e+01    7.204337e-01
  2.980261e+01    7.269168e-01
  2.981848e+01    7.285368e-01
  2.983436e+01    7.132972e-01
  2.985024e+01    7.244702e-01
  2.986611e+01    7.355686e-01
  2.988199e+01    7.438782e-01
  2.989786e+01    7.441469e-01
  2.991374e+01    7.223522e-01
  2.992961e+01    7.200228e-01
  2.994549e+01    7.481006e-01
  2.996136e+01    7.334485e-01
  2.997724e+01    7.382476e-01
  2.999312e+01    7.470685e-01
  3.000899e+01    7.554184e-01
  3.002487e+01    7.421597e-01
  3.004074e+01    7.384530e-01
  3.005662e+01    7.467746e-01
  3.007249e+01    7.406623e-01
  3.008837e+01    7.237327e-01
  3.010424e+01    7.227501e-01
  3.012012e+01    7.270254e-01
  3.013600e+01    7.248697e-01
  3.015187e+01    6.941040e-01
  3.016775e+01    7.144902e-01
  3.018362e+01    7.078905e-01
  3.019950e+01    7.242723e-01
  3.021537e+01    7.183842e-01
  3.023125e+01    7.151949e-01
  3.024712e+01    7.122886e-01
  3.026300e+01    7.170893e-01
  3.027888e+01    7.194502e-01
  3.029475e+01    7.185054e-01
  3.031063e+01    7.148775e-01
  3.032650e+01    7.227923e-01
  3.034238e+01    7.048679e-01
  3.035825e+01    7.182870e-01
  3.037413e+01    7.184153e-01
  3.039000e+01    7.053018e-01
  3.040588e+01    7.139906e-01
  3.042176e+01    7.176595e-01
  3.043763e+01    7.208229e-01
  3.045351e+01    7.075102e-01
  3.046938e+01    7.041022e-01
  3.048526e+01    7.097129e-01
  3.050113e+01    7.032385e-01
  3.051701e+01    7.120664e-01
  3.053288e+01    7.341020e-01
  3.054876e+01    7.148191e-01
  3.056464e+01    7.288568e-01
  3.058051e+01    7.399659e-01
  3.059639e+01    7.225217e-01
  3.061226e+01    7.037725e-01
  3.062814e+01    7.080270e-01
  3.064401e+01    7.005786e-01
  3.065989e+01    7.071555e-01
  3.067577e+01    7.084859e-01
  3.069164e+01    7.220138e-01
  3.070752e+01    7.246273e-01
  3.072339e+01    7.045226e-01
  3.073927e+01    7.151682e-01
  3.075514e+01    7.181088e-01
  3.077102e+01    7.066566e-01
  3.078689e+01    7.147282e-01
  3.080277e+01    7.233124e-01
  3.081865e+01    7.192829e-01
  3.083452e+01    6.998641e-01
  3.085040e+01    7.327407e-01
  3.086627e+01    7.207249e-01
  3.088215e+01    7.083393e-01
  3.089802e+01    7.113057e-01
  3.091390e+01    6.931657e-01
  3.092977e+01    7.295676e-01
  3.094565e+01    7.381586e-01
  3.096153e+01    7.183650e-01
  3.097740e+01    7.242178e-01
  3.099328e+01    7.144954e-01
  3.100915e+01    7.005642e-01
  3.102503e+01    7.313635e-01
  3.104090e+01    7.282714e-01
  3.105678e+01    7.173392e-01
  3.107265e+01    7.358669e-01
  3.108853e+01    7.422740e-01
  3.110441e+01    7.366605e-01
  3.112028e+01    7.191753e-01
  3.113616e+01    7.249797e-01
  3.115203e+01    7.285278e-01
  3.116791e+01    7.241732e-01
  3.118378e+01    7.214460e-01
  3.119966e+01    7.253457e-01
  3.121553e+01    7.211276e-01
  3.123141e+01    7.180638e-01
  3.124729e+01    7.188517e-01
  3.126316e+01    7.156342e-01
  3.127904e+01    7.188793e-01
  3.129491e+01    7.315515e-01
  3.131079e+01    7.452036e-01
  3.132666e+01    7.359565e-01
  3.134254e+01    7.467368e-01
  3.135841e+01    7.558225e-01
  3.137429e+01    7.648628e-01
  3.139017e+01    7.580922e-01
  3.140604e+01    7.456834e-01
  3.142192e+01    7.490299e-01
  3.143779e+01    7.607356e-01
  3.145367e+01    7.410073e-01
  3.146954e+01    7.601464e-01
  3.148542e+01    7.512912e-01
  3.150129e+01    7.678576e-01
  3.151717e+01    7.665868e-01
  3.153305e+01    7.786807e-01
  3.154892e+01    7.846379e-01
  3.156480e+01    7.845157e-01
  3.158067e+01    8.006726e-01
  3.159655e+01    8.316278e-01
  3.161242e+01    8.407719e-01
  3.162830e+01    8.297541e-01
  3.164418e+01    8.387660e-01
  3.166005e+01    8.534138e-01
  3.167593e+01    8.811767e-01
  3.169180e+01    8.820518e-01
  3.170768e+01    9.090462e-01
  3.172355e+01    9.512118e-01
  3.173943e+01    9.969208e-01
  3.175530e+01    1.061487e+00
  3.177118e+01    1.101772e+00
  3.178706e+01    1.178180e+00
  3.180293e+01    1.298731e+00
  3.181881e+01    1.396536e+00
  3.183468e+01    1.514360e+00
  3.185056e+01    1.663807e+00
  3.186643e+01    1.842683e+00
  3.188231e+01    2.000746e+00
  3.189818e+01    2.163965e+00
  3.191406e+01    2.320519e+00
  3.192994e+01    2.451713e+00
  3.194581e+01    2.452594e+00
  3.196169e+01    2.409927e+00
  3.197756e+01    2.276049e+00
  3.199344e+01    2.101150e+00
  3.200931e+01    1.912486e+00
  3.202519e+01    1.722779e+00
  3.204106e+01    1.563601e+00
  3.205694e+01    1.447644e+00
  3.207282e+01    1.297499e+00
  3.208869e+01    1.162299e+00
  3.210457e+01    1.096175e+00
  3.212044e+01    1.068027e+00
  3.213632e+01    9.977762e-01
  3.215219e+01    9.768283e-01
  3.216807e+01    9.276831e-01
  3.218394e+01    8.687004e-01
  3.219982e+01    8.574303e-01
  3.221570e+01    8.857829e-01
  3.223157e+01    8.296904e-01
  3.224745e+01    8.302899e-01
  3.226332e+01    8.212644e-01
  3.227920e+01    7.958482e-01
  3.229507e+01    8.237593e-01
  3.231095e+01    8.102851e-01
  3.232682e+01    8.013053e-01
  3.234270e+01    7.608705e-01
  3.235858e+01    7.458795e-01
  3.237445e+01    7.472908e-01
  3.239033e+01    7.399613e-01
  3.240620e+01    7.555196e-01
  3.242208e+01    7.639337e-01
  3.243795e+01    7.520534e-01
  3.245383e+01    7.469738e-01
  3.246970e+01    7.498733e-01
  3.248558e+01    7.475274e-01
  3.250146e+01    7.625899e-01
  3.251733e+01    7.696745e-01
  3.253321e+01    7.415091e-01
  3.254908e+01    7.379172e-01
