# == pyFAI calibration ==
# Distance Sample to Detector: 0.3999999939076516 m
# PONI: 9.750e-02, 1.135e-01 m
# Rotations: -0.000175 0.000000 -0.000000 rad
# 
# == Fit2d calibration ==
# Distance Sample-beamCenter: 400.000 mm
# Center: x=1514.000, y=1300.000 pix
# Tilt: 0.010 deg  TiltPlanRot: 0.010 deg
# 
# Detector Detector	 Spline= None	 PixelSize= 7.500e-05, 7.500e-05 m
#    Detector has a mask: False 
#    Detector has a dark current: False 
#    detector has a flat field: False 
# 
# Wavelength: 6.888e-11 m
# Mask applied: user provided
# Dark current applied: False
# Flat field applied: False
# Polarization factor: 0.99
# Normalization factor: 1.0
# --> /home/myspot/data/2024_07_Rosario/Ru-CGO-ex/2024-07-27_002_Ru-CGO-ex_Activtation_ramp_000002_data_000018.dat
#       q_nm^-1             I 
  2.003187e-02    1.542410e-01
  3.590745e-02    1.284336e-01
  5.178302e-02    0.000000e+00
  6.765859e-02    5.234959e-02
  8.353417e-02    1.196972e-01
  9.940974e-02    9.135384e-02
  1.152853e-01    7.227210e-02
  1.311609e-01    9.006867e-02
  1.470365e-01    7.797642e-02
  1.629120e-01    6.616482e-02
  1.787876e-01    1.340750e-02
  1.946632e-01    0.000000e+00
  2.105388e-01    2.204624e-02
  2.264143e-01    4.196878e-02
  2.422899e-01    1.593336e-02
  2.581655e-01    2.681665e-02
  2.740411e-01    3.755496e-02
  2.899166e-01    5.413522e-02
  3.057922e-01    7.811867e-02
  3.216678e-01    4.797560e-02
  3.375433e-01    4.330964e-02
  3.534189e-01    5.188941e-02
  3.692945e-01    2.106642e-02
  3.851701e-01    4.496602e-02
  4.010456e-01    9.903056e-02
  4.169212e-01    4.616804e-02
  4.327968e-01    3.965480e-02
  4.486724e-01    2.838692e-02
  4.645479e-01    4.174637e-02
  4.804235e-01    3.826796e-02
  4.962991e-01    5.400102e-02
  5.121747e-01    5.074781e-02
  5.280502e-01    1.133909e-02
  5.439258e-01    2.658883e-02
  5.598014e-01    3.882841e-02
  5.756770e-01    6.777482e-02
  5.915525e-01    3.476695e-02
  6.074281e-01    2.703323e-02
  6.233037e-01    4.128778e-02
  6.391793e-01    2.146318e-02
  6.550548e-01    3.073035e-02
  6.709304e-01    4.349904e-02
  6.868060e-01    5.288403e-02
  7.026815e-01    5.069230e-02
  7.185571e-01    3.218576e-02
  7.344327e-01    2.756205e-02
  7.503083e-01    4.049598e-02
  7.661838e-01    6.875259e-02
  7.820594e-01    1.055916e-01
  7.979350e-01    1.481726e-01
  8.138106e-01    1.904648e-01
  8.296861e-01    2.573418e-01
  8.455617e-01    3.023082e-01
  8.614373e-01    3.672082e-01
  8.773129e-01    4.737027e-01
  8.931884e-01    5.478445e-01
  9.090640e-01    5.974317e-01
  9.249396e-01    6.142700e-01
  9.408152e-01    6.933954e-01
  9.566907e-01    6.832247e-01
  9.725663e-01    7.928348e-01
  9.884419e-01    1.051043e+00
  1.004317e+00    1.120101e+00
  1.020193e+00    1.128247e+00
  1.036069e+00    1.189418e+00
  1.051944e+00    1.220712e+00
  1.067820e+00    1.329003e+00
  1.083695e+00    1.357682e+00
  1.099571e+00    1.390375e+00
  1.115446e+00    1.500863e+00
  1.131322e+00    1.551502e+00
  1.147198e+00    1.657574e+00
  1.163073e+00    1.534363e+00
  1.178949e+00    1.508442e+00
  1.194824e+00    1.649406e+00
  1.210700e+00    1.929742e+00
  1.226575e+00    2.131331e+00
  1.242451e+00    2.371785e+00
  1.258327e+00    2.407011e+00
  1.274202e+00    2.379648e+00
  1.290078e+00    2.558766e+00
  1.305953e+00    2.633433e+00
  1.321829e+00    2.567835e+00
  1.337705e+00    2.634511e+00
  1.353580e+00    2.664766e+00
  1.369456e+00    2.669013e+00
  1.385331e+00    2.718367e+00
  1.401207e+00    2.774864e+00
  1.417082e+00    2.791668e+00
  1.432958e+00    2.719565e+00
  1.448834e+00    2.877404e+00
  1.464709e+00    2.887572e+00
  1.480585e+00    2.862986e+00
  1.496460e+00    2.976164e+00
  1.512336e+00    3.037252e+00
  1.528211e+00    3.088547e+00
  1.544087e+00    3.106395e+00
  1.559963e+00    2.988125e+00
  1.575838e+00    2.905006e+00
  1.591714e+00    2.985185e+00
  1.607589e+00    2.895233e+00
  1.623465e+00    2.931593e+00
  1.639340e+00    2.962532e+00
  1.655216e+00    2.934407e+00
  1.671092e+00    2.939299e+00
  1.686967e+00    2.971042e+00
  1.702843e+00    2.989446e+00
  1.718718e+00    3.004895e+00
  1.734594e+00    2.969659e+00
  1.750469e+00    2.811821e+00
  1.766345e+00    2.868173e+00
  1.782221e+00    2.906222e+00
  1.798096e+00    2.928844e+00
  1.813972e+00    2.895094e+00
  1.829847e+00    2.949348e+00
  1.845723e+00    2.907210e+00
  1.861598e+00    2.809353e+00
  1.877474e+00    2.851764e+00
  1.893350e+00    2.792818e+00
  1.909225e+00    2.724173e+00
  1.925101e+00    2.734308e+00
  1.940976e+00    2.737285e+00
  1.956852e+00    2.760487e+00
  1.972727e+00    2.712287e+00
  1.988603e+00    2.803571e+00
  2.004479e+00    2.742362e+00
  2.020354e+00    2.892165e+00
  2.036230e+00    2.856298e+00
  2.052105e+00    2.788921e+00
  2.067981e+00    2.741666e+00
  2.083856e+00    2.766779e+00
  2.099732e+00    2.726028e+00
  2.115608e+00    2.743257e+00
  2.131483e+00    2.785037e+00
  2.147359e+00    2.889431e+00
  2.163234e+00    2.853816e+00
  2.179110e+00    2.857958e+00
  2.194985e+00    2.915920e+00
  2.210861e+00    2.867994e+00
  2.226737e+00    2.758813e+00
  2.242612e+00    2.699992e+00
  2.258488e+00    2.768101e+00
  2.274363e+00    2.770394e+00
  2.290239e+00    2.799450e+00
  2.306115e+00    2.792881e+00
  2.321990e+00    2.810099e+00
  2.337866e+00    2.849266e+00
  2.353741e+00    2.826775e+00
  2.369617e+00    2.765366e+00
  2.385492e+00    2.835238e+00
  2.401368e+00    2.942128e+00
  2.417244e+00    2.875856e+00
  2.433119e+00    2.842069e+00
  2.448995e+00    2.872531e+00
  2.464870e+00    2.814500e+00
  2.480746e+00    2.767010e+00
  2.496621e+00    2.823510e+00
  2.512497e+00    2.826030e+00
  2.528373e+00    2.771899e+00
  2.544248e+00    2.811592e+00
  2.560124e+00    2.873986e+00
  2.575999e+00    2.770772e+00
  2.591875e+00    2.818662e+00
  2.607750e+00    2.884267e+00
  2.623626e+00    2.928110e+00
  2.639502e+00    2.835810e+00
  2.655377e+00    2.781570e+00
  2.671253e+00    2.743911e+00
  2.687128e+00    2.771546e+00
  2.703004e+00    2.813497e+00
  2.718879e+00    2.822724e+00
  2.734755e+00    2.850157e+00
  2.750631e+00    2.958260e+00
  2.766506e+00    2.960896e+00
  2.782382e+00    2.873209e+00
  2.798257e+00    2.889601e+00
  2.814133e+00    2.885795e+00
  2.830008e+00    2.768538e+00
  2.845884e+00    2.779340e+00
  2.861760e+00    2.908743e+00
  2.877635e+00    2.785072e+00
  2.893511e+00    2.869855e+00
  2.909386e+00    2.981461e+00
  2.925262e+00    2.919976e+00
  2.941137e+00    2.896611e+00
  2.957013e+00    2.820030e+00
  2.972889e+00    2.939326e+00
  2.988764e+00    2.941341e+00
  3.004640e+00    2.848210e+00
  3.020515e+00    2.878263e+00
  3.036391e+00    2.847458e+00
  3.052266e+00    2.886996e+00
  3.068142e+00    2.977787e+00
  3.084018e+00    2.996746e+00
  3.099893e+00    3.082476e+00
  3.115769e+00    2.954111e+00
  3.131644e+00    2.908518e+00
  3.147520e+00    2.864503e+00
  3.163395e+00    2.887685e+00
  3.179271e+00    2.974945e+00
  3.195147e+00    2.959299e+00
  3.211022e+00    2.979419e+00
  3.226898e+00    2.997013e+00
  3.242773e+00    2.926807e+00
  3.258649e+00    2.883492e+00
  3.274525e+00    2.899523e+00
  3.290400e+00    2.837717e+00
  3.306276e+00    2.856641e+00
  3.322151e+00    2.946622e+00
  3.338027e+00    2.984188e+00
  3.353902e+00    2.931589e+00
  3.369778e+00    2.994968e+00
  3.385654e+00    2.982540e+00
  3.401529e+00    2.958131e+00
  3.417405e+00    2.930562e+00
  3.433280e+00    2.896404e+00
  3.449156e+00    2.963567e+00
  3.465031e+00    2.971922e+00
  3.480907e+00    2.878171e+00
  3.496783e+00    3.015488e+00
  3.512658e+00    3.037221e+00
  3.528534e+00    2.942251e+00
  3.544409e+00    2.976739e+00
  3.560285e+00    3.029119e+00
  3.576160e+00    3.034457e+00
  3.592036e+00    3.040434e+00
  3.607912e+00    2.961286e+00
  3.623787e+00    3.019792e+00
  3.639663e+00    3.033480e+00
  3.655538e+00    3.058135e+00
  3.671414e+00    3.025134e+00
  3.687289e+00    2.958590e+00
  3.703165e+00    2.967143e+00
  3.719041e+00    2.937428e+00
  3.734916e+00    2.971846e+00
  3.750792e+00    2.942986e+00
  3.766667e+00    2.993317e+00
  3.782543e+00    2.977754e+00
  3.798418e+00    3.033202e+00
  3.814294e+00    2.981689e+00
  3.830170e+00    2.972834e+00
  3.846045e+00    2.982366e+00
  3.861921e+00    3.021846e+00
  3.877796e+00    2.992755e+00
  3.893672e+00    3.025711e+00
  3.909547e+00    3.015932e+00
  3.925423e+00    3.060891e+00
  3.941299e+00    3.069835e+00
  3.957174e+00    3.031053e+00
  3.973050e+00    2.968256e+00
  3.988925e+00    2.986416e+00
  4.004801e+00    3.069363e+00
  4.020676e+00    3.051531e+00
  4.036552e+00    3.005490e+00
  4.052428e+00    3.012062e+00
  4.068303e+00    3.070890e+00
  4.084179e+00    3.096010e+00
  4.100054e+00    2.997126e+00
  4.115930e+00    3.040836e+00
  4.131806e+00    3.029560e+00
  4.147681e+00    3.048155e+00
  4.163557e+00    3.045601e+00
  4.179432e+00    3.072432e+00
  4.195308e+00    3.074327e+00
  4.211183e+00    3.026351e+00
  4.227059e+00    3.059178e+00
  4.242935e+00    3.104636e+00
  4.258810e+00    3.046538e+00
  4.274686e+00    3.023923e+00
  4.290561e+00    3.091707e+00
  4.306437e+00    3.117181e+00
  4.322312e+00    3.089328e+00
  4.338188e+00    2.911529e+00
  4.354064e+00    2.985016e+00
  4.369939e+00    3.063386e+00
  4.385815e+00    3.027887e+00
  4.401690e+00    3.087139e+00
  4.417566e+00    3.028871e+00
  4.433441e+00    3.088509e+00
  4.449317e+00    3.112522e+00
  4.465193e+00    3.083151e+00
  4.481068e+00    3.072204e+00
  4.496944e+00    3.088347e+00
  4.512819e+00    3.133783e+00
  4.528695e+00    3.098501e+00
  4.544570e+00    3.107513e+00
  4.560446e+00    3.097133e+00
  4.576322e+00    3.144300e+00
  4.592197e+00    3.101909e+00
  4.608073e+00    3.077473e+00
  4.623948e+00    3.100797e+00
  4.639824e+00    3.045989e+00
  4.655699e+00    3.020515e+00
  4.671575e+00    3.084495e+00
  4.687451e+00    3.060413e+00
  4.703326e+00    3.094926e+00
  4.719202e+00    3.052737e+00
  4.735077e+00    3.116842e+00
  4.750953e+00    3.159034e+00
  4.766828e+00    3.114986e+00
  4.782704e+00    3.102748e+00
  4.798580e+00    3.081161e+00
  4.814455e+00    3.116411e+00
  4.830331e+00    3.115097e+00
  4.846206e+00    3.093159e+00
  4.862082e+00    3.120734e+00
  4.877957e+00    3.048899e+00
  4.893833e+00    3.076605e+00
  4.909709e+00    3.094284e+00
  4.925584e+00    3.161768e+00
  4.941460e+00    3.122303e+00
  4.957335e+00    3.129550e+00
  4.973211e+00    3.204232e+00
  4.989086e+00    3.207951e+00
  5.004962e+00    3.146904e+00
  5.020838e+00    3.121678e+00
  5.036713e+00    3.167163e+00
  5.052589e+00    3.135809e+00
  5.068464e+00    3.147527e+00
  5.084340e+00    3.131051e+00
  5.100216e+00    3.166739e+00
  5.116091e+00    3.139009e+00
  5.131967e+00    3.163667e+00
  5.147842e+00    3.144129e+00
  5.163718e+00    3.146199e+00
  5.179593e+00    3.124213e+00
  5.195469e+00    3.119187e+00
  5.211345e+00    3.163525e+00
  5.227220e+00    3.126137e+00
  5.243096e+00    3.156073e+00
  5.258971e+00    3.202015e+00
  5.274847e+00    3.223515e+00
  5.290722e+00    3.153107e+00
  5.306598e+00    3.124563e+00
  5.322474e+00    3.078995e+00
  5.338349e+00    3.147328e+00
  5.354225e+00    3.190954e+00
  5.370100e+00    3.117625e+00
  5.385976e+00    3.072789e+00
  5.401851e+00    3.107361e+00
  5.417727e+00    3.092979e+00
  5.433603e+00    3.100729e+00
  5.449478e+00    3.058775e+00
  5.465354e+00    3.000972e+00
  5.481229e+00    3.090406e+00
  5.497105e+00    3.087771e+00
  5.512980e+00    3.083954e+00
  5.528856e+00    3.070397e+00
  5.544732e+00    3.061296e+00
  5.560607e+00    2.996639e+00
  5.576483e+00    3.052978e+00
  5.592358e+00    3.081958e+00
  5.608234e+00    3.012015e+00
  5.624109e+00    3.127526e+00
  5.639985e+00    3.092247e+00
  5.655861e+00    3.092265e+00
  5.671736e+00    3.043114e+00
  5.687612e+00    3.058219e+00
  5.703487e+00    3.064216e+00
  5.719363e+00    3.041651e+00
  5.735238e+00    3.026819e+00
  5.751114e+00    3.080099e+00
  5.766990e+00    3.067272e+00
  5.782865e+00    2.992184e+00
  5.798741e+00    3.034356e+00
  5.814616e+00    3.018869e+00
  5.830492e+00    3.084801e+00
  5.846367e+00    3.032349e+00
  5.862243e+00    3.043799e+00
  5.878119e+00    3.067437e+00
  5.893994e+00    3.047384e+00
  5.909870e+00    3.003989e+00
  5.925745e+00    2.989472e+00
  5.941621e+00    3.007009e+00
  5.957497e+00    3.041916e+00
  5.973372e+00    3.063978e+00
  5.989248e+00    2.981422e+00
  6.005123e+00    2.970511e+00
  6.020999e+00    2.970607e+00
  6.036874e+00    2.932409e+00
  6.052750e+00    2.969866e+00
  6.068626e+00    2.963269e+00
  6.084501e+00    3.034823e+00
  6.100377e+00    3.141135e+00
  6.116252e+00    3.114130e+00
  6.132128e+00    3.065437e+00
  6.148003e+00    3.029200e+00
  6.163879e+00    3.069810e+00
  6.179755e+00    3.116483e+00
  6.195630e+00    3.073223e+00
  6.211506e+00    3.007389e+00
  6.227381e+00    3.004251e+00
  6.243257e+00    3.111019e+00
  6.259132e+00    3.017793e+00
  6.275008e+00    3.055482e+00
  6.290884e+00    3.047952e+00
  6.306759e+00    3.101845e+00
  6.322635e+00    3.011738e+00
  6.338510e+00    3.014525e+00
  6.354386e+00    3.077861e+00
  6.370261e+00    3.055129e+00
  6.386137e+00    3.036853e+00
  6.402013e+00    3.064397e+00
  6.417888e+00    3.067098e+00
  6.433764e+00    3.025192e+00
  6.449639e+00    3.087700e+00
  6.465515e+00    3.095346e+00
  6.481390e+00    3.003196e+00
  6.497266e+00    3.016306e+00
  6.513142e+00    3.116754e+00
  6.529017e+00    2.987243e+00
  6.544893e+00    3.005865e+00
  6.560768e+00    3.048575e+00
  6.576644e+00    3.046558e+00
  6.592519e+00    3.028811e+00
  6.608395e+00    3.055501e+00
  6.624271e+00    3.046168e+00
  6.640146e+00    3.026296e+00
  6.656022e+00    3.027966e+00
  6.671897e+00    3.068265e+00
  6.687773e+00    3.036699e+00
  6.703648e+00    3.036389e+00
  6.719524e+00    3.014512e+00
  6.735400e+00    3.045442e+00
  6.751275e+00    3.016018e+00
  6.767151e+00    2.996766e+00
  6.783026e+00    3.053047e+00
  6.798902e+00    3.112133e+00
  6.814777e+00    3.063358e+00
  6.830653e+00    3.113810e+00
  6.846529e+00    3.092460e+00
  6.862404e+00    3.018672e+00
  6.878280e+00    3.068752e+00
  6.894155e+00    3.132025e+00
  6.910031e+00    3.166154e+00
  6.925907e+00    3.042645e+00
  6.941782e+00    3.081611e+00
  6.957658e+00    3.023299e+00
  6.973533e+00    2.992245e+00
  6.989409e+00    3.043447e+00
  7.005284e+00    3.087263e+00
  7.021160e+00    3.070031e+00
  7.037036e+00    3.025312e+00
  7.052911e+00    2.965823e+00
  7.068787e+00    3.012141e+00
  7.084662e+00    3.039070e+00
  7.100538e+00    3.050703e+00
  7.116413e+00    3.052710e+00
  7.132289e+00    2.997481e+00
  7.148165e+00    3.023297e+00
  7.164040e+00    3.039153e+00
  7.179916e+00    3.047188e+00
  7.195791e+00    2.959272e+00
  7.211667e+00    2.975178e+00
  7.227542e+00    3.042181e+00
  7.243418e+00    3.078432e+00
  7.259294e+00    3.066477e+00
  7.275169e+00    2.969768e+00
  7.291045e+00    2.931166e+00
  7.306920e+00    3.001034e+00
  7.322796e+00    3.049684e+00
  7.338671e+00    3.000315e+00
  7.354547e+00    2.981242e+00
  7.370423e+00    2.992854e+00
  7.386298e+00    2.999264e+00
  7.402174e+00    2.992416e+00
  7.418049e+00    3.005684e+00
  7.433925e+00    2.998762e+00
  7.449800e+00    2.955684e+00
  7.465676e+00    2.958994e+00
  7.481552e+00    2.988183e+00
  7.497427e+00    3.028238e+00
  7.513303e+00    2.975518e+00
  7.529178e+00    2.948028e+00
  7.545054e+00    2.986030e+00
  7.560929e+00    3.032914e+00
  7.576805e+00    2.973007e+00
  7.592681e+00    2.981877e+00
  7.608556e+00    2.940579e+00
  7.624432e+00    2.949943e+00
  7.640307e+00    2.930806e+00
  7.656183e+00    2.943834e+00
  7.672058e+00    3.034449e+00
  7.687934e+00    2.998676e+00
  7.703810e+00    2.962940e+00
  7.719685e+00    2.938010e+00
  7.735561e+00    2.859913e+00
  7.751436e+00    2.911045e+00
  7.767312e+00    2.961701e+00
  7.783187e+00    2.977135e+00
  7.799063e+00    2.960737e+00
  7.814939e+00    2.967270e+00
  7.830814e+00    2.936313e+00
  7.846690e+00    2.956328e+00
  7.862565e+00    2.986925e+00
  7.878441e+00    3.014916e+00
  7.894317e+00    3.024433e+00
  7.910192e+00    2.900708e+00
  7.926068e+00    2.899968e+00
  7.941943e+00    2.893520e+00
  7.957819e+00    2.894930e+00
  7.973694e+00    2.970454e+00
  7.989570e+00    2.969660e+00
  8.005446e+00    2.972722e+00
  8.021321e+00    2.936535e+00
  8.037197e+00    2.904106e+00
  8.053072e+00    2.912282e+00
  8.068948e+00    2.967023e+00
  8.084823e+00    2.942455e+00
  8.100699e+00    2.966348e+00
  8.116575e+00    3.000345e+00
  8.132450e+00    2.972524e+00
  8.148326e+00    2.963860e+00
  8.164201e+00    2.971256e+00
  8.180077e+00    3.063743e+00
  8.195952e+00    3.065624e+00
  8.211828e+00    3.022617e+00
  8.227704e+00    3.043062e+00
  8.243579e+00    3.045321e+00
  8.259455e+00    2.947260e+00
  8.275330e+00    2.941425e+00
  8.291206e+00    2.931323e+00
  8.307081e+00    2.903227e+00
  8.322957e+00    2.947557e+00
  8.338833e+00    2.892475e+00
  8.354708e+00    2.873912e+00
  8.370584e+00    2.909097e+00
  8.386459e+00    2.912441e+00
  8.402335e+00    2.921623e+00
  8.418210e+00    2.887447e+00
  8.434086e+00    2.892402e+00
  8.449962e+00    2.857223e+00
  8.465837e+00    2.826401e+00
  8.481713e+00    2.856722e+00
  8.497588e+00    2.887706e+00
  8.513464e+00    2.907381e+00
  8.529339e+00    2.913894e+00
  8.545215e+00    2.920838e+00
  8.561091e+00    2.927154e+00
  8.576966e+00    2.901248e+00
  8.592842e+00    2.916327e+00
  8.608717e+00    2.869900e+00
  8.624593e+00    2.931337e+00
  8.640468e+00    2.861873e+00
  8.656344e+00    2.917916e+00
  8.672220e+00    2.925431e+00
  8.688095e+00    2.878999e+00
  8.703971e+00    2.874145e+00
  8.719846e+00    2.807142e+00
  8.735722e+00    2.855390e+00
  8.751598e+00    2.928120e+00
  8.767473e+00    2.912351e+00
  8.783349e+00    2.868061e+00
  8.799224e+00    2.864757e+00
  8.815100e+00    2.862809e+00
  8.830975e+00    2.886798e+00
  8.846851e+00    2.844176e+00
  8.862727e+00    2.833212e+00
  8.878602e+00    2.857579e+00
  8.894478e+00    2.881240e+00
  8.910353e+00    2.924469e+00
  8.926229e+00    2.927649e+00
  8.942104e+00    2.887430e+00
  8.957980e+00    2.940349e+00
  8.973856e+00    2.852463e+00
  8.989731e+00    2.786624e+00
  9.005607e+00    2.828817e+00
  9.021482e+00    2.787404e+00
  9.037358e+00    2.866697e+00
  9.053233e+00    2.839508e+00
  9.069109e+00    2.817209e+00
  9.084985e+00    2.800121e+00
  9.100860e+00    2.794019e+00
  9.116736e+00    2.811265e+00
  9.132611e+00    2.854757e+00
  9.148487e+00    2.862251e+00
  9.164362e+00    2.815747e+00
  9.180238e+00    2.775198e+00
  9.196114e+00    2.779451e+00
  9.211989e+00    2.822674e+00
  9.227865e+00    2.799755e+00
  9.243740e+00    2.799377e+00
  9.259616e+00    2.789452e+00
  9.275491e+00    2.826928e+00
  9.291367e+00    2.851211e+00
  9.307243e+00    2.825619e+00
  9.323118e+00    2.769296e+00
  9.338994e+00    2.812980e+00
  9.354869e+00    2.805202e+00
  9.370745e+00    2.813253e+00
  9.386620e+00    2.767778e+00
  9.402496e+00    2.750524e+00
  9.418372e+00    2.845259e+00
  9.434247e+00    2.825282e+00
  9.450123e+00    2.778397e+00
  9.465998e+00    2.760556e+00
  9.481874e+00    2.750385e+00
  9.497749e+00    2.817803e+00
  9.513625e+00    2.805107e+00
  9.529501e+00    2.826391e+00
  9.545376e+00    2.759752e+00
  9.561252e+00    2.799088e+00
  9.577127e+00    2.790901e+00
  9.593003e+00    2.761331e+00
  9.608878e+00    2.796204e+00
  9.624754e+00    2.794396e+00
  9.640630e+00    2.826909e+00
  9.656505e+00    2.789361e+00
  9.672381e+00    2.722682e+00
  9.688256e+00    2.731400e+00
  9.704132e+00    2.771029e+00
  9.720008e+00    2.719444e+00
  9.735883e+00    2.688249e+00
  9.751759e+00    2.693817e+00
  9.767634e+00    2.725332e+00
  9.783510e+00    2.748802e+00
  9.799385e+00    2.733541e+00
  9.815261e+00    2.728975e+00
  9.831137e+00    2.726448e+00
  9.847012e+00    2.729002e+00
  9.862888e+00    2.679652e+00
  9.878763e+00    2.666556e+00
  9.894639e+00    2.672275e+00
  9.910514e+00    2.682735e+00
  9.926390e+00    2.700865e+00
  9.942266e+00    2.736264e+00
  9.958141e+00    2.688285e+00
  9.974017e+00    2.681608e+00
  9.989892e+00    2.701638e+00
  1.000577e+01    2.683892e+00
  1.002164e+01    2.703418e+00
  1.003752e+01    2.715436e+00
  1.005339e+01    2.663505e+00
  1.006927e+01    2.644417e+00
  1.008515e+01    2.657412e+00
  1.010102e+01    2.648232e+00
  1.011690e+01    2.737827e+00
  1.013277e+01    2.767390e+00
  1.014865e+01    2.655525e+00
  1.016452e+01    2.628448e+00
  1.018040e+01    2.654047e+00
  1.019627e+01    2.641966e+00
  1.021215e+01    2.701556e+00
  1.022803e+01    2.650783e+00
  1.024390e+01    2.678704e+00
  1.025978e+01    2.704341e+00
  1.027565e+01    2.662607e+00
  1.029153e+01    2.641501e+00
  1.030740e+01    2.657750e+00
  1.032328e+01    2.673631e+00
  1.033915e+01    2.616302e+00
  1.035503e+01    2.602172e+00
  1.037091e+01    2.557863e+00
  1.038678e+01    2.608603e+00
  1.040266e+01    2.608902e+00
  1.041853e+01    2.613298e+00
  1.043441e+01    2.622912e+00
  1.045028e+01    2.595162e+00
  1.046616e+01    2.639549e+00
  1.048204e+01    2.612639e+00
  1.049791e+01    2.552562e+00
  1.051379e+01    2.592707e+00
  1.052966e+01    2.577060e+00
  1.054554e+01    2.560873e+00
  1.056141e+01    2.604154e+00
  1.057729e+01    2.580479e+00
  1.059316e+01    2.554528e+00
  1.060904e+01    2.584776e+00
  1.062492e+01    2.558608e+00
  1.064079e+01    2.564227e+00
  1.065667e+01    2.576273e+00
  1.067254e+01    2.543530e+00
  1.068842e+01    2.526847e+00
  1.070429e+01    2.523113e+00
  1.072017e+01    2.574861e+00
  1.073604e+01    2.630043e+00
  1.075192e+01    2.562179e+00
  1.076780e+01    2.556306e+00
  1.078367e+01    2.569526e+00
  1.079955e+01    2.559982e+00
  1.081542e+01    2.556644e+00
  1.083130e+01    2.543176e+00
  1.084717e+01    2.530472e+00
  1.086305e+01    2.553596e+00
  1.087892e+01    2.582985e+00
  1.089480e+01    2.552655e+00
  1.091068e+01    2.517040e+00
  1.092655e+01    2.516065e+00
  1.094243e+01    2.563640e+00
  1.095830e+01    2.555223e+00
  1.097418e+01    2.524501e+00
  1.099005e+01    2.542401e+00
  1.100593e+01    2.518273e+00
  1.102180e+01    2.554520e+00
  1.103768e+01    2.522980e+00
  1.105356e+01    2.489949e+00
  1.106943e+01    2.514632e+00
  1.108531e+01    2.497767e+00
  1.110118e+01    2.532118e+00
  1.111706e+01    2.520440e+00
  1.113293e+01    2.500233e+00
  1.114881e+01    2.450836e+00
  1.116468e+01    2.485857e+00
  1.118056e+01    2.460402e+00
  1.119644e+01    2.458147e+00
  1.121231e+01    2.472822e+00
  1.122819e+01    2.472333e+00
  1.124406e+01    2.439016e+00
  1.125994e+01    2.437463e+00
  1.127581e+01    2.450617e+00
  1.129169e+01    2.416625e+00
  1.130756e+01    2.479782e+00
  1.132344e+01    2.453625e+00
  1.133932e+01    2.473933e+00
  1.135519e+01    2.465266e+00
  1.137107e+01    2.478977e+00
  1.138694e+01    2.425397e+00
  1.140282e+01    2.410200e+00
  1.141869e+01    2.463332e+00
  1.143457e+01    2.462170e+00
  1.145045e+01    2.379834e+00
  1.146632e+01    2.376062e+00
  1.148220e+01    2.386517e+00
  1.149807e+01    2.378782e+00
  1.151395e+01    2.367866e+00
  1.152982e+01    2.417784e+00
  1.154570e+01    2.405531e+00
  1.156157e+01    2.394432e+00
  1.157745e+01    2.408642e+00
  1.159333e+01    2.398509e+00
  1.160920e+01    2.437740e+00
  1.162508e+01    2.400978e+00
  1.164095e+01    2.381989e+00
  1.165683e+01    2.412750e+00
  1.167270e+01    2.396931e+00
  1.168858e+01    2.351722e+00
  1.170445e+01    2.363598e+00
  1.172033e+01    2.338657e+00
  1.173621e+01    2.366563e+00
  1.175208e+01    2.358085e+00
  1.176796e+01    2.354342e+00
  1.178383e+01    2.342413e+00
  1.179971e+01    2.371192e+00
  1.181558e+01    2.391620e+00
  1.183146e+01    2.371030e+00
  1.184733e+01    2.382465e+00
  1.186321e+01    2.392502e+00
  1.187909e+01    2.354543e+00
  1.189496e+01    2.366021e+00
  1.191084e+01    2.375803e+00
  1.192671e+01    2.389105e+00
  1.194259e+01    2.356221e+00
  1.195846e+01    2.374887e+00
  1.197434e+01    2.363671e+00
  1.199021e+01    2.376890e+00
  1.200609e+01    2.361479e+00
  1.202197e+01    2.352003e+00
  1.203784e+01    2.372116e+00
  1.205372e+01    2.323337e+00
  1.206959e+01    2.354685e+00
  1.208547e+01    2.379150e+00
  1.210134e+01    2.330145e+00
  1.211722e+01    2.319631e+00
  1.213309e+01    2.335935e+00
  1.214897e+01    2.332482e+00
  1.216485e+01    2.329521e+00
  1.218072e+01    2.351493e+00
  1.219660e+01    2.341629e+00
  1.221247e+01    2.326682e+00
  1.222835e+01    2.372843e+00
  1.224422e+01    2.345285e+00
  1.226010e+01    2.328721e+00
  1.227597e+01    2.376736e+00
  1.229185e+01    2.330730e+00
  1.230773e+01    2.326289e+00
  1.232360e+01    2.367150e+00
  1.233948e+01    2.393479e+00
  1.235535e+01    2.358309e+00
  1.237123e+01    2.359372e+00
  1.238710e+01    2.417480e+00
  1.240298e+01    2.398773e+00
  1.241886e+01    2.381972e+00
  1.243473e+01    2.386839e+00
  1.245061e+01    2.360850e+00
  1.246648e+01    2.323614e+00
  1.248236e+01    2.334242e+00
  1.249823e+01    2.367415e+00
  1.251411e+01    2.386481e+00
  1.252998e+01    2.366570e+00
  1.254586e+01    2.401873e+00
  1.256174e+01    2.397990e+00
  1.257761e+01    2.426757e+00
  1.259349e+01    2.415890e+00
  1.260936e+01    2.417848e+00
  1.262524e+01    2.429605e+00
  1.264111e+01    2.462504e+00
  1.265699e+01    2.453626e+00
  1.267286e+01    2.447417e+00
  1.268874e+01    2.464177e+00
  1.270462e+01    2.538599e+00
  1.272049e+01    2.546734e+00
  1.273637e+01    2.577275e+00
  1.275224e+01    2.612426e+00
  1.276812e+01    2.579287e+00
  1.278399e+01    2.628287e+00
  1.279987e+01    2.703914e+00
  1.281574e+01    2.758737e+00
  1.283162e+01    2.834236e+00
  1.284750e+01    2.888469e+00
  1.286337e+01    2.946730e+00
  1.287925e+01    3.073601e+00
  1.289512e+01    3.150624e+00
  1.291100e+01    3.273558e+00
  1.292687e+01    3.479426e+00
  1.294275e+01    3.642274e+00
  1.295862e+01    3.913275e+00
  1.297450e+01    4.281326e+00
  1.299038e+01    4.679325e+00
  1.300625e+01    5.141298e+00
  1.302213e+01    5.860799e+00
  1.303800e+01    6.799493e+00
  1.305388e+01    7.766410e+00
  1.306975e+01    9.020975e+00
  1.308563e+01    1.042135e+01
  1.310150e+01    1.197430e+01
  1.311738e+01    1.353385e+01
  1.313326e+01    1.508745e+01
  1.314913e+01    1.666105e+01
  1.316501e+01    1.796212e+01
  1.318088e+01    1.912268e+01
  1.319676e+01    1.979782e+01
  1.321263e+01    1.953512e+01
  1.322851e+01    1.842898e+01
  1.324438e+01    1.638366e+01
  1.326026e+01    1.414303e+01
  1.327614e+01    1.184637e+01
  1.329201e+01    9.821172e+00
  1.330789e+01    8.360585e+00
  1.332376e+01    7.194348e+00
  1.333964e+01    6.203539e+00
  1.335551e+01    5.459652e+00
  1.337139e+01    4.925297e+00
  1.338727e+01    4.449430e+00
  1.340314e+01    4.063789e+00
  1.341902e+01    3.748031e+00
  1.343489e+01    3.508129e+00
  1.345077e+01    3.385285e+00
  1.346664e+01    3.188331e+00
  1.348252e+01    3.008991e+00
  1.349839e+01    2.870848e+00
  1.351427e+01    2.803213e+00
  1.353015e+01    2.784705e+00
  1.354602e+01    2.725599e+00
  1.356190e+01    2.655632e+00
  1.357777e+01    2.543954e+00
  1.359365e+01    2.521150e+00
  1.360952e+01    2.436462e+00
  1.362540e+01    2.397371e+00
  1.364127e+01    2.420876e+00
  1.365715e+01    2.402923e+00
  1.367303e+01    2.369864e+00
  1.368890e+01    2.356189e+00
  1.370478e+01    2.295802e+00
  1.372065e+01    2.281486e+00
  1.373653e+01    2.238833e+00
  1.375240e+01    2.240786e+00
  1.376828e+01    2.246289e+00
  1.378415e+01    2.235090e+00
  1.380003e+01    2.238576e+00
  1.381591e+01    2.197566e+00
  1.383178e+01    2.211533e+00
  1.384766e+01    2.202170e+00
  1.386353e+01    2.167530e+00
  1.387941e+01    2.181457e+00
  1.389528e+01    2.140122e+00
  1.391116e+01    2.103379e+00
  1.392703e+01    2.128912e+00
  1.394291e+01    2.122149e+00
  1.395879e+01    2.113048e+00
  1.397466e+01    2.109374e+00
  1.399054e+01    2.099104e+00
  1.400641e+01    2.085018e+00
  1.402229e+01    2.069880e+00
  1.403816e+01    2.051949e+00
  1.405404e+01    2.048440e+00
  1.406991e+01    2.055383e+00
  1.408579e+01    2.041988e+00
  1.410167e+01    2.046043e+00
  1.411754e+01    2.035793e+00
  1.413342e+01    2.046861e+00
  1.414929e+01    2.024995e+00
  1.416517e+01    2.016284e+00
  1.418104e+01    2.038341e+00
  1.419692e+01    2.032940e+00
  1.421279e+01    2.014192e+00
  1.422867e+01    2.006347e+00
  1.424455e+01    1.989058e+00
  1.426042e+01    1.963409e+00
  1.427630e+01    1.954129e+00
  1.429217e+01    1.963636e+00
  1.430805e+01    2.023667e+00
  1.432392e+01    2.021426e+00
  1.433980e+01    1.948202e+00
  1.435568e+01    1.952419e+00
  1.437155e+01    1.986505e+00
  1.438743e+01    1.958857e+00
  1.440330e+01    1.977690e+00
  1.441918e+01    1.993524e+00
  1.443505e+01    1.934165e+00
  1.445093e+01    1.964191e+00
  1.446680e+01    1.974692e+00
  1.448268e+01    1.957256e+00
  1.449856e+01    1.954374e+00
  1.451443e+01    1.929212e+00
  1.453031e+01    1.888817e+00
  1.454618e+01    1.923794e+00
  1.456206e+01    1.953043e+00
  1.457793e+01    1.922011e+00
  1.459381e+01    1.925539e+00
  1.460968e+01    1.938339e+00
  1.462556e+01    1.935615e+00
  1.464144e+01    1.922575e+00
  1.465731e+01    1.953726e+00
  1.467319e+01    1.948440e+00
  1.468906e+01    1.958396e+00
  1.470494e+01    1.976700e+00
  1.472081e+01    1.942665e+00
  1.473669e+01    1.911170e+00
  1.475256e+01    1.929839e+00
  1.476844e+01    1.929518e+00
  1.478432e+01    1.919172e+00
  1.480019e+01    1.910857e+00
  1.481607e+01    1.903849e+00
  1.483194e+01    1.921847e+00
  1.484782e+01    1.936988e+00
  1.486369e+01    1.920813e+00
  1.487957e+01    1.929751e+00
  1.489544e+01    1.945705e+00
  1.491132e+01    1.986940e+00
  1.492720e+01    2.001075e+00
  1.494307e+01    2.016464e+00
  1.495895e+01    2.071357e+00
  1.497482e+01    2.100004e+00
  1.499070e+01    2.122875e+00
  1.500657e+01    2.145288e+00
  1.502245e+01    2.165424e+00
  1.503832e+01    2.252506e+00
  1.505420e+01    2.332836e+00
  1.507008e+01    2.481193e+00
  1.508595e+01    2.557211e+00
  1.510183e+01    2.770349e+00
  1.511770e+01    3.018182e+00
  1.513358e+01    3.258657e+00
  1.514945e+01    3.535684e+00
  1.516533e+01    3.948769e+00
  1.518120e+01    4.383821e+00
  1.519708e+01    4.761518e+00
  1.521296e+01    5.219513e+00
  1.522883e+01    5.650214e+00
  1.524471e+01    6.013396e+00
  1.526058e+01    6.259681e+00
  1.527646e+01    6.475081e+00
  1.529233e+01    6.527421e+00
  1.530821e+01    6.506276e+00
  1.532409e+01    6.244360e+00
  1.533996e+01    5.679398e+00
  1.535584e+01    5.034153e+00
  1.537171e+01    4.425338e+00
  1.538759e+01    3.850497e+00
  1.540346e+01    3.452340e+00
  1.541934e+01    3.156692e+00
  1.543521e+01    2.892020e+00
  1.545109e+01    2.675204e+00
  1.546697e+01    2.512646e+00
  1.548284e+01    2.441112e+00
  1.549872e+01    2.293735e+00
  1.551459e+01    2.216786e+00
  1.553047e+01    2.120573e+00
  1.554634e+01    2.090608e+00
  1.556222e+01    2.038864e+00
  1.557809e+01    1.976863e+00
  1.559397e+01    1.960751e+00
  1.560985e+01    1.906159e+00
  1.562572e+01    1.882059e+00
  1.564160e+01    1.853978e+00
  1.565747e+01    1.829848e+00
  1.567335e+01    1.797260e+00
  1.568922e+01    1.795877e+00
  1.570510e+01    1.812586e+00
  1.572097e+01    1.781174e+00
  1.573685e+01    1.735621e+00
  1.575273e+01    1.689369e+00
  1.576860e+01    1.695114e+00
  1.578448e+01    1.716106e+00
  1.580035e+01    1.665748e+00
  1.581623e+01    1.646944e+00
  1.583210e+01    1.704747e+00
  1.584798e+01    1.690532e+00
  1.586385e+01    1.679964e+00
  1.587973e+01    1.732830e+00
  1.589561e+01    1.683592e+00
  1.591148e+01    1.680530e+00
  1.592736e+01    1.652651e+00
  1.594323e+01    1.653529e+00
  1.595911e+01    1.692271e+00
  1.597498e+01    1.661672e+00
  1.599086e+01    1.626834e+00
  1.600673e+01    1.646456e+00
  1.602261e+01    1.637240e+00
  1.603849e+01    1.625347e+00
  1.605436e+01    1.605801e+00
  1.607024e+01    1.597396e+00
  1.608611e+01    1.601456e+00
  1.610199e+01    1.603835e+00
  1.611786e+01    1.604047e+00
  1.613374e+01    1.614024e+00
  1.614961e+01    1.634920e+00
  1.616549e+01    1.602250e+00
  1.618137e+01    1.591117e+00
  1.619724e+01    1.597148e+00
  1.621312e+01    1.596944e+00
  1.622899e+01    1.619572e+00
  1.624487e+01    1.602601e+00
  1.626074e+01    1.575099e+00
  1.627662e+01    1.588095e+00
  1.629250e+01    1.581180e+00
  1.630837e+01    1.606834e+00
  1.632425e+01    1.589851e+00
  1.634012e+01    1.567335e+00
  1.635600e+01    1.572254e+00
  1.637187e+01    1.575154e+00
  1.638775e+01    1.551723e+00
  1.640362e+01    1.567001e+00
  1.641950e+01    1.542512e+00
  1.643538e+01    1.536850e+00
  1.645125e+01    1.534810e+00
  1.646713e+01    1.540352e+00
  1.648300e+01    1.517886e+00
  1.649888e+01    1.553861e+00
  1.651475e+01    1.523331e+00
  1.653063e+01    1.501997e+00
  1.654650e+01    1.517352e+00
  1.656238e+01    1.510126e+00
  1.657826e+01    1.518229e+00
  1.659413e+01    1.508882e+00
  1.661001e+01    1.519453e+00
  1.662588e+01    1.518473e+00
  1.664176e+01    1.517425e+00
  1.665763e+01    1.533061e+00
  1.667351e+01    1.531634e+00
  1.668938e+01    1.522293e+00
  1.670526e+01    1.487146e+00
  1.672114e+01    1.487087e+00
  1.673701e+01    1.478035e+00
  1.675289e+01    1.486706e+00
  1.676876e+01    1.471384e+00
  1.678464e+01    1.475088e+00
  1.680051e+01    1.487865e+00
  1.681639e+01    1.497710e+00
  1.683226e+01    1.494854e+00
  1.684814e+01    1.500141e+00
  1.686402e+01    1.470415e+00
  1.687989e+01    1.446472e+00
  1.689577e+01    1.492790e+00
  1.691164e+01    1.493743e+00
  1.692752e+01    1.439365e+00
  1.694339e+01    1.454558e+00
  1.695927e+01    1.482831e+00
  1.697514e+01    1.459254e+00
  1.699102e+01    1.462592e+00
  1.700690e+01    1.461881e+00
  1.702277e+01    1.444762e+00
  1.703865e+01    1.453084e+00
  1.705452e+01    1.436694e+00
  1.707040e+01    1.468804e+00
  1.708627e+01    1.469439e+00
  1.710215e+01    1.450618e+00
  1.711802e+01    1.445192e+00
  1.713390e+01    1.432701e+00
  1.714978e+01    1.417737e+00
  1.716565e+01    1.425659e+00
  1.718153e+01    1.412796e+00
  1.719740e+01    1.413542e+00
  1.721328e+01    1.439627e+00
  1.722915e+01    1.426803e+00
  1.724503e+01    1.415372e+00
  1.726091e+01    1.417472e+00
  1.727678e+01    1.397124e+00
  1.729266e+01    1.374481e+00
  1.730853e+01    1.389025e+00
  1.732441e+01    1.408074e+00
  1.734028e+01    1.413534e+00
  1.735616e+01    1.395690e+00
  1.737203e+01    1.406891e+00
  1.738791e+01    1.396750e+00
  1.740379e+01    1.363976e+00
  1.741966e+01    1.377909e+00
  1.743554e+01    1.389438e+00
  1.745141e+01    1.384486e+00
  1.746729e+01    1.368921e+00
  1.748316e+01    1.374058e+00
  1.749904e+01    1.361704e+00
  1.751491e+01    1.358515e+00
  1.753079e+01    1.365371e+00
  1.754667e+01    1.362669e+00
  1.756254e+01    1.366750e+00
  1.757842e+01    1.377634e+00
  1.759429e+01    1.341506e+00
  1.761017e+01    1.344166e+00
  1.762604e+01    1.366202e+00
  1.764192e+01    1.335089e+00
  1.765779e+01    1.325937e+00
  1.767367e+01    1.337521e+00
  1.768955e+01    1.329633e+00
  1.770542e+01    1.344036e+00
  1.772130e+01    1.351809e+00
  1.773717e+01    1.313884e+00
  1.775305e+01    1.346154e+00
  1.776892e+01    1.360938e+00
  1.778480e+01    1.374893e+00
  1.780067e+01    1.356222e+00
  1.781655e+01    1.374715e+00
  1.783243e+01    1.370050e+00
  1.784830e+01    1.355189e+00
  1.786418e+01    1.364164e+00
  1.788005e+01    1.366097e+00
  1.789593e+01    1.328678e+00
  1.791180e+01    1.299829e+00
  1.792768e+01    1.326313e+00
  1.794355e+01    1.312222e+00
  1.795943e+01    1.295843e+00
  1.797531e+01    1.334977e+00
  1.799118e+01    1.324578e+00
  1.800706e+01    1.312056e+00
  1.802293e+01    1.297685e+00
  1.803881e+01    1.283091e+00
  1.805468e+01    1.304998e+00
  1.807056e+01    1.312132e+00
  1.808643e+01    1.328863e+00
  1.810231e+01    1.318962e+00
  1.811819e+01    1.304143e+00
  1.813406e+01    1.295052e+00
  1.814994e+01    1.292953e+00
  1.816581e+01    1.311405e+00
  1.818169e+01    1.287356e+00
  1.819756e+01    1.332495e+00
  1.821344e+01    1.335703e+00
  1.822932e+01    1.307191e+00
  1.824519e+01    1.283418e+00
  1.826107e+01    1.296667e+00
  1.827694e+01    1.307099e+00
  1.829282e+01    1.299359e+00
  1.830869e+01    1.311269e+00
  1.832457e+01    1.255662e+00
  1.834044e+01    1.292437e+00
  1.835632e+01    1.288071e+00
  1.837220e+01    1.264882e+00
  1.838807e+01    1.258421e+00
  1.840395e+01    1.262645e+00
  1.841982e+01    1.293854e+00
  1.843570e+01    1.270162e+00
  1.845157e+01    1.248635e+00
  1.846745e+01    1.269296e+00
  1.848332e+01    1.278088e+00
  1.849920e+01    1.240832e+00
  1.851508e+01    1.261793e+00
  1.853095e+01    1.260085e+00
  1.854683e+01    1.244324e+00
  1.856270e+01    1.250861e+00
  1.857858e+01    1.260158e+00
  1.859445e+01    1.268796e+00
  1.861033e+01    1.257960e+00
  1.862620e+01    1.250392e+00
  1.864208e+01    1.239451e+00
  1.865796e+01    1.256069e+00
  1.867383e+01    1.274118e+00
  1.868971e+01    1.248201e+00
  1.870558e+01    1.244806e+00
  1.872146e+01    1.275913e+00
  1.873733e+01    1.249565e+00
  1.875321e+01    1.259414e+00
  1.876908e+01    1.252370e+00
  1.878496e+01    1.248991e+00
  1.880084e+01    1.209423e+00
  1.881671e+01    1.232933e+00
  1.883259e+01    1.240116e+00
  1.884846e+01    1.236661e+00
  1.886434e+01    1.247452e+00
  1.888021e+01    1.233783e+00
  1.889609e+01    1.223001e+00
  1.891196e+01    1.250059e+00
  1.892784e+01    1.242479e+00
  1.894372e+01    1.226910e+00
  1.895959e+01    1.217553e+00
  1.897547e+01    1.185652e+00
  1.899134e+01    1.203171e+00
  1.900722e+01    1.220119e+00
  1.902309e+01    1.215884e+00
  1.903897e+01    1.234417e+00
  1.905484e+01    1.195179e+00
  1.907072e+01    1.198366e+00
  1.908660e+01    1.205302e+00
  1.910247e+01    1.203160e+00
  1.911835e+01    1.194841e+00
  1.913422e+01    1.217212e+00
  1.915010e+01    1.203354e+00
  1.916597e+01    1.195078e+00
  1.918185e+01    1.190874e+00
  1.919773e+01    1.219038e+00
  1.921360e+01    1.208960e+00
  1.922948e+01    1.212973e+00
  1.924535e+01    1.173007e+00
  1.926123e+01    1.181738e+00
  1.927710e+01    1.154626e+00
  1.929298e+01    1.171071e+00
  1.930885e+01    1.187988e+00
  1.932473e+01    1.183718e+00
  1.934061e+01    1.193901e+00
  1.935648e+01    1.214507e+00
  1.937236e+01    1.193386e+00
  1.938823e+01    1.201777e+00
  1.940411e+01    1.207488e+00
  1.941998e+01    1.187922e+00
  1.943586e+01    1.177627e+00
  1.945173e+01    1.169497e+00
  1.946761e+01    1.159620e+00
  1.948349e+01    1.171908e+00
  1.949936e+01    1.195074e+00
  1.951524e+01    1.173843e+00
  1.953111e+01    1.165790e+00
  1.954699e+01    1.179181e+00
  1.956286e+01    1.157012e+00
  1.957874e+01    1.165237e+00
  1.959461e+01    1.183591e+00
  1.961049e+01    1.159122e+00
  1.962637e+01    1.182712e+00
  1.964224e+01    1.175130e+00
  1.965812e+01    1.169841e+00
  1.967399e+01    1.139556e+00
  1.968987e+01    1.158067e+00
  1.970574e+01    1.159577e+00
  1.972162e+01    1.157302e+00
  1.973749e+01    1.171322e+00
  1.975337e+01    1.144842e+00
  1.976925e+01    1.139322e+00
  1.978512e+01    1.169900e+00
  1.980100e+01    1.159838e+00
  1.981687e+01    1.166589e+00
  1.983275e+01    1.136163e+00
  1.984862e+01    1.126260e+00
  1.986450e+01    1.170846e+00
  1.988037e+01    1.149900e+00
  1.989625e+01    1.147191e+00
  1.991213e+01    1.133890e+00
  1.992800e+01    1.131673e+00
  1.994388e+01    1.144949e+00
  1.995975e+01    1.112795e+00
  1.997563e+01    1.116184e+00
  1.999150e+01    1.140308e+00
  2.000738e+01    1.121162e+00
  2.002325e+01    1.123993e+00
  2.003913e+01    1.122712e+00
  2.005501e+01    1.139216e+00
  2.007088e+01    1.146449e+00
  2.008676e+01    1.120032e+00
  2.010263e+01    1.109736e+00
  2.011851e+01    1.120391e+00
  2.013438e+01    1.120590e+00
  2.015026e+01    1.126548e+00
  2.016614e+01    1.136213e+00
  2.018201e+01    1.124792e+00
  2.019789e+01    1.118843e+00
  2.021376e+01    1.109615e+00
  2.022964e+01    1.110664e+00
  2.024551e+01    1.133504e+00
  2.026139e+01    1.098831e+00
  2.027726e+01    1.098160e+00
  2.029314e+01    1.122150e+00
  2.030902e+01    1.109310e+00
  2.032489e+01    1.121116e+00
  2.034077e+01    1.130146e+00
  2.035664e+01    1.121392e+00
  2.037252e+01    1.108017e+00
  2.038839e+01    1.103501e+00
  2.040427e+01    1.108500e+00
  2.042014e+01    1.108666e+00
  2.043602e+01    1.114635e+00
  2.045190e+01    1.126323e+00
  2.046777e+01    1.135842e+00
  2.048365e+01    1.129384e+00
  2.049952e+01    1.109227e+00
  2.051540e+01    1.097128e+00
  2.053127e+01    1.074718e+00
  2.054715e+01    1.077570e+00
  2.056302e+01    1.113062e+00
  2.057890e+01    1.119684e+00
  2.059478e+01    1.106311e+00
  2.061065e+01    1.096853e+00
  2.062653e+01    1.077393e+00
  2.064240e+01    1.108454e+00
  2.065828e+01    1.096763e+00
  2.067415e+01    1.094257e+00
  2.069003e+01    1.117081e+00
  2.070590e+01    1.103306e+00
  2.072178e+01    1.085948e+00
  2.073766e+01    1.084898e+00
  2.075353e+01    1.092721e+00
  2.076941e+01    1.113670e+00
  2.078528e+01    1.093144e+00
  2.080116e+01    1.085217e+00
  2.081703e+01    1.087763e+00
  2.083291e+01    1.109552e+00
  2.084878e+01    1.100864e+00
  2.086466e+01    1.110217e+00
  2.088054e+01    1.115313e+00
  2.089641e+01    1.083122e+00
  2.091229e+01    1.116121e+00
  2.092816e+01    1.136732e+00
  2.094404e+01    1.113518e+00
  2.095991e+01    1.102958e+00
  2.097579e+01    1.099932e+00
  2.099166e+01    1.112166e+00
  2.100754e+01    1.100472e+00
  2.102342e+01    1.114478e+00
  2.103929e+01    1.108906e+00
  2.105517e+01    1.099854e+00
  2.107104e+01    1.107655e+00
  2.108692e+01    1.089731e+00
  2.110279e+01    1.084818e+00
  2.111867e+01    1.098658e+00
  2.113455e+01    1.107697e+00
  2.115042e+01    1.087214e+00
  2.116630e+01    1.089298e+00
  2.118217e+01    1.105232e+00
  2.119805e+01    1.114276e+00
  2.121392e+01    1.100008e+00
  2.122980e+01    1.107283e+00
  2.124567e+01    1.127795e+00
  2.126155e+01    1.126722e+00
  2.127743e+01    1.135809e+00
  2.129330e+01    1.143279e+00
  2.130918e+01    1.130399e+00
  2.132505e+01    1.131515e+00
  2.134093e+01    1.154114e+00
  2.135680e+01    1.153799e+00
  2.137268e+01    1.154378e+00
  2.138855e+01    1.145569e+00
  2.140443e+01    1.166463e+00
  2.142031e+01    1.206541e+00
  2.143618e+01    1.231167e+00
  2.145206e+01    1.224447e+00
  2.146793e+01    1.241916e+00
  2.148381e+01    1.267010e+00
  2.149968e+01    1.287064e+00
  2.151556e+01    1.314347e+00
  2.153143e+01    1.338591e+00
  2.154731e+01    1.356142e+00
  2.156319e+01    1.397395e+00
  2.157906e+01    1.450042e+00
  2.159494e+01    1.477722e+00
  2.161081e+01    1.554980e+00
  2.162669e+01    1.643947e+00
  2.164256e+01    1.741996e+00
  2.165844e+01    1.847878e+00
  2.167431e+01    1.982024e+00
  2.169019e+01    2.081665e+00
  2.170607e+01    2.267857e+00
  2.172194e+01    2.507777e+00
  2.173782e+01    2.823451e+00
  2.175369e+01    3.205101e+00
  2.176957e+01    3.661246e+00
  2.178544e+01    4.201936e+00
  2.180132e+01    4.829689e+00
  2.181719e+01    5.559093e+00
  2.183307e+01    6.301597e+00
  2.184895e+01    7.119682e+00
  2.186482e+01    7.936643e+00
  2.188070e+01    8.941690e+00
  2.189657e+01    9.820610e+00
  2.191245e+01    1.050217e+01
  2.192832e+01    1.091598e+01
  2.194420e+01    1.096102e+01
  2.196007e+01    1.051361e+01
  2.197595e+01    9.645997e+00
  2.199183e+01    8.479188e+00
  2.200770e+01    7.300042e+00
  2.202358e+01    6.128449e+00
  2.203945e+01    5.217577e+00
  2.205533e+01    4.419457e+00
  2.207120e+01    3.749324e+00
  2.208708e+01    3.285262e+00
  2.210296e+01    2.926867e+00
  2.211883e+01    2.600624e+00
  2.213471e+01    2.327090e+00
  2.215058e+01    2.135364e+00
  2.216646e+01    1.988849e+00
  2.218233e+01    1.846728e+00
  2.219821e+01    1.735800e+00
  2.221408e+01    1.632445e+00
  2.222996e+01    1.557098e+00
  2.224584e+01    1.493575e+00
  2.226171e+01    1.419601e+00
  2.227759e+01    1.386066e+00
  2.229346e+01    1.358115e+00
  2.230934e+01    1.294402e+00
  2.232521e+01    1.248603e+00
  2.234109e+01    1.235308e+00
  2.235696e+01    1.228626e+00
  2.237284e+01    1.181378e+00
  2.238872e+01    1.154357e+00
  2.240459e+01    1.152665e+00
  2.242047e+01    1.135465e+00
  2.243634e+01    1.103188e+00
  2.245222e+01    1.078087e+00
  2.246809e+01    1.093422e+00
  2.248397e+01    1.091572e+00
  2.249984e+01    1.084904e+00
  2.251572e+01    1.080648e+00
  2.253160e+01    1.066429e+00
  2.254747e+01    1.051006e+00
  2.256335e+01    1.053587e+00
  2.257922e+01    1.052750e+00
  2.259510e+01    1.026745e+00
  2.261097e+01    1.000305e+00
  2.262685e+01    9.932833e-01
  2.264272e+01    1.001640e+00
  2.265860e+01    1.015792e+00
  2.267448e+01    9.931993e-01
  2.269035e+01    9.826856e-01
  2.270623e+01    9.777738e-01
  2.272210e+01    9.630453e-01
  2.273798e+01    9.512275e-01
  2.275385e+01    9.760652e-01
  2.276973e+01    9.787307e-01
  2.278560e+01    9.634033e-01
  2.280148e+01    9.630169e-01
  2.281736e+01    9.739845e-01
  2.283323e+01    9.505774e-01
  2.284911e+01    9.500651e-01
  2.286498e+01    9.493243e-01
  2.288086e+01    9.519964e-01
  2.289673e+01    9.535319e-01
  2.291261e+01    9.289216e-01
  2.292848e+01    9.457274e-01
  2.294436e+01    9.381328e-01
  2.296024e+01    9.264970e-01
  2.297611e+01    9.131790e-01
  2.299199e+01    9.128680e-01
  2.300786e+01    9.421910e-01
  2.302374e+01    9.384428e-01
  2.303961e+01    9.120789e-01
  2.305549e+01    9.157770e-01
  2.307137e+01    9.008188e-01
  2.308724e+01    9.101067e-01
  2.310312e+01    9.106894e-01
  2.311899e+01    9.141741e-01
  2.313487e+01    9.056405e-01
  2.315074e+01    9.071358e-01
  2.316662e+01    9.142624e-01
  2.318249e+01    8.856647e-01
  2.319837e+01    8.978221e-01
  2.321425e+01    8.927566e-01
  2.323012e+01    8.824994e-01
  2.324600e+01    9.000228e-01
  2.326187e+01    8.859072e-01
  2.327775e+01    8.878207e-01
  2.329362e+01    8.866087e-01
  2.330950e+01    9.010851e-01
  2.332537e+01    8.717945e-01
  2.334125e+01    8.688591e-01
  2.335713e+01    8.762496e-01
  2.337300e+01    8.826600e-01
  2.338888e+01    8.719408e-01
  2.340475e+01    8.726895e-01
  2.342063e+01    8.742082e-01
  2.343650e+01    8.871371e-01
  2.345238e+01    8.747700e-01
  2.346825e+01    8.534021e-01
  2.348413e+01    8.316795e-01
  2.350001e+01    8.523643e-01
  2.351588e+01    8.599938e-01
  2.353176e+01    8.620055e-01
  2.354763e+01    8.748119e-01
  2.356351e+01    8.543091e-01
  2.357938e+01    8.510093e-01
  2.359526e+01    8.485649e-01
  2.361113e+01    8.466402e-01
  2.362701e+01    8.548186e-01
  2.364289e+01    8.585991e-01
  2.365876e+01    8.523380e-01
  2.367464e+01    8.430039e-01
  2.369051e+01    8.403915e-01
  2.370639e+01    8.413060e-01
  2.372226e+01    8.556368e-01
  2.373814e+01    8.405203e-01
  2.375401e+01    8.348182e-01
  2.376989e+01    8.111432e-01
  2.378577e+01    8.148634e-01
  2.380164e+01    8.193037e-01
  2.381752e+01    8.173401e-01
  2.383339e+01    8.162274e-01
  2.384927e+01    8.161993e-01
  2.386514e+01    8.214572e-01
  2.388102e+01    8.218118e-01
  2.389689e+01    8.068300e-01
  2.391277e+01    8.100072e-01
  2.392865e+01    8.098752e-01
  2.394452e+01    8.228659e-01
  2.396040e+01    7.976874e-01
  2.397627e+01    7.973315e-01
  2.399215e+01    7.998173e-01
  2.400802e+01    8.105822e-01
  2.402390e+01    8.056737e-01
  2.403978e+01    8.091441e-01
  2.405565e+01    8.078906e-01
  2.407153e+01    8.105050e-01
  2.408740e+01    8.040304e-01
  2.410328e+01    7.960079e-01
  2.411915e+01    7.954960e-01
  2.413503e+01    7.936758e-01
  2.415090e+01    7.847736e-01
  2.416678e+01    7.794567e-01
  2.418266e+01    8.034489e-01
  2.419853e+01    8.138763e-01
  2.421441e+01    8.091365e-01
  2.423028e+01    7.812895e-01
  2.424616e+01    7.903252e-01
  2.426203e+01    8.143482e-01
  2.427791e+01    8.072802e-01
  2.429378e+01    8.197256e-01
  2.430966e+01    8.262650e-01
  2.432554e+01    8.052666e-01
  2.434141e+01    7.981445e-01
  2.435729e+01    8.010235e-01
  2.437316e+01    8.037098e-01
  2.438904e+01    8.039578e-01
  2.440491e+01    8.054657e-01
  2.442079e+01    8.030635e-01
  2.443666e+01    7.919225e-01
  2.445254e+01    7.833578e-01
  2.446842e+01    8.080230e-01
  2.448429e+01    7.994633e-01
  2.450017e+01    8.013411e-01
  2.451604e+01    8.067482e-01
  2.453192e+01    8.079798e-01
  2.454779e+01    8.020658e-01
  2.456367e+01    8.015716e-01
  2.457954e+01    8.184980e-01
  2.459542e+01    8.110247e-01
  2.461130e+01    8.080544e-01
  2.462717e+01    7.988936e-01
  2.464305e+01    8.141815e-01
  2.465892e+01    8.132249e-01
  2.467480e+01    7.997360e-01
  2.469067e+01    8.020602e-01
  2.470655e+01    8.022399e-01
  2.472242e+01    8.008848e-01
  2.473830e+01    7.988496e-01
  2.475418e+01    7.999156e-01
  2.477005e+01    8.058006e-01
  2.478593e+01    8.068751e-01
  2.480180e+01    7.876738e-01
  2.481768e+01    8.034585e-01
  2.483355e+01    8.031366e-01
  2.484943e+01    7.960007e-01
  2.486530e+01    7.891316e-01
  2.488118e+01    7.916210e-01
  2.489706e+01    7.970498e-01
  2.491293e+01    8.194329e-01
  2.492881e+01    8.256767e-01
  2.494468e+01    8.165676e-01
  2.496056e+01    8.049967e-01
  2.497643e+01    8.152317e-01
  2.499231e+01    8.076429e-01
  2.500819e+01    8.071595e-01
  2.502406e+01    8.137990e-01
  2.503994e+01    8.133415e-01
  2.505581e+01    7.989649e-01
  2.507169e+01    8.234012e-01
  2.508756e+01    8.354899e-01
  2.510344e+01    8.075320e-01
  2.511931e+01    8.287212e-01
  2.513519e+01    8.288234e-01
  2.515107e+01    8.160191e-01
  2.516694e+01    8.547390e-01
  2.518282e+01    8.486686e-01
  2.519869e+01    8.681584e-01
  2.521457e+01    8.657367e-01
  2.523044e+01    8.445378e-01
  2.524632e+01    8.620870e-01
  2.526219e+01    8.769999e-01
  2.527807e+01    8.968313e-01
  2.529395e+01    8.936974e-01
  2.530982e+01    8.810501e-01
  2.532570e+01    8.867506e-01
  2.534157e+01    9.090068e-01
  2.535745e+01    8.897711e-01
  2.537332e+01    9.136942e-01
  2.538920e+01    9.105614e-01
  2.540507e+01    9.064174e-01
  2.542095e+01    9.128658e-01
  2.543683e+01    9.287107e-01
  2.545270e+01    9.534008e-01
  2.546858e+01    9.559898e-01
  2.548445e+01    9.910566e-01
  2.550033e+01    9.961876e-01
  2.551620e+01    9.829438e-01
  2.553208e+01    9.863636e-01
  2.554795e+01    9.829603e-01
  2.556383e+01    1.030819e+00
  2.557971e+01    1.061886e+00
  2.559558e+01    1.081990e+00
  2.561146e+01    1.105893e+00
  2.562733e+01    1.125929e+00
  2.564321e+01    1.176124e+00
  2.565908e+01    1.231620e+00
  2.567496e+01    1.255223e+00
  2.569083e+01    1.292929e+00
  2.570671e+01    1.404628e+00
  2.572259e+01    1.494306e+00
  2.573846e+01    1.583285e+00
  2.575434e+01    1.705859e+00
  2.577021e+01    1.832206e+00
  2.578609e+01    1.972441e+00
  2.580196e+01    2.192774e+00
  2.581784e+01    2.457752e+00
  2.583371e+01    2.749570e+00
  2.584959e+01    3.150493e+00
  2.586547e+01    3.625034e+00
  2.588134e+01    4.195062e+00
  2.589722e+01    4.802505e+00
  2.591309e+01    5.452069e+00
  2.592897e+01    6.234440e+00
  2.594484e+01    7.041154e+00
  2.596072e+01    7.833580e+00
  2.597660e+01    8.485016e+00
  2.599247e+01    8.944381e+00
  2.600835e+01    9.134612e+00
  2.602422e+01    8.958628e+00
  2.604010e+01    8.455118e+00
  2.605597e+01    7.627132e+00
  2.607185e+01    6.707767e+00
  2.608772e+01    5.748987e+00
  2.610360e+01    4.915218e+00
  2.611948e+01    4.198359e+00
  2.613535e+01    3.602428e+00
  2.615123e+01    3.165096e+00
  2.616710e+01    2.771298e+00
  2.618298e+01    2.444567e+00
  2.619885e+01    2.178579e+00
  2.621473e+01    2.014982e+00
  2.623060e+01    1.847842e+00
  2.624648e+01    1.720094e+00
  2.626236e+01    1.593552e+00
  2.627823e+01    1.506966e+00
  2.629411e+01    1.445677e+00
  2.630998e+01    1.359640e+00
  2.632586e+01    1.258822e+00
  2.634173e+01    1.224732e+00
  2.635761e+01    1.187697e+00
  2.637348e+01    1.130003e+00
  2.638936e+01    1.112014e+00
  2.640524e+01    1.104001e+00
  2.642111e+01    1.088898e+00
  2.643699e+01    1.038417e+00
  2.645286e+01    1.040288e+00
  2.646874e+01    1.041727e+00
  2.648461e+01    1.043303e+00
  2.650049e+01    9.910051e-01
  2.651636e+01    9.907628e-01
  2.653224e+01    9.906770e-01
  2.654812e+01    9.799343e-01
  2.656399e+01    9.981753e-01
  2.657987e+01    9.791553e-01
  2.659574e+01    9.735528e-01
  2.661162e+01    9.504947e-01
  2.662749e+01    9.352466e-01
  2.664337e+01    9.229757e-01
  2.665924e+01    9.276621e-01
  2.667512e+01    9.279811e-01
  2.669100e+01    9.343873e-01
  2.670687e+01    9.339209e-01
  2.672275e+01    9.334800e-01
  2.673862e+01    9.163494e-01
  2.675450e+01    9.272401e-01
  2.677037e+01    9.238283e-01
  2.678625e+01    9.190200e-01
  2.680212e+01    9.202267e-01
  2.681800e+01    8.989030e-01
  2.683388e+01    9.173541e-01
  2.684975e+01    9.405171e-01
  2.686563e+01    9.551080e-01
  2.688150e+01    9.435341e-01
  2.689738e+01    9.691553e-01
  2.691325e+01    9.412009e-01
  2.692913e+01    9.398406e-01
  2.694501e+01    9.664130e-01
  2.696088e+01    9.537867e-01
  2.697676e+01    9.802878e-01
  2.699263e+01    9.961817e-01
  2.700851e+01    9.933555e-01
  2.702438e+01    1.043227e+00
  2.704026e+01    1.080564e+00
  2.705613e+01    1.110047e+00
  2.707201e+01    1.143824e+00
  2.708789e+01    1.184450e+00
  2.710376e+01    1.242298e+00
  2.711964e+01    1.336786e+00
  2.713551e+01    1.439569e+00
  2.715139e+01    1.576751e+00
  2.716726e+01    1.738704e+00
  2.718314e+01    1.882414e+00
  2.719901e+01    2.047530e+00
  2.721489e+01    2.232623e+00
  2.723077e+01    2.401392e+00
  2.724664e+01    2.507187e+00
  2.726252e+01    2.582984e+00
  2.727839e+01    2.622553e+00
  2.729427e+01    2.515278e+00
  2.731014e+01    2.366427e+00
  2.732602e+01    2.179775e+00
  2.734189e+01    1.954715e+00
  2.735777e+01    1.770546e+00
  2.737365e+01    1.644859e+00
  2.738952e+01    1.495871e+00
  2.740540e+01    1.377306e+00
  2.742127e+01    1.286824e+00
  2.743715e+01    1.228776e+00
  2.745302e+01    1.172618e+00
  2.746890e+01    1.089602e+00
  2.748477e+01    1.065280e+00
  2.750065e+01    1.037916e+00
  2.751653e+01    9.872864e-01
  2.753240e+01    9.679806e-01
  2.754828e+01    9.617752e-01
  2.756415e+01    9.383341e-01
  2.758003e+01    9.134062e-01
  2.759590e+01    9.017683e-01
  2.761178e+01    9.000642e-01
  2.762765e+01    8.997897e-01
  2.764353e+01    8.868620e-01
  2.765941e+01    8.858981e-01
  2.767528e+01    8.676664e-01
  2.769116e+01    8.616671e-01
  2.770703e+01    8.936096e-01
  2.772291e+01    8.898485e-01
  2.773878e+01    8.494576e-01
  2.775466e+01    8.336416e-01
  2.777054e+01    8.263116e-01
  2.778641e+01    8.421716e-01
  2.780229e+01    8.401515e-01
  2.781816e+01    8.562725e-01
  2.783404e+01    8.431217e-01
  2.784991e+01    8.285046e-01
  2.786579e+01    8.105310e-01
  2.788166e+01    8.265123e-01
  2.789754e+01    8.363625e-01
  2.791342e+01    8.287063e-01
  2.792929e+01    8.301852e-01
  2.794517e+01    8.295145e-01
  2.796104e+01    8.159124e-01
  2.797692e+01    7.798277e-01
  2.799279e+01    7.925575e-01
  2.800867e+01    8.129120e-01
  2.802454e+01    8.133007e-01
  2.804042e+01    8.138965e-01
  2.805630e+01    8.127387e-01
  2.807217e+01    8.331136e-01
  2.808805e+01    8.027586e-01
  2.810392e+01    7.868485e-01
  2.811980e+01    7.882252e-01
  2.813567e+01    8.017400e-01
  2.815155e+01    8.024355e-01
  2.816742e+01    7.910906e-01
  2.818330e+01    7.896295e-01
  2.819918e+01    7.867159e-01
  2.821505e+01    7.738476e-01
  2.823093e+01    7.959321e-01
  2.824680e+01    8.107117e-01
  2.826268e+01    7.928692e-01
  2.827855e+01    7.932268e-01
  2.829443e+01    7.859554e-01
  2.831030e+01    7.864292e-01
  2.832618e+01    7.915161e-01
  2.834206e+01    7.878265e-01
  2.835793e+01    7.899662e-01
  2.837381e+01    7.770995e-01
  2.838968e+01    7.746505e-01
  2.840556e+01    7.861480e-01
  2.842143e+01    7.753689e-01
  2.843731e+01    7.868032e-01
  2.845318e+01    8.030807e-01
  2.846906e+01    7.898145e-01
  2.848494e+01    7.684252e-01
  2.850081e+01    7.619480e-01
  2.851669e+01    7.568285e-01
  2.853256e+01    7.649114e-01
  2.854844e+01    7.887186e-01
  2.856431e+01    7.825418e-01
  2.858019e+01    7.652768e-01
  2.859606e+01    7.686625e-01
  2.861194e+01    7.360241e-01
  2.862782e+01    7.432696e-01
  2.864369e+01    7.602701e-01
  2.865957e+01    7.602299e-01
  2.867544e+01    7.506998e-01
  2.869132e+01    7.488961e-01
  2.870719e+01    7.678089e-01
  2.872307e+01    7.552150e-01
  2.873895e+01    7.636113e-01
  2.875482e+01    7.659853e-01
  2.877070e+01    7.413697e-01
  2.878657e+01    7.602199e-01
  2.880245e+01    7.746434e-01
  2.881832e+01    7.658548e-01
  2.883420e+01    7.675577e-01
  2.885007e+01    7.624790e-01
  2.886595e+01    7.526844e-01
  2.888183e+01    7.433430e-01
  2.889770e+01    7.488017e-01
  2.891358e+01    7.530159e-01
  2.892945e+01    7.555526e-01
  2.894533e+01    7.437309e-01
  2.896120e+01    7.428339e-01
  2.897708e+01    7.546411e-01
  2.899295e+01    7.569259e-01
  2.900883e+01    7.509136e-01
  2.902471e+01    7.534924e-01
  2.904058e+01    7.481894e-01
  2.905646e+01    7.259715e-01
  2.907233e+01    7.462940e-01
  2.908821e+01    7.374197e-01
  2.910408e+01    7.484952e-01
  2.911996e+01    7.591781e-01
  2.913583e+01    7.469066e-01
  2.915171e+01    7.537451e-01
  2.916759e+01    7.397386e-01
  2.918346e+01    7.466947e-01
  2.919934e+01    7.660876e-01
  2.921521e+01    7.208461e-01
  2.923109e+01    7.333480e-01
  2.924696e+01    7.517982e-01
  2.926284e+01    7.532874e-01
  2.927871e+01    7.515460e-01
  2.929459e+01    7.596685e-01
  2.931047e+01    7.658029e-01
  2.932634e+01    7.587876e-01
  2.934222e+01    7.639760e-01
  2.935809e+01    7.548977e-01
  2.937397e+01    7.415649e-01
  2.938984e+01    7.197781e-01
  2.940572e+01    7.223518e-01
  2.942159e+01    7.313405e-01
  2.943747e+01    7.387998e-01
  2.945335e+01    7.344969e-01
  2.946922e+01    7.302493e-01
  2.948510e+01    7.312398e-01
  2.950097e+01    7.294978e-01
  2.951685e+01    7.232695e-01
  2.953272e+01    7.323754e-01
  2.954860e+01    7.156124e-01
  2.956447e+01    7.362126e-01
  2.958035e+01    7.134976e-01
  2.959623e+01    7.030267e-01
  2.961210e+01    7.153223e-01
  2.962798e+01    7.197275e-01
  2.964385e+01    7.322037e-01
  2.965973e+01    7.314291e-01
  2.967560e+01    7.413004e-01
  2.969148e+01    7.450019e-01
  2.970736e+01    7.435607e-01
  2.972323e+01    7.477252e-01
  2.973911e+01    7.366583e-01
  2.975498e+01    7.368051e-01
  2.977086e+01    7.477309e-01
  2.978673e+01    7.411870e-01
  2.980261e+01    7.385439e-01
  2.981848e+01    7.406690e-01
  2.983436e+01    7.183108e-01
  2.985024e+01    7.289480e-01
  2.986611e+01    7.259173e-01
  2.988199e+01    7.374574e-01
  2.989786e+01    7.208403e-01
  2.991374e+01    7.205611e-01
  2.992961e+01    7.242151e-01
  2.994549e+01    7.296749e-01
  2.996136e+01    7.339296e-01
  2.997724e+01    7.374412e-01
  2.999312e+01    7.528529e-01
  3.000899e+01    7.560608e-01
  3.002487e+01    7.364630e-01
  3.004074e+01    7.347022e-01
  3.005662e+01    7.473652e-01
  3.007249e+01    7.495430e-01
  3.008837e+01    7.424157e-01
  3.010424e+01    7.209921e-01
  3.012012e+01    7.170444e-01
  3.013600e+01    7.368596e-01
  3.015187e+01    7.338731e-01
  3.016775e+01    7.103143e-01
  3.018362e+01    7.225344e-01
  3.019950e+01    7.382392e-01
  3.021537e+01    7.316439e-01
  3.023125e+01    7.376461e-01
  3.024712e+01    7.476025e-01
  3.026300e+01    7.191713e-01
  3.027888e+01    7.008473e-01
  3.029475e+01    7.378627e-01
  3.031063e+01    7.450658e-01
  3.032650e+01    7.381324e-01
  3.034238e+01    7.629554e-01
  3.035825e+01    7.372426e-01
  3.037413e+01    7.240957e-01
  3.039000e+01    7.317421e-01
  3.040588e+01    7.242741e-01
  3.042176e+01    7.163547e-01
  3.043763e+01    7.164654e-01
  3.045351e+01    7.263961e-01
  3.046938e+01    7.212956e-01
  3.048526e+01    7.071264e-01
  3.050113e+01    7.074273e-01
  3.051701e+01    7.196712e-01
  3.053288e+01    7.479398e-01
  3.054876e+01    7.366824e-01
  3.056464e+01    7.281989e-01
  3.058051e+01    7.202345e-01
  3.059639e+01    7.225958e-01
  3.061226e+01    7.423344e-01
  3.062814e+01    7.310392e-01
  3.064401e+01    7.320507e-01
  3.065989e+01    7.238018e-01
  3.067577e+01    7.296690e-01
  3.069164e+01    7.439446e-01
  3.070752e+01    7.330037e-01
  3.072339e+01    7.241865e-01
  3.073927e+01    7.172062e-01
  3.075514e+01    7.058470e-01
  3.077102e+01    7.197997e-01
  3.078689e+01    7.206717e-01
  3.080277e+01    7.334700e-01
  3.081865e+01    7.268655e-01
  3.083452e+01    7.162377e-01
  3.085040e+01    7.165841e-01
  3.086627e+01    7.259317e-01
  3.088215e+01    7.261646e-01
  3.089802e+01    7.305458e-01
  3.091390e+01    7.183715e-01
  3.092977e+01    7.141404e-01
  3.094565e+01    7.103602e-01
  3.096153e+01    7.170801e-01
  3.097740e+01    7.488713e-01
  3.099328e+01    7.228168e-01
  3.100915e+01    7.385699e-01
  3.102503e+01    7.316982e-01
  3.104090e+01    7.098471e-01
  3.105678e+01    7.224310e-01
  3.107265e+01    7.440157e-01
  3.108853e+01    7.435911e-01
  3.110441e+01    7.271498e-01
  3.112028e+01    7.399070e-01
  3.113616e+01    7.379777e-01
  3.115203e+01    7.383819e-01
  3.116791e+01    7.223021e-01
  3.118378e+01    7.313297e-01
  3.119966e+01    7.151366e-01
  3.121553e+01    7.372219e-01
  3.123141e+01    7.415385e-01
  3.124729e+01    7.338950e-01
  3.126316e+01    7.565902e-01
  3.127904e+01    7.419558e-01
  3.129491e+01    7.198642e-01
  3.131079e+01    7.252623e-01
  3.132666e+01    7.393384e-01
  3.134254e+01    7.530250e-01
  3.135841e+01    7.563775e-01
  3.137429e+01    7.703978e-01
  3.139017e+01    7.500810e-01
  3.140604e+01    7.314962e-01
  3.142192e+01    7.321744e-01
  3.143779e+01    7.586943e-01
  3.145367e+01    7.793753e-01
  3.146954e+01    7.808113e-01
  3.148542e+01    7.803915e-01
  3.150129e+01    8.033702e-01
  3.151717e+01    8.134169e-01
  3.153305e+01    7.931342e-01
  3.154892e+01    7.895321e-01
  3.156480e+01    7.772297e-01
  3.158067e+01    7.850370e-01
  3.159655e+01    8.203571e-01
  3.161242e+01    8.276599e-01
  3.162830e+01    8.373080e-01
  3.164418e+01    8.269408e-01
  3.166005e+01    8.554152e-01
  3.167593e+01    8.668956e-01
  3.169180e+01    8.763191e-01
  3.170768e+01    8.930900e-01
  3.172355e+01    9.148539e-01
  3.173943e+01    9.813501e-01
  3.175530e+01    1.031544e+00
  3.177118e+01    1.067910e+00
  3.178706e+01    1.136925e+00
  3.180293e+01    1.184295e+00
  3.181881e+01    1.275246e+00
  3.183468e+01    1.374799e+00
  3.185056e+01    1.500044e+00
  3.186643e+01    1.676828e+00
  3.188231e+01    1.861554e+00
  3.189818e+01    2.046991e+00
  3.191406e+01    2.219551e+00
  3.192994e+01    2.393171e+00
  3.194581e+01    2.526070e+00
  3.196169e+01    2.599046e+00
  3.197756e+01    2.593249e+00
  3.199344e+01    2.506867e+00
  3.200931e+01    2.355786e+00
  3.202519e+01    2.170517e+00
  3.204106e+01    1.969319e+00
  3.205694e+01    1.775577e+00
  3.207282e+01    1.614342e+00
  3.208869e+01    1.474430e+00
  3.210457e+01    1.316317e+00
  3.212044e+01    1.205152e+00
  3.213632e+01    1.124540e+00
  3.215219e+01    1.069113e+00
  3.216807e+01    1.007106e+00
  3.218394e+01    9.754104e-01
  3.219982e+01    9.391319e-01
  3.221570e+01    9.119802e-01
  3.223157e+01    8.687721e-01
  3.224745e+01    8.682674e-01
  3.226332e+01    8.748174e-01
  3.227920e+01    8.551074e-01
  3.229507e+01    8.372563e-01
  3.231095e+01    8.445619e-01
  3.232682e+01    8.070776e-01
  3.234270e+01    7.928704e-01
  3.235858e+01    7.865958e-01
  3.237445e+01    7.805482e-01
  3.239033e+01    7.738204e-01
  3.240620e+01    7.903491e-01
  3.242208e+01    7.767775e-01
  3.243795e+01    7.608582e-01
  3.245383e+01    7.463797e-01
  3.246970e+01    7.497522e-01
  3.248558e+01    7.585966e-01
  3.250146e+01    7.540379e-01
  3.251733e+01    7.499298e-01
  3.253321e+01    7.632855e-01
  3.254908e+01    7.595922e-01
