# == pyFAI calibration ==
# Distance Sample to Detector: 0.3999999939076516 m
# PONI: 9.750e-02, 1.135e-01 m
# Rotations: -0.000175 0.000000 -0.000000 rad
# 
# == Fit2d calibration ==
# Distance Sample-beamCenter: 400.000 mm
# Center: x=1514.000, y=1300.000 pix
# Tilt: 0.010 deg  TiltPlanRot: 0.010 deg
# 
# Detector Detector	 Spline= None	 PixelSize= 7.500e-05, 7.500e-05 m
#    Detector has a mask: False 
#    Detector has a dark current: False 
#    detector has a flat field: False 
# 
# Wavelength: 6.888e-11 m
# Mask applied: user provided
# Dark current applied: False
# Flat field applied: False
# Polarization factor: 0.99
# Normalization factor: 1.0
# --> /home/myspot/data/2024_07_Rosario/Ru-CGO-ex/2024-07-27_002_Ru-CGO-ex_Activtation_ramp_000002_data_000133.dat
#       q_nm^-1             I 
  2.003187e-02    2.226973e-02
  3.590745e-02    1.634755e-01
  5.178302e-02    1.161195e-01
  6.765859e-02    4.303336e-02
  8.353417e-02    1.639995e-02
  9.940974e-02    3.703360e-02
  1.152853e-01    6.547923e-02
  1.311609e-01    3.211923e-02
  1.470365e-01    0.000000e+00
  1.629120e-01    0.000000e+00
  1.787876e-01    0.000000e+00
  1.946632e-01    2.105697e-02
  2.105388e-01    9.712745e-02
  2.264143e-01    4.717397e-02
  2.422899e-01    3.266953e-02
  2.581655e-01    5.164663e-02
  2.740411e-01    3.911938e-02
  2.899166e-01    2.378277e-02
  3.057922e-01    5.747886e-03
  3.216678e-01    1.630874e-02
  3.375433e-01    3.647384e-02
  3.534189e-01    4.363256e-02
  3.692945e-01    4.038307e-02
  3.851701e-01    3.984596e-02
  4.010456e-01    2.799378e-02
  4.169212e-01    3.631094e-02
  4.327968e-01    7.379235e-02
  4.486724e-01    8.747415e-02
  4.645479e-01    4.272827e-02
  4.804235e-01    1.157729e-02
  4.962991e-01    2.783553e-02
  5.121747e-01    2.068589e-02
  5.280502e-01    1.468371e-02
  5.439258e-01    2.375513e-02
  5.598014e-01    7.862455e-02
  5.756770e-01    6.044523e-02
  5.915525e-01    6.502255e-02
  6.074281e-01    4.630724e-02
  6.233037e-01    2.149663e-02
  6.391793e-01    3.488153e-02
  6.550548e-01    5.475996e-02
  6.709304e-01    4.899248e-02
  6.868060e-01    4.764091e-02
  7.026815e-01    5.364038e-02
  7.185571e-01    5.581335e-02
  7.344327e-01    4.979347e-02
  7.503083e-01    3.010921e-02
  7.661838e-01    6.351087e-02
  7.820594e-01    1.006406e-01
  7.979350e-01    1.500929e-01
  8.138106e-01    2.407874e-01
  8.296861e-01    2.922064e-01
  8.455617e-01    3.349985e-01
  8.614373e-01    4.028838e-01
  8.773129e-01    5.020052e-01
  8.931884e-01    5.391611e-01
  9.090640e-01    5.266990e-01
  9.249396e-01    6.929076e-01
  9.408152e-01    7.623762e-01
  9.566907e-01    7.637490e-01
  9.725663e-01    9.467989e-01
  9.884419e-01    9.784378e-01
  1.004317e+00    1.027036e+00
  1.020193e+00    1.169472e+00
  1.036069e+00    1.207717e+00
  1.051944e+00    1.249564e+00
  1.067820e+00    1.320349e+00
  1.083695e+00    1.397360e+00
  1.099571e+00    1.292128e+00
  1.115446e+00    1.480067e+00
  1.131322e+00    1.516623e+00
  1.147198e+00    1.439805e+00
  1.163073e+00    1.534310e+00
  1.178949e+00    1.531902e+00
  1.194824e+00    1.529129e+00
  1.210700e+00    1.781316e+00
  1.226575e+00    1.984906e+00
  1.242451e+00    2.221952e+00
  1.258327e+00    2.334545e+00
  1.274202e+00    2.247461e+00
  1.290078e+00    2.311637e+00
  1.305953e+00    2.336373e+00
  1.321829e+00    2.484066e+00
  1.337705e+00    2.597404e+00
  1.353580e+00    2.682601e+00
  1.369456e+00    2.566346e+00
  1.385331e+00    2.610570e+00
  1.401207e+00    2.694439e+00
  1.417082e+00    2.596037e+00
  1.432958e+00    2.626597e+00
  1.448834e+00    2.670946e+00
  1.464709e+00    2.691655e+00
  1.480585e+00    2.723362e+00
  1.496460e+00    2.593548e+00
  1.512336e+00    2.775057e+00
  1.528211e+00    3.077204e+00
  1.544087e+00    3.090357e+00
  1.559963e+00    3.045911e+00
  1.575838e+00    3.040255e+00
  1.591714e+00    2.880996e+00
  1.607589e+00    2.893401e+00
  1.623465e+00    2.798808e+00
  1.639340e+00    2.728851e+00
  1.655216e+00    2.889254e+00
  1.671092e+00    2.997586e+00
  1.686967e+00    2.752575e+00
  1.702843e+00    2.665162e+00
  1.718718e+00    2.734509e+00
  1.734594e+00    2.819330e+00
  1.750469e+00    2.743449e+00
  1.766345e+00    2.684103e+00
  1.782221e+00    2.764081e+00
  1.798096e+00    2.823787e+00
  1.813972e+00    2.762267e+00
  1.829847e+00    2.677859e+00
  1.845723e+00    2.555612e+00
  1.861598e+00    2.572980e+00
  1.877474e+00    2.612602e+00
  1.893350e+00    2.682338e+00
  1.909225e+00    2.748366e+00
  1.925101e+00    2.768821e+00
  1.940976e+00    2.877823e+00
  1.956852e+00    2.717095e+00
  1.972727e+00    2.703160e+00
  1.988603e+00    2.832173e+00
  2.004479e+00    2.698301e+00
  2.020354e+00    2.686904e+00
  2.036230e+00    2.755049e+00
  2.052105e+00    2.741578e+00
  2.067981e+00    2.763866e+00
  2.083856e+00    2.723018e+00
  2.099732e+00    2.728608e+00
  2.115608e+00    2.665404e+00
  2.131483e+00    2.731198e+00
  2.147359e+00    2.773284e+00
  2.163234e+00    2.731061e+00
  2.179110e+00    2.679795e+00
  2.194985e+00    2.754719e+00
  2.210861e+00    2.696759e+00
  2.226737e+00    2.617588e+00
  2.242612e+00    2.625596e+00
  2.258488e+00    2.643414e+00
  2.274363e+00    2.789965e+00
  2.290239e+00    2.852402e+00
  2.306115e+00    2.792329e+00
  2.321990e+00    2.658957e+00
  2.337866e+00    2.669393e+00
  2.353741e+00    2.711453e+00
  2.369617e+00    2.628078e+00
  2.385492e+00    2.627362e+00
  2.401368e+00    2.669726e+00
  2.417244e+00    2.736068e+00
  2.433119e+00    2.700933e+00
  2.448995e+00    2.771307e+00
  2.464870e+00    2.750153e+00
  2.480746e+00    2.725975e+00
  2.496621e+00    2.738357e+00
  2.512497e+00    2.692325e+00
  2.528373e+00    2.710236e+00
  2.544248e+00    2.815023e+00
  2.560124e+00    2.722321e+00
  2.575999e+00    2.728228e+00
  2.591875e+00    2.741924e+00
  2.607750e+00    2.736734e+00
  2.623626e+00    2.808080e+00
  2.639502e+00    2.747864e+00
  2.655377e+00    2.783760e+00
  2.671253e+00    2.746250e+00
  2.687128e+00    2.740758e+00
  2.703004e+00    2.743484e+00
  2.718879e+00    2.759584e+00
  2.734755e+00    2.724022e+00
  2.750631e+00    2.758033e+00
  2.766506e+00    2.758808e+00
  2.782382e+00    2.751382e+00
  2.798257e+00    2.814580e+00
  2.814133e+00    2.776173e+00
  2.830008e+00    2.797071e+00
  2.845884e+00    2.718812e+00
  2.861760e+00    2.750291e+00
  2.877635e+00    2.902721e+00
  2.893511e+00    2.825990e+00
  2.909386e+00    2.870279e+00
  2.925262e+00    2.903777e+00
  2.941137e+00    2.809626e+00
  2.957013e+00    2.779540e+00
  2.972889e+00    2.821623e+00
  2.988764e+00    2.865219e+00
  3.004640e+00    2.887935e+00
  3.020515e+00    2.863964e+00
  3.036391e+00    2.908492e+00
  3.052266e+00    2.897031e+00
  3.068142e+00    2.883604e+00
  3.084018e+00    2.887662e+00
  3.099893e+00    2.779026e+00
  3.115769e+00    2.819026e+00
  3.131644e+00    2.881815e+00
  3.147520e+00    2.864666e+00
  3.163395e+00    2.896786e+00
  3.179271e+00    2.913577e+00
  3.195147e+00    2.945671e+00
  3.211022e+00    2.856547e+00
  3.226898e+00    2.886633e+00
  3.242773e+00    2.938298e+00
  3.258649e+00    2.916457e+00
  3.274525e+00    2.992691e+00
  3.290400e+00    2.951526e+00
  3.306276e+00    2.931898e+00
  3.322151e+00    3.015330e+00
  3.338027e+00    2.996083e+00
  3.353902e+00    2.991837e+00
  3.369778e+00    2.912421e+00
  3.385654e+00    2.872235e+00
  3.401529e+00    2.917677e+00
  3.417405e+00    2.929545e+00
  3.433280e+00    2.870131e+00
  3.449156e+00    2.828088e+00
  3.465031e+00    2.918532e+00
  3.480907e+00    2.936760e+00
  3.496783e+00    2.896701e+00
  3.512658e+00    2.943093e+00
  3.528534e+00    2.873112e+00
  3.544409e+00    2.905890e+00
  3.560285e+00    2.971088e+00
  3.576160e+00    2.970576e+00
  3.592036e+00    2.956522e+00
  3.607912e+00    2.958409e+00
  3.623787e+00    2.941330e+00
  3.639663e+00    2.993203e+00
  3.655538e+00    2.974660e+00
  3.671414e+00    2.931146e+00
  3.687289e+00    2.923259e+00
  3.703165e+00    2.956788e+00
  3.719041e+00    2.976524e+00
  3.734916e+00    2.933846e+00
  3.750792e+00    2.910423e+00
  3.766667e+00    2.950056e+00
  3.782543e+00    2.995872e+00
  3.798418e+00    2.963325e+00
  3.814294e+00    2.880748e+00
  3.830170e+00    2.908063e+00
  3.846045e+00    2.927608e+00
  3.861921e+00    2.961506e+00
  3.877796e+00    2.945846e+00
  3.893672e+00    2.988513e+00
  3.909547e+00    2.928232e+00
  3.925423e+00    2.959673e+00
  3.941299e+00    2.925689e+00
  3.957174e+00    2.861545e+00
  3.973050e+00    2.913308e+00
  3.988925e+00    3.035840e+00
  4.004801e+00    3.043597e+00
  4.020676e+00    3.009149e+00
  4.036552e+00    3.010163e+00
  4.052428e+00    2.959912e+00
  4.068303e+00    2.954590e+00
  4.084179e+00    2.984019e+00
  4.100054e+00    2.989356e+00
  4.115930e+00    2.968407e+00
  4.131806e+00    3.018346e+00
  4.147681e+00    3.081181e+00
  4.163557e+00    3.058185e+00
  4.179432e+00    3.019382e+00
  4.195308e+00    2.993635e+00
  4.211183e+00    2.983837e+00
  4.227059e+00    3.021944e+00
  4.242935e+00    3.088738e+00
  4.258810e+00    3.024407e+00
  4.274686e+00    2.960583e+00
  4.290561e+00    3.043652e+00
  4.306437e+00    3.027524e+00
  4.322312e+00    3.082427e+00
  4.338188e+00    3.057238e+00
  4.354064e+00    3.071522e+00
  4.369939e+00    3.017905e+00
  4.385815e+00    2.976704e+00
  4.401690e+00    2.994890e+00
  4.417566e+00    3.031616e+00
  4.433441e+00    3.038343e+00
  4.449317e+00    3.012169e+00
  4.465193e+00    3.013186e+00
  4.481068e+00    3.071943e+00
  4.496944e+00    3.073531e+00
  4.512819e+00    3.099890e+00
  4.528695e+00    3.005971e+00
  4.544570e+00    3.030837e+00
  4.560446e+00    3.102940e+00
  4.576322e+00    3.087124e+00
  4.592197e+00    3.059120e+00
  4.608073e+00    3.062273e+00
  4.623948e+00    3.049339e+00
  4.639824e+00    3.069358e+00
  4.655699e+00    3.097898e+00
  4.671575e+00    3.059996e+00
  4.687451e+00    3.034323e+00
  4.703326e+00    3.085931e+00
  4.719202e+00    3.049041e+00
  4.735077e+00    3.216009e+00
  4.750953e+00    3.161800e+00
  4.766828e+00    3.057650e+00
  4.782704e+00    3.064439e+00
  4.798580e+00    3.037669e+00
  4.814455e+00    3.048240e+00
  4.830331e+00    3.120236e+00
  4.846206e+00    3.147708e+00
  4.862082e+00    3.046111e+00
  4.877957e+00    3.062913e+00
  4.893833e+00    3.106047e+00
  4.909709e+00    3.085334e+00
  4.925584e+00    3.102211e+00
  4.941460e+00    3.059649e+00
  4.957335e+00    3.029037e+00
  4.973211e+00    3.044802e+00
  4.989086e+00    3.048008e+00
  5.004962e+00    2.991963e+00
  5.020838e+00    3.002780e+00
  5.036713e+00    3.051505e+00
  5.052589e+00    3.088623e+00
  5.068464e+00    3.106325e+00
  5.084340e+00    3.106372e+00
  5.100216e+00    3.126581e+00
  5.116091e+00    3.018646e+00
  5.131967e+00    3.055924e+00
  5.147842e+00    3.185786e+00
  5.163718e+00    3.320195e+00
  5.179593e+00    3.167757e+00
  5.195469e+00    3.133465e+00
  5.211345e+00    3.080044e+00
  5.227220e+00    3.011151e+00
  5.243096e+00    3.081341e+00
  5.258971e+00    3.060143e+00
  5.274847e+00    3.096120e+00
  5.290722e+00    3.062771e+00
  5.306598e+00    3.111547e+00
  5.322474e+00    3.074258e+00
  5.338349e+00    3.188371e+00
  5.354225e+00    3.133296e+00
  5.370100e+00    3.092172e+00
  5.385976e+00    3.071102e+00
  5.401851e+00    3.034024e+00
  5.417727e+00    3.085363e+00
  5.433603e+00    3.131249e+00
  5.449478e+00    3.084496e+00
  5.465354e+00    3.040788e+00
  5.481229e+00    3.067295e+00
  5.497105e+00    3.074085e+00
  5.512980e+00    2.965019e+00
  5.528856e+00    2.987948e+00
  5.544732e+00    3.104579e+00
  5.560607e+00    3.066049e+00
  5.576483e+00    3.040249e+00
  5.592358e+00    3.048800e+00
  5.608234e+00    3.057376e+00
  5.624109e+00    3.095856e+00
  5.639985e+00    3.112965e+00
  5.655861e+00    3.102539e+00
  5.671736e+00    3.106554e+00
  5.687612e+00    3.017459e+00
  5.703487e+00    3.024241e+00
  5.719363e+00    3.077327e+00
  5.735238e+00    3.008354e+00
  5.751114e+00    2.972655e+00
  5.766990e+00    3.027372e+00
  5.782865e+00    2.966807e+00
  5.798741e+00    2.979017e+00
  5.814616e+00    3.019709e+00
  5.830492e+00    3.046653e+00
  5.846367e+00    2.946611e+00
  5.862243e+00    2.984965e+00
  5.878119e+00    2.972272e+00
  5.893994e+00    2.945937e+00
  5.909870e+00    2.976794e+00
  5.925745e+00    3.020864e+00
  5.941621e+00    3.108775e+00
  5.957497e+00    2.996850e+00
  5.973372e+00    2.975310e+00
  5.989248e+00    3.005291e+00
  6.005123e+00    3.040859e+00
  6.020999e+00    3.004167e+00
  6.036874e+00    2.975620e+00
  6.052750e+00    3.039092e+00
  6.068626e+00    3.050938e+00
  6.084501e+00    3.026310e+00
  6.100377e+00    3.094132e+00
  6.116252e+00    3.112686e+00
  6.132128e+00    3.042498e+00
  6.148003e+00    3.029118e+00
  6.163879e+00    3.110453e+00
  6.179755e+00    3.142049e+00
  6.195630e+00    3.142532e+00
  6.211506e+00    3.076685e+00
  6.227381e+00    3.093675e+00
  6.243257e+00    3.032030e+00
  6.259132e+00    3.093901e+00
  6.275008e+00    3.073225e+00
  6.290884e+00    2.994186e+00
  6.306759e+00    3.025184e+00
  6.322635e+00    2.984922e+00
  6.338510e+00    2.945091e+00
  6.354386e+00    2.940726e+00
  6.370261e+00    2.976675e+00
  6.386137e+00    2.972514e+00
  6.402013e+00    3.011005e+00
  6.417888e+00    2.979556e+00
  6.433764e+00    2.938368e+00
  6.449639e+00    2.968224e+00
  6.465515e+00    3.005357e+00
  6.481390e+00    3.039847e+00
  6.497266e+00    2.980726e+00
  6.513142e+00    2.958838e+00
  6.529017e+00    2.980017e+00
  6.544893e+00    2.989508e+00
  6.560768e+00    2.970399e+00
  6.576644e+00    3.020867e+00
  6.592519e+00    3.029340e+00
  6.608395e+00    3.007239e+00
  6.624271e+00    2.997527e+00
  6.640146e+00    2.943215e+00
  6.656022e+00    2.994090e+00
  6.671897e+00    2.919678e+00
  6.687773e+00    2.970409e+00
  6.703648e+00    2.979253e+00
  6.719524e+00    2.965791e+00
  6.735400e+00    2.957987e+00
  6.751275e+00    2.958473e+00
  6.767151e+00    2.973322e+00
  6.783026e+00    2.975964e+00
  6.798902e+00    2.973670e+00
  6.814777e+00    2.998668e+00
  6.830653e+00    3.002571e+00
  6.846529e+00    3.063680e+00
  6.862404e+00    3.070709e+00
  6.878280e+00    3.030803e+00
  6.894155e+00    3.002513e+00
  6.910031e+00    3.027232e+00
  6.925907e+00    3.049128e+00
  6.941782e+00    2.970261e+00
  6.957658e+00    2.979859e+00
  6.973533e+00    2.981484e+00
  6.989409e+00    2.974855e+00
  7.005284e+00    2.981394e+00
  7.021160e+00    2.938472e+00
  7.037036e+00    2.955684e+00
  7.052911e+00    3.044883e+00
  7.068787e+00    3.010987e+00
  7.084662e+00    3.027688e+00
  7.100538e+00    3.027430e+00
  7.116413e+00    3.003410e+00
  7.132289e+00    3.032658e+00
  7.148165e+00    3.016508e+00
  7.164040e+00    3.043250e+00
  7.179916e+00    2.978517e+00
  7.195791e+00    2.954590e+00
  7.211667e+00    2.938554e+00
  7.227542e+00    3.025461e+00
  7.243418e+00    3.000040e+00
  7.259294e+00    2.945616e+00
  7.275169e+00    2.938624e+00
  7.291045e+00    2.991240e+00
  7.306920e+00    2.939314e+00
  7.322796e+00    2.931048e+00
  7.338671e+00    2.966617e+00
  7.354547e+00    3.060655e+00
  7.370423e+00    3.010125e+00
  7.386298e+00    2.954839e+00
  7.402174e+00    2.956191e+00
  7.418049e+00    2.968315e+00
  7.433925e+00    2.983220e+00
  7.449800e+00    2.933997e+00
  7.465676e+00    2.943461e+00
  7.481552e+00    2.931579e+00
  7.497427e+00    2.929155e+00
  7.513303e+00    2.998261e+00
  7.529178e+00    2.954064e+00
  7.545054e+00    2.943640e+00
  7.560929e+00    3.016409e+00
  7.576805e+00    2.992954e+00
  7.592681e+00    2.942741e+00
  7.608556e+00    2.940223e+00
  7.624432e+00    2.926892e+00
  7.640307e+00    2.988179e+00
  7.656183e+00    2.952382e+00
  7.672058e+00    2.936207e+00
  7.687934e+00    2.952841e+00
  7.703810e+00    2.933878e+00
  7.719685e+00    2.924862e+00
  7.735561e+00    2.895570e+00
  7.751436e+00    2.885870e+00
  7.767312e+00    2.885509e+00
  7.783187e+00    2.962544e+00
  7.799063e+00    2.971779e+00
  7.814939e+00    2.899279e+00
  7.830814e+00    2.896946e+00
  7.846690e+00    2.893775e+00
  7.862565e+00    2.915647e+00
  7.878441e+00    2.896199e+00
  7.894317e+00    2.964255e+00
  7.910192e+00    2.942384e+00
  7.926068e+00    2.946397e+00
  7.941943e+00    2.946379e+00
  7.957819e+00    2.929210e+00
  7.973694e+00    2.900910e+00
  7.989570e+00    2.883783e+00
  8.005446e+00    2.897645e+00
  8.021321e+00    2.868344e+00
  8.037197e+00    2.885695e+00
  8.053072e+00    2.901636e+00
  8.068948e+00    2.881333e+00
  8.084823e+00    2.849524e+00
  8.100699e+00    2.861529e+00
  8.116575e+00    2.908559e+00
  8.132450e+00    2.918271e+00
  8.148326e+00    2.843894e+00
  8.164201e+00    2.877347e+00
  8.180077e+00    2.973289e+00
  8.195952e+00    2.963978e+00
  8.211828e+00    2.923004e+00
  8.227704e+00    2.908975e+00
  8.243579e+00    2.961550e+00
  8.259455e+00    2.894865e+00
  8.275330e+00    2.868364e+00
  8.291206e+00    2.884530e+00
  8.307081e+00    2.904826e+00
  8.322957e+00    2.877373e+00
  8.338833e+00    2.941494e+00
  8.354708e+00    2.916666e+00
  8.370584e+00    2.923113e+00
  8.386459e+00    2.880844e+00
  8.402335e+00    2.899223e+00
  8.418210e+00    2.900705e+00
  8.434086e+00    2.876966e+00
  8.449962e+00    2.822726e+00
  8.465837e+00    2.856488e+00
  8.481713e+00    2.827679e+00
  8.497588e+00    2.833397e+00
  8.513464e+00    2.858821e+00
  8.529339e+00    2.868876e+00
  8.545215e+00    2.871126e+00
  8.561091e+00    2.921375e+00
  8.576966e+00    2.878753e+00
  8.592842e+00    2.848724e+00
  8.608717e+00    2.860768e+00
  8.624593e+00    2.887439e+00
  8.640468e+00    2.839154e+00
  8.656344e+00    2.845658e+00
  8.672220e+00    2.795726e+00
  8.688095e+00    2.859195e+00
  8.703971e+00    2.848543e+00
  8.719846e+00    2.873733e+00
  8.735722e+00    2.844422e+00
  8.751598e+00    2.804370e+00
  8.767473e+00    2.791356e+00
  8.783349e+00    2.808312e+00
  8.799224e+00    2.810961e+00
  8.815100e+00    2.807641e+00
  8.830975e+00    2.792875e+00
  8.846851e+00    2.760870e+00
  8.862727e+00    2.785535e+00
  8.878602e+00    2.792318e+00
  8.894478e+00    2.801115e+00
  8.910353e+00    2.831633e+00
  8.926229e+00    2.886166e+00
  8.942104e+00    2.810261e+00
  8.957980e+00    2.827267e+00
  8.973856e+00    2.816326e+00
  8.989731e+00    2.815417e+00
  9.005607e+00    2.746765e+00
  9.021482e+00    2.733947e+00
  9.037358e+00    2.756806e+00
  9.053233e+00    2.768985e+00
  9.069109e+00    2.804478e+00
  9.084985e+00    2.795695e+00
  9.100860e+00    2.791204e+00
  9.116736e+00    2.769565e+00
  9.132611e+00    2.750664e+00
  9.148487e+00    2.791533e+00
  9.164362e+00    2.785958e+00
  9.180238e+00    2.825512e+00
  9.196114e+00    2.784934e+00
  9.211989e+00    2.746154e+00
  9.227865e+00    2.779729e+00
  9.243740e+00    2.751559e+00
  9.259616e+00    2.745731e+00
  9.275491e+00    2.728021e+00
  9.291367e+00    2.748598e+00
  9.307243e+00    2.760692e+00
  9.323118e+00    2.720031e+00
  9.338994e+00    2.734365e+00
  9.354869e+00    2.724797e+00
  9.370745e+00    2.761610e+00
  9.386620e+00    2.765966e+00
  9.402496e+00    2.765389e+00
  9.418372e+00    2.697934e+00
  9.434247e+00    2.736567e+00
  9.450123e+00    2.790494e+00
  9.465998e+00    2.782269e+00
  9.481874e+00    2.747510e+00
  9.497749e+00    2.807786e+00
  9.513625e+00    2.785169e+00
  9.529501e+00    2.696586e+00
  9.545376e+00    2.734434e+00
  9.561252e+00    2.736988e+00
  9.577127e+00    2.710783e+00
  9.593003e+00    2.705000e+00
  9.608878e+00    2.675343e+00
  9.624754e+00    2.661405e+00
  9.640630e+00    2.666262e+00
  9.656505e+00    2.674709e+00
  9.672381e+00    2.741693e+00
  9.688256e+00    2.708814e+00
  9.704132e+00    2.682849e+00
  9.720008e+00    2.678100e+00
  9.735883e+00    2.662515e+00
  9.751759e+00    2.750003e+00
  9.767634e+00    2.715305e+00
  9.783510e+00    2.639253e+00
  9.799385e+00    2.635818e+00
  9.815261e+00    2.669965e+00
  9.831137e+00    2.711530e+00
  9.847012e+00    2.685646e+00
  9.862888e+00    2.634740e+00
  9.878763e+00    2.654354e+00
  9.894639e+00    2.656518e+00
  9.910514e+00    2.687891e+00
  9.926390e+00    2.686562e+00
  9.942266e+00    2.638681e+00
  9.958141e+00    2.612280e+00
  9.974017e+00    2.709202e+00
  9.989892e+00    2.658059e+00
  1.000577e+01    2.674411e+00
  1.002164e+01    2.661523e+00
  1.003752e+01    2.621749e+00
  1.005339e+01    2.602113e+00
  1.006927e+01    2.614751e+00
  1.008515e+01    2.623514e+00
  1.010102e+01    2.695570e+00
  1.011690e+01    2.669742e+00
  1.013277e+01    2.589272e+00
  1.014865e+01    2.611765e+00
  1.016452e+01    2.620111e+00
  1.018040e+01    2.636684e+00
  1.019627e+01    2.666085e+00
  1.021215e+01    2.631772e+00
  1.022803e+01    2.582026e+00
  1.024390e+01    2.588072e+00
  1.025978e+01    2.571152e+00
  1.027565e+01    2.607301e+00
  1.029153e+01    2.554104e+00
  1.030740e+01    2.586903e+00
  1.032328e+01    2.632747e+00
  1.033915e+01    2.587686e+00
  1.035503e+01    2.566547e+00
  1.037091e+01    2.604738e+00
  1.038678e+01    2.626666e+00
  1.040266e+01    2.625963e+00
  1.041853e+01    2.625332e+00
  1.043441e+01    2.596051e+00
  1.045028e+01    2.604697e+00
  1.046616e+01    2.585291e+00
  1.048204e+01    2.546717e+00
  1.049791e+01    2.556682e+00
  1.051379e+01    2.547966e+00
  1.052966e+01    2.520799e+00
  1.054554e+01    2.557663e+00
  1.056141e+01    2.582355e+00
  1.057729e+01    2.588565e+00
  1.059316e+01    2.541796e+00
  1.060904e+01    2.572156e+00
  1.062492e+01    2.566118e+00
  1.064079e+01    2.548014e+00
  1.065667e+01    2.542598e+00
  1.067254e+01    2.552205e+00
  1.068842e+01    2.518330e+00
  1.070429e+01    2.541823e+00
  1.072017e+01    2.537208e+00
  1.073604e+01    2.518276e+00
  1.075192e+01    2.511230e+00
  1.076780e+01    2.484359e+00
  1.078367e+01    2.496059e+00
  1.079955e+01    2.526775e+00
  1.081542e+01    2.462061e+00
  1.083130e+01    2.491051e+00
  1.084717e+01    2.482166e+00
  1.086305e+01    2.471185e+00
  1.087892e+01    2.481101e+00
  1.089480e+01    2.454937e+00
  1.091068e+01    2.436540e+00
  1.092655e+01    2.444880e+00
  1.094243e+01    2.471888e+00
  1.095830e+01    2.509579e+00
  1.097418e+01    2.503082e+00
  1.099005e+01    2.475426e+00
  1.100593e+01    2.500764e+00
  1.102180e+01    2.483737e+00
  1.103768e+01    2.489642e+00
  1.105356e+01    2.484025e+00
  1.106943e+01    2.435828e+00
  1.108531e+01    2.378162e+00
  1.110118e+01    2.443555e+00
  1.111706e+01    2.446730e+00
  1.113293e+01    2.429227e+00
  1.114881e+01    2.443092e+00
  1.116468e+01    2.456686e+00
  1.118056e+01    2.443044e+00
  1.119644e+01    2.426812e+00
  1.121231e+01    2.420716e+00
  1.122819e+01    2.441499e+00
  1.124406e+01    2.416490e+00
  1.125994e+01    2.371272e+00
  1.127581e+01    2.380072e+00
  1.129169e+01    2.341071e+00
  1.130756e+01    2.376228e+00
  1.132344e+01    2.421417e+00
  1.133932e+01    2.398642e+00
  1.135519e+01    2.387659e+00
  1.137107e+01    2.438128e+00
  1.138694e+01    2.415551e+00
  1.140282e+01    2.408459e+00
  1.141869e+01    2.426029e+00
  1.143457e+01    2.416607e+00
  1.145045e+01    2.416285e+00
  1.146632e+01    2.417619e+00
  1.148220e+01    2.345617e+00
  1.149807e+01    2.349745e+00
  1.151395e+01    2.329759e+00
  1.152982e+01    2.353707e+00
  1.154570e+01    2.316799e+00
  1.156157e+01    2.347015e+00
  1.157745e+01    2.449155e+00
  1.159333e+01    2.422445e+00
  1.160920e+01    2.404383e+00
  1.162508e+01    2.366823e+00
  1.164095e+01    2.344463e+00
  1.165683e+01    2.380208e+00
  1.167270e+01    2.405714e+00
  1.168858e+01    2.422586e+00
  1.170445e+01    2.338639e+00
  1.172033e+01    2.294813e+00
  1.173621e+01    2.327190e+00
  1.175208e+01    2.306224e+00
  1.176796e+01    2.283301e+00
  1.178383e+01    2.305792e+00
  1.179971e+01    2.301469e+00
  1.181558e+01    2.330440e+00
  1.183146e+01    2.344390e+00
  1.184733e+01    2.376400e+00
  1.186321e+01    2.324450e+00
  1.187909e+01    2.353451e+00
  1.189496e+01    2.316672e+00
  1.191084e+01    2.315879e+00
  1.192671e+01    2.321657e+00
  1.194259e+01    2.298923e+00
  1.195846e+01    2.323696e+00
  1.197434e+01    2.300485e+00
  1.199021e+01    2.313966e+00
  1.200609e+01    2.295426e+00
  1.202197e+01    2.286465e+00
  1.203784e+01    2.311933e+00
  1.205372e+01    2.281577e+00
  1.206959e+01    2.282776e+00
  1.208547e+01    2.305895e+00
  1.210134e+01    2.321460e+00
  1.211722e+01    2.262885e+00
  1.213309e+01    2.277441e+00
  1.214897e+01    2.318418e+00
  1.216485e+01    2.287963e+00
  1.218072e+01    2.336388e+00
  1.219660e+01    2.329258e+00
  1.221247e+01    2.320611e+00
  1.222835e+01    2.266766e+00
  1.224422e+01    2.307013e+00
  1.226010e+01    2.310527e+00
  1.227597e+01    2.315206e+00
  1.229185e+01    2.298322e+00
  1.230773e+01    2.305105e+00
  1.232360e+01    2.288667e+00
  1.233948e+01    2.286208e+00
  1.235535e+01    2.276278e+00
  1.237123e+01    2.245200e+00
  1.238710e+01    2.277884e+00
  1.240298e+01    2.308076e+00
  1.241886e+01    2.319560e+00
  1.243473e+01    2.314734e+00
  1.245061e+01    2.319445e+00
  1.246648e+01    2.339478e+00
  1.248236e+01    2.348116e+00
  1.249823e+01    2.307907e+00
  1.251411e+01    2.364385e+00
  1.252998e+01    2.342069e+00
  1.254586e+01    2.296354e+00
  1.256174e+01    2.331549e+00
  1.257761e+01    2.397599e+00
  1.259349e+01    2.405641e+00
  1.260936e+01    2.343456e+00
  1.262524e+01    2.367994e+00
  1.264111e+01    2.376998e+00
  1.265699e+01    2.376912e+00
  1.267286e+01    2.409057e+00
  1.268874e+01    2.463664e+00
  1.270462e+01    2.510948e+00
  1.272049e+01    2.506104e+00
  1.273637e+01    2.498375e+00
  1.275224e+01    2.529154e+00
  1.276812e+01    2.604475e+00
  1.278399e+01    2.595128e+00
  1.279987e+01    2.647385e+00
  1.281574e+01    2.714515e+00
  1.283162e+01    2.715616e+00
  1.284750e+01    2.805794e+00
  1.286337e+01    2.889054e+00
  1.287925e+01    2.985888e+00
  1.289512e+01    3.167028e+00
  1.291100e+01    3.363826e+00
  1.292687e+01    3.537668e+00
  1.294275e+01    3.763326e+00
  1.295862e+01    4.060980e+00
  1.297450e+01    4.411608e+00
  1.299038e+01    4.887571e+00
  1.300625e+01    5.562739e+00
  1.302213e+01    6.311289e+00
  1.303800e+01    7.219558e+00
  1.305388e+01    8.352427e+00
  1.306975e+01    9.737295e+00
  1.308563e+01    1.105634e+01
  1.310150e+01    1.231828e+01
  1.311738e+01    1.351367e+01
  1.313326e+01    1.468304e+01
  1.314913e+01    1.578631e+01
  1.316501e+01    1.661079e+01
  1.318088e+01    1.699483e+01
  1.319676e+01    1.659220e+01
  1.321263e+01    1.529883e+01
  1.322851e+01    1.353595e+01
  1.324438e+01    1.149343e+01
  1.326026e+01    9.641268e+00
  1.327614e+01    8.047683e+00
  1.329201e+01    6.934321e+00
  1.330789e+01    6.063159e+00
  1.332376e+01    5.336149e+00
  1.333964e+01    4.743220e+00
  1.335551e+01    4.318150e+00
  1.337139e+01    3.955893e+00
  1.338727e+01    3.671204e+00
  1.340314e+01    3.471228e+00
  1.341902e+01    3.252854e+00
  1.343489e+01    3.077024e+00
  1.345077e+01    2.922317e+00
  1.346664e+01    2.845431e+00
  1.348252e+01    2.757409e+00
  1.349839e+01    2.711911e+00
  1.351427e+01    2.657943e+00
  1.353015e+01    2.603699e+00
  1.354602e+01    2.479170e+00
  1.356190e+01    2.435191e+00
  1.357777e+01    2.456006e+00
  1.359365e+01    2.397866e+00
  1.360952e+01    2.341095e+00
  1.362540e+01    2.337502e+00
  1.364127e+01    2.308784e+00
  1.365715e+01    2.261365e+00
  1.367303e+01    2.214440e+00
  1.368890e+01    2.245166e+00
  1.370478e+01    2.256603e+00
  1.372065e+01    2.198621e+00
  1.373653e+01    2.180737e+00
  1.375240e+01    2.183499e+00
  1.376828e+01    2.169765e+00
  1.378415e+01    2.140181e+00
  1.380003e+01    2.194203e+00
  1.381591e+01    2.151208e+00
  1.383178e+01    2.137629e+00
  1.384766e+01    2.133359e+00
  1.386353e+01    2.148027e+00
  1.387941e+01    2.103329e+00
  1.389528e+01    2.061543e+00
  1.391116e+01    2.034917e+00
  1.392703e+01    2.063802e+00
  1.394291e+01    2.063341e+00
  1.395879e+01    2.074264e+00
  1.397466e+01    2.057990e+00
  1.399054e+01    2.035206e+00
  1.400641e+01    2.012087e+00
  1.402229e+01    2.001453e+00
  1.403816e+01    2.022717e+00
  1.405404e+01    2.034428e+00
  1.406991e+01    2.044190e+00
  1.408579e+01    2.037864e+00
  1.410167e+01    1.993690e+00
  1.411754e+01    1.949769e+00
  1.413342e+01    1.963727e+00
  1.414929e+01    1.997832e+00
  1.416517e+01    1.985422e+00
  1.418104e+01    1.996509e+00
  1.419692e+01    1.986244e+00
  1.421279e+01    1.967209e+00
  1.422867e+01    1.962774e+00
  1.424455e+01    1.963309e+00
  1.426042e+01    1.962171e+00
  1.427630e+01    1.964175e+00
  1.429217e+01    1.972267e+00
  1.430805e+01    1.955401e+00
  1.432392e+01    1.930729e+00
  1.433980e+01    1.937082e+00
  1.435568e+01    1.910889e+00
  1.437155e+01    1.917294e+00
  1.438743e+01    1.937200e+00
  1.440330e+01    1.978593e+00
  1.441918e+01    1.936978e+00
  1.443505e+01    1.938514e+00
  1.445093e+01    1.947257e+00
  1.446680e+01    1.963141e+00
  1.448268e+01    1.933669e+00
  1.449856e+01    1.895711e+00
  1.451443e+01    1.885097e+00
  1.453031e+01    1.887807e+00
  1.454618e+01    1.915215e+00
  1.456206e+01    1.924059e+00
  1.457793e+01    1.940653e+00
  1.459381e+01    1.913786e+00
  1.460968e+01    1.896358e+00
  1.462556e+01    1.908473e+00
  1.464144e+01    1.918498e+00
  1.465731e+01    1.928883e+00
  1.467319e+01    1.897038e+00
  1.468906e+01    1.883592e+00
  1.470494e+01    1.890428e+00
  1.472081e+01    1.874692e+00
  1.473669e+01    1.891728e+00
  1.475256e+01    1.880075e+00
  1.476844e+01    1.851895e+00
  1.478432e+01    1.905140e+00
  1.480019e+01    1.912951e+00
  1.481607e+01    1.886881e+00
  1.483194e+01    1.944074e+00
  1.484782e+01    1.927555e+00
  1.486369e+01    1.936181e+00
  1.487957e+01    1.918389e+00
  1.489544e+01    1.934495e+00
  1.491132e+01    1.933334e+00
  1.492720e+01    1.953273e+00
  1.494307e+01    1.970293e+00
  1.495895e+01    2.003354e+00
  1.497482e+01    2.038182e+00
  1.499070e+01    2.087397e+00
  1.500657e+01    2.142806e+00
  1.502245e+01    2.237767e+00
  1.503832e+01    2.350378e+00
  1.505420e+01    2.460514e+00
  1.507008e+01    2.556394e+00
  1.508595e+01    2.690607e+00
  1.510183e+01    2.880075e+00
  1.511770e+01    3.194217e+00
  1.513358e+01    3.478657e+00
  1.514945e+01    3.803117e+00
  1.516533e+01    4.213687e+00
  1.518120e+01    4.514357e+00
  1.519708e+01    4.897860e+00
  1.521296e+01    5.301154e+00
  1.522883e+01    5.576933e+00
  1.524471e+01    5.712496e+00
  1.526058e+01    5.811317e+00
  1.527646e+01    5.823165e+00
  1.529233e+01    5.685773e+00
  1.530821e+01    5.299653e+00
  1.532409e+01    4.785554e+00
  1.533996e+01    4.225301e+00
  1.535584e+01    3.701872e+00
  1.537171e+01    3.325751e+00
  1.538759e+01    3.003664e+00
  1.540346e+01    2.775108e+00
  1.541934e+01    2.623567e+00
  1.543521e+01    2.451689e+00
  1.545109e+01    2.338352e+00
  1.546697e+01    2.229297e+00
  1.548284e+01    2.115710e+00
  1.549872e+01    2.010772e+00
  1.551459e+01    1.965821e+00
  1.553047e+01    1.925321e+00
  1.554634e+01    1.917371e+00
  1.556222e+01    1.881177e+00
  1.557809e+01    1.868743e+00
  1.559397e+01    1.831884e+00
  1.560985e+01    1.778473e+00
  1.562572e+01    1.775997e+00
  1.564160e+01    1.772586e+00
  1.565747e+01    1.743464e+00
  1.567335e+01    1.742966e+00
  1.568922e+01    1.740690e+00
  1.570510e+01    1.719150e+00
  1.572097e+01    1.717643e+00
  1.573685e+01    1.696949e+00
  1.575273e+01    1.670632e+00
  1.576860e+01    1.671636e+00
  1.578448e+01    1.664625e+00
  1.580035e+01    1.651205e+00
  1.581623e+01    1.648487e+00
  1.583210e+01    1.649099e+00
  1.584798e+01    1.650708e+00
  1.586385e+01    1.641745e+00
  1.587973e+01    1.606783e+00
  1.589561e+01    1.639991e+00
  1.591148e+01    1.674568e+00
  1.592736e+01    1.626842e+00
  1.594323e+01    1.623770e+00
  1.595911e+01    1.612806e+00
  1.597498e+01    1.589058e+00
  1.599086e+01    1.599831e+00
  1.600673e+01    1.572246e+00
  1.602261e+01    1.616401e+00
  1.603849e+01    1.587979e+00
  1.605436e+01    1.564106e+00
  1.607024e+01    1.567575e+00
  1.608611e+01    1.576445e+00
  1.610199e+01    1.577801e+00
  1.611786e+01    1.571021e+00
  1.613374e+01    1.573974e+00
  1.614961e+01    1.590522e+00
  1.616549e+01    1.561248e+00
  1.618137e+01    1.561900e+00
  1.619724e+01    1.587670e+00
  1.621312e+01    1.580040e+00
  1.622899e+01    1.555521e+00
  1.624487e+01    1.539139e+00
  1.626074e+01    1.528117e+00
  1.627662e+01    1.517994e+00
  1.629250e+01    1.563590e+00
  1.630837e+01    1.548819e+00
  1.632425e+01    1.524712e+00
  1.634012e+01    1.539118e+00
  1.635600e+01    1.538210e+00
  1.637187e+01    1.515400e+00
  1.638775e+01    1.483010e+00
  1.640362e+01    1.519887e+00
  1.641950e+01    1.548681e+00
  1.643538e+01    1.531455e+00
  1.645125e+01    1.547671e+00
  1.646713e+01    1.526935e+00
  1.648300e+01    1.513269e+00
  1.649888e+01    1.488804e+00
  1.651475e+01    1.471304e+00
  1.653063e+01    1.500433e+00
  1.654650e+01    1.496846e+00
  1.656238e+01    1.490906e+00
  1.657826e+01    1.484322e+00
  1.659413e+01    1.468750e+00
  1.661001e+01    1.465387e+00
  1.662588e+01    1.512304e+00
  1.664176e+01    1.478649e+00
  1.665763e+01    1.462099e+00
  1.667351e+01    1.471074e+00
  1.668938e+01    1.471148e+00
  1.670526e+01    1.485502e+00
  1.672114e+01    1.454527e+00
  1.673701e+01    1.447585e+00
  1.675289e+01    1.446455e+00
  1.676876e+01    1.447831e+00
  1.678464e+01    1.474301e+00
  1.680051e+01    1.468652e+00
  1.681639e+01    1.430071e+00
  1.683226e+01    1.447951e+00
  1.684814e+01    1.425436e+00
  1.686402e+01    1.430546e+00
  1.687989e+01    1.439867e+00
  1.689577e+01    1.423204e+00
  1.691164e+01    1.413889e+00
  1.692752e+01    1.422560e+00
  1.694339e+01    1.424176e+00
  1.695927e+01    1.433037e+00
  1.697514e+01    1.466379e+00
  1.699102e+01    1.413690e+00
  1.700690e+01    1.389889e+00
  1.702277e+01    1.401019e+00
  1.703865e+01    1.438010e+00
  1.705452e+01    1.430643e+00
  1.707040e+01    1.423406e+00
  1.708627e+01    1.427200e+00
  1.710215e+01    1.439352e+00
  1.711802e+01    1.413245e+00
  1.713390e+01    1.421741e+00
  1.714978e+01    1.391056e+00
  1.716565e+01    1.381260e+00
  1.718153e+01    1.422084e+00
  1.719740e+01    1.403818e+00
  1.721328e+01    1.381613e+00
  1.722915e+01    1.385695e+00
  1.724503e+01    1.390739e+00
  1.726091e+01    1.402761e+00
  1.727678e+01    1.387752e+00
  1.729266e+01    1.384656e+00
  1.730853e+01    1.354853e+00
  1.732441e+01    1.353518e+00
  1.734028e+01    1.353772e+00
  1.735616e+01    1.352781e+00
  1.737203e+01    1.408411e+00
  1.738791e+01    1.369456e+00
  1.740379e+01    1.390481e+00
  1.741966e+01    1.370477e+00
  1.743554e+01    1.319503e+00
  1.745141e+01    1.347313e+00
  1.746729e+01    1.350327e+00
  1.748316e+01    1.335240e+00
  1.749904e+01    1.337541e+00
  1.751491e+01    1.320109e+00
  1.753079e+01    1.310342e+00
  1.754667e+01    1.317521e+00
  1.756254e+01    1.332701e+00
  1.757842e+01    1.361832e+00
  1.759429e+01    1.351298e+00
  1.761017e+01    1.345687e+00
  1.762604e+01    1.356309e+00
  1.764192e+01    1.354360e+00
  1.765779e+01    1.346890e+00
  1.767367e+01    1.339122e+00
  1.768955e+01    1.316696e+00
  1.770542e+01    1.340217e+00
  1.772130e+01    1.320243e+00
  1.773717e+01    1.304640e+00
  1.775305e+01    1.331768e+00
  1.776892e+01    1.314316e+00
  1.778480e+01    1.305712e+00
  1.780067e+01    1.344246e+00
  1.781655e+01    1.333583e+00
  1.783243e+01    1.307866e+00
  1.784830e+01    1.312448e+00
  1.786418e+01    1.326333e+00
  1.788005e+01    1.326925e+00
  1.789593e+01    1.318580e+00
  1.791180e+01    1.308137e+00
  1.792768e+01    1.311276e+00
  1.794355e+01    1.320474e+00
  1.795943e+01    1.316195e+00
  1.797531e+01    1.284354e+00
  1.799118e+01    1.304562e+00
  1.800706e+01    1.302739e+00
  1.802293e+01    1.295002e+00
  1.803881e+01    1.293655e+00
  1.805468e+01    1.286546e+00
  1.807056e+01    1.251659e+00
  1.808643e+01    1.243281e+00
  1.810231e+01    1.248905e+00
  1.811819e+01    1.251983e+00
  1.813406e+01    1.279816e+00
  1.814994e+01    1.294435e+00
  1.816581e+01    1.280088e+00
  1.818169e+01    1.276124e+00
  1.819756e+01    1.264261e+00
  1.821344e+01    1.285006e+00
  1.822932e+01    1.282009e+00
  1.824519e+01    1.267357e+00
  1.826107e+01    1.255507e+00
  1.827694e+01    1.250893e+00
  1.829282e+01    1.274790e+00
  1.830869e+01    1.266956e+00
  1.832457e+01    1.254822e+00
  1.834044e+01    1.261023e+00
  1.835632e+01    1.232682e+00
  1.837220e+01    1.260505e+00
  1.838807e+01    1.255695e+00
  1.840395e+01    1.261931e+00
  1.841982e+01    1.274504e+00
  1.843570e+01    1.253247e+00
  1.845157e+01    1.255486e+00
  1.846745e+01    1.242116e+00
  1.848332e+01    1.280139e+00
  1.849920e+01    1.257026e+00
  1.851508e+01    1.232953e+00
  1.853095e+01    1.228042e+00
  1.854683e+01    1.238735e+00
  1.856270e+01    1.241386e+00
  1.857858e+01    1.219955e+00
  1.859445e+01    1.224644e+00
  1.861033e+01    1.210844e+00
  1.862620e+01    1.210191e+00
  1.864208e+01    1.227823e+00
  1.865796e+01    1.213197e+00
  1.867383e+01    1.216208e+00
  1.868971e+01    1.230778e+00
  1.870558e+01    1.234038e+00
  1.872146e+01    1.229972e+00
  1.873733e+01    1.225109e+00
  1.875321e+01    1.226940e+00
  1.876908e+01    1.193375e+00
  1.878496e+01    1.189656e+00
  1.880084e+01    1.205649e+00
  1.881671e+01    1.201797e+00
  1.883259e+01    1.205625e+00
  1.884846e+01    1.203217e+00
  1.886434e+01    1.196671e+00
  1.888021e+01    1.206126e+00
  1.889609e+01    1.188651e+00
  1.891196e+01    1.184623e+00
  1.892784e+01    1.222497e+00
  1.894372e+01    1.230673e+00
  1.895959e+01    1.227187e+00
  1.897547e+01    1.231699e+00
  1.899134e+01    1.190057e+00
  1.900722e+01    1.196486e+00
  1.902309e+01    1.192225e+00
  1.903897e+01    1.199729e+00
  1.905484e+01    1.176587e+00
  1.907072e+01    1.190864e+00
  1.908660e+01    1.186521e+00
  1.910247e+01    1.182724e+00
  1.911835e+01    1.174128e+00
  1.913422e+01    1.175340e+00
  1.915010e+01    1.164355e+00
  1.916597e+01    1.187305e+00
  1.918185e+01    1.165668e+00
  1.919773e+01    1.163394e+00
  1.921360e+01    1.170487e+00
  1.922948e+01    1.159976e+00
  1.924535e+01    1.145239e+00
  1.926123e+01    1.155023e+00
  1.927710e+01    1.189615e+00
  1.929298e+01    1.195843e+00
  1.930885e+01    1.159817e+00
  1.932473e+01    1.173555e+00
  1.934061e+01    1.181826e+00
  1.935648e+01    1.170629e+00
  1.937236e+01    1.158243e+00
  1.938823e+01    1.163870e+00
  1.940411e+01    1.159273e+00
  1.941998e+01    1.143227e+00
  1.943586e+01    1.183830e+00
  1.945173e+01    1.181222e+00
  1.946761e+01    1.145129e+00
  1.948349e+01    1.147156e+00
  1.949936e+01    1.131732e+00
  1.951524e+01    1.130872e+00
  1.953111e+01    1.143607e+00
  1.954699e+01    1.150484e+00
  1.956286e+01    1.151177e+00
  1.957874e+01    1.152817e+00
  1.959461e+01    1.157312e+00
  1.961049e+01    1.173132e+00
  1.962637e+01    1.163491e+00
  1.964224e+01    1.147202e+00
  1.965812e+01    1.153274e+00
  1.967399e+01    1.136030e+00
  1.968987e+01    1.143301e+00
  1.970574e+01    1.152994e+00
  1.972162e+01    1.123934e+00
  1.973749e+01    1.131496e+00
  1.975337e+01    1.125412e+00
  1.976925e+01    1.128340e+00
  1.978512e+01    1.119064e+00
  1.980100e+01    1.115043e+00
  1.981687e+01    1.131584e+00
  1.983275e+01    1.113629e+00
  1.984862e+01    1.097978e+00
  1.986450e+01    1.115485e+00
  1.988037e+01    1.109471e+00
  1.989625e+01    1.119004e+00
  1.991213e+01    1.099465e+00
  1.992800e+01    1.106491e+00
  1.994388e+01    1.117333e+00
  1.995975e+01    1.109492e+00
  1.997563e+01    1.104764e+00
  1.999150e+01    1.084167e+00
  2.000738e+01    1.121902e+00
  2.002325e+01    1.117405e+00
  2.003913e+01    1.106679e+00
  2.005501e+01    1.100078e+00
  2.007088e+01    1.088388e+00
  2.008676e+01    1.107132e+00
  2.010263e+01    1.104535e+00
  2.011851e+01    1.080553e+00
  2.013438e+01    1.081733e+00
  2.015026e+01    1.073946e+00
  2.016614e+01    1.080106e+00
  2.018201e+01    1.089148e+00
  2.019789e+01    1.095893e+00
  2.021376e+01    1.086087e+00
  2.022964e+01    1.105272e+00
  2.024551e+01    1.120785e+00
  2.026139e+01    1.099891e+00
  2.027726e+01    1.083853e+00
  2.029314e+01    1.084503e+00
  2.030902e+01    1.085527e+00
  2.032489e+01    1.082950e+00
  2.034077e+01    1.074962e+00
  2.035664e+01    1.069100e+00
  2.037252e+01    1.055348e+00
  2.038839e+01    1.073555e+00
  2.040427e+01    1.106842e+00
  2.042014e+01    1.109015e+00
  2.043602e+01    1.093026e+00
  2.045190e+01    1.094982e+00
  2.046777e+01    1.083251e+00
  2.048365e+01    1.100057e+00
  2.049952e+01    1.086356e+00
  2.051540e+01    1.084762e+00
  2.053127e+01    1.081203e+00
  2.054715e+01    1.093232e+00
  2.056302e+01    1.075537e+00
  2.057890e+01    1.079124e+00
  2.059478e+01    1.073397e+00
  2.061065e+01    1.056186e+00
  2.062653e+01    1.042577e+00
  2.064240e+01    1.062050e+00
  2.065828e+01    1.075285e+00
  2.067415e+01    1.074503e+00
  2.069003e+01    1.088475e+00
  2.070590e+01    1.085548e+00
  2.072178e+01    1.060157e+00
  2.073766e+01    1.061453e+00
  2.075353e+01    1.070705e+00
  2.076941e+01    1.055361e+00
  2.078528e+01    1.066280e+00
  2.080116e+01    1.067119e+00
  2.081703e+01    1.076688e+00
  2.083291e+01    1.061557e+00
  2.084878e+01    1.069583e+00
  2.086466e+01    1.081651e+00
  2.088054e+01    1.073945e+00
  2.089641e+01    1.063834e+00
  2.091229e+01    1.062430e+00
  2.092816e+01    1.098280e+00
  2.094404e+01    1.074836e+00
  2.095991e+01    1.062989e+00
  2.097579e+01    1.064461e+00
  2.099166e+01    1.034285e+00
  2.100754e+01    1.037083e+00
  2.102342e+01    1.045474e+00
  2.103929e+01    1.065245e+00
  2.105517e+01    1.060796e+00
  2.107104e+01    1.069902e+00
  2.108692e+01    1.073634e+00
  2.110279e+01    1.098905e+00
  2.111867e+01    1.086278e+00
  2.113455e+01    1.079724e+00
  2.115042e+01    1.081594e+00
  2.116630e+01    1.085800e+00
  2.118217e+01    1.084414e+00
  2.119805e+01    1.096464e+00
  2.121392e+01    1.083984e+00
  2.122980e+01    1.054373e+00
  2.124567e+01    1.082561e+00
  2.126155e+01    1.086269e+00
  2.127743e+01    1.120252e+00
  2.129330e+01    1.133390e+00
  2.130918e+01    1.107720e+00
  2.132505e+01    1.108109e+00
  2.134093e+01    1.114103e+00
  2.135680e+01    1.156457e+00
  2.137268e+01    1.164330e+00
  2.138855e+01    1.156016e+00
  2.140443e+01    1.178898e+00
  2.142031e+01    1.194274e+00
  2.143618e+01    1.186406e+00
  2.145206e+01    1.188902e+00
  2.146793e+01    1.214200e+00
  2.148381e+01    1.255824e+00
  2.149968e+01    1.305255e+00
  2.151556e+01    1.319981e+00
  2.153143e+01    1.328473e+00
  2.154731e+01    1.383908e+00
  2.156319e+01    1.402796e+00
  2.157906e+01    1.468147e+00
  2.159494e+01    1.521397e+00
  2.161081e+01    1.603078e+00
  2.162669e+01    1.704223e+00
  2.164256e+01    1.830986e+00
  2.165844e+01    1.988110e+00
  2.167431e+01    2.153669e+00
  2.169019e+01    2.367799e+00
  2.170607e+01    2.624646e+00
  2.172194e+01    2.886652e+00
  2.173782e+01    3.298573e+00
  2.175369e+01    3.784011e+00
  2.176957e+01    4.360061e+00
  2.178544e+01    4.940854e+00
  2.180132e+01    5.658894e+00
  2.181719e+01    6.382119e+00
  2.183307e+01    7.072473e+00
  2.184895e+01    7.754927e+00
  2.186482e+01    8.434592e+00
  2.188070e+01    9.059639e+00
  2.189657e+01    9.349314e+00
  2.191245e+01    9.304888e+00
  2.192832e+01    8.892104e+00
  2.194420e+01    8.113301e+00
  2.196007e+01    7.104684e+00
  2.197595e+01    6.135988e+00
  2.199183e+01    5.166960e+00
  2.200770e+01    4.395024e+00
  2.202358e+01    3.812717e+00
  2.203945e+01    3.304665e+00
  2.205533e+01    2.880450e+00
  2.207120e+01    2.553896e+00
  2.208708e+01    2.310973e+00
  2.210296e+01    2.095020e+00
  2.211883e+01    1.928629e+00
  2.213471e+01    1.800714e+00
  2.215058e+01    1.698397e+00
  2.216646e+01    1.604504e+00
  2.218233e+01    1.495152e+00
  2.219821e+01    1.436150e+00
  2.221408e+01    1.406086e+00
  2.222996e+01    1.371229e+00
  2.224584e+01    1.305024e+00
  2.226171e+01    1.263511e+00
  2.227759e+01    1.216096e+00
  2.229346e+01    1.192006e+00
  2.230934e+01    1.181151e+00
  2.232521e+01    1.128158e+00
  2.234109e+01    1.126557e+00
  2.235696e+01    1.127705e+00
  2.237284e+01    1.112903e+00
  2.238872e+01    1.103306e+00
  2.240459e+01    1.082985e+00
  2.242047e+01    1.069375e+00
  2.243634e+01    1.075461e+00
  2.245222e+01    1.044375e+00
  2.246809e+01    1.015221e+00
  2.248397e+01    1.020486e+00
  2.249984e+01    1.007010e+00
  2.251572e+01    9.828445e-01
  2.253160e+01    1.002139e+00
  2.254747e+01    1.010212e+00
  2.256335e+01    9.967600e-01
  2.257922e+01    9.965477e-01
  2.259510e+01    9.645967e-01
  2.261097e+01    9.607855e-01
  2.262685e+01    9.660881e-01
  2.264272e+01    9.739907e-01
  2.265860e+01    9.574268e-01
  2.267448e+01    9.437323e-01
  2.269035e+01    9.481124e-01
  2.270623e+01    9.357691e-01
  2.272210e+01    9.377667e-01
  2.273798e+01    9.421549e-01
  2.275385e+01    9.481898e-01
  2.276973e+01    9.335117e-01
  2.278560e+01    9.110073e-01
  2.280148e+01    9.048283e-01
  2.281736e+01    9.097450e-01
  2.283323e+01    9.242351e-01
  2.284911e+01    9.165000e-01
  2.286498e+01    9.179614e-01
  2.288086e+01    9.001498e-01
  2.289673e+01    9.070091e-01
  2.291261e+01    9.027394e-01
  2.292848e+01    9.134231e-01
  2.294436e+01    8.939434e-01
  2.296024e+01    8.995359e-01
  2.297611e+01    9.030222e-01
  2.299199e+01    8.948371e-01
  2.300786e+01    9.035673e-01
  2.302374e+01    8.929139e-01
  2.303961e+01    8.920345e-01
  2.305549e+01    8.910207e-01
  2.307137e+01    8.871126e-01
  2.308724e+01    8.654199e-01
  2.310312e+01    8.825227e-01
  2.311899e+01    8.683484e-01
  2.313487e+01    8.677684e-01
  2.315074e+01    8.686230e-01
  2.316662e+01    8.824694e-01
  2.318249e+01    8.839379e-01
  2.319837e+01    8.850207e-01
  2.321425e+01    8.695357e-01
  2.323012e+01    8.518938e-01
  2.324600e+01    8.525136e-01
  2.326187e+01    8.391520e-01
  2.327775e+01    8.558350e-01
  2.329362e+01    8.737752e-01
  2.330950e+01    8.513322e-01
  2.332537e+01    8.590636e-01
  2.334125e+01    8.749834e-01
  2.335713e+01    8.793023e-01
  2.337300e+01    8.592442e-01
  2.338888e+01    8.512331e-01
  2.340475e+01    8.686699e-01
  2.342063e+01    8.556712e-01
  2.343650e+01    8.579945e-01
  2.345238e+01    8.455171e-01
  2.346825e+01    8.360019e-01
  2.348413e+01    8.496705e-01
  2.350001e+01    8.409473e-01
  2.351588e+01    8.532099e-01
  2.353176e+01    8.441296e-01
  2.354763e+01    8.321005e-01
  2.356351e+01    8.336152e-01
  2.357938e+01    8.483781e-01
  2.359526e+01    8.467516e-01
  2.361113e+01    8.421204e-01
  2.362701e+01    8.335887e-01
  2.364289e+01    8.277723e-01
  2.365876e+01    8.303931e-01
  2.367464e+01    8.161726e-01
  2.369051e+01    8.256459e-01
  2.370639e+01    8.121322e-01
  2.372226e+01    8.197942e-01
  2.373814e+01    8.275328e-01
  2.375401e+01    8.171880e-01
  2.376989e+01    8.279240e-01
  2.378577e+01    8.025863e-01
  2.380164e+01    8.069186e-01
  2.381752e+01    7.993821e-01
  2.383339e+01    8.005906e-01
  2.384927e+01    7.988339e-01
  2.386514e+01    8.136617e-01
  2.388102e+01    8.055946e-01
  2.389689e+01    8.219337e-01
  2.391277e+01    8.044294e-01
  2.392865e+01    7.902572e-01
  2.394452e+01    7.831523e-01
  2.396040e+01    8.006124e-01
  2.397627e+01    7.869637e-01
  2.399215e+01    7.857733e-01
  2.400802e+01    7.844326e-01
  2.402390e+01    7.782884e-01
  2.403978e+01    7.888065e-01
  2.405565e+01    7.852989e-01
  2.407153e+01    7.867487e-01
  2.408740e+01    7.795961e-01
  2.410328e+01    7.816935e-01
  2.411915e+01    7.875345e-01
  2.413503e+01    7.738028e-01
  2.415090e+01    7.644094e-01
  2.416678e+01    7.762191e-01
  2.418266e+01    7.632909e-01
  2.419853e+01    7.607233e-01
  2.421441e+01    7.730398e-01
  2.423028e+01    7.534124e-01
  2.424616e+01    7.631533e-01
  2.426203e+01    7.860107e-01
  2.427791e+01    7.814598e-01
  2.429378e+01    7.954450e-01
  2.430966e+01    7.858541e-01
  2.432554e+01    7.818414e-01
  2.434141e+01    7.692792e-01
  2.435729e+01    7.669343e-01
  2.437316e+01    7.816674e-01
  2.438904e+01    7.845546e-01
  2.440491e+01    7.928921e-01
  2.442079e+01    7.896380e-01
  2.443666e+01    8.130311e-01
  2.445254e+01    8.006961e-01
  2.446842e+01    8.150852e-01
  2.448429e+01    7.900922e-01
  2.450017e+01    7.804847e-01
  2.451604e+01    7.762281e-01
  2.453192e+01    8.044348e-01
  2.454779e+01    7.899490e-01
  2.456367e+01    7.809950e-01
  2.457954e+01    7.802575e-01
  2.459542e+01    7.711141e-01
  2.461130e+01    7.762894e-01
  2.462717e+01    7.730179e-01
  2.464305e+01    7.957522e-01
  2.465892e+01    7.719515e-01
  2.467480e+01    7.827764e-01
  2.469067e+01    7.954484e-01
  2.470655e+01    8.064883e-01
  2.472242e+01    7.832246e-01
  2.473830e+01    7.892550e-01
  2.475418e+01    7.886871e-01
  2.477005e+01    8.018231e-01
  2.478593e+01    7.935702e-01
  2.480180e+01    7.951881e-01
  2.481768e+01    7.881312e-01
  2.483355e+01    7.756726e-01
  2.484943e+01    7.880263e-01
  2.486530e+01    7.807628e-01
  2.488118e+01    7.839672e-01
  2.489706e+01    7.908826e-01
  2.491293e+01    7.918086e-01
  2.492881e+01    7.953600e-01
  2.494468e+01    8.080285e-01
  2.496056e+01    8.198500e-01
  2.497643e+01    8.144273e-01
  2.499231e+01    7.976669e-01
  2.500819e+01    8.157493e-01
  2.502406e+01    8.068936e-01
  2.503994e+01    7.799366e-01
  2.505581e+01    8.001028e-01
  2.507169e+01    8.253282e-01
  2.508756e+01    7.927399e-01
  2.510344e+01    7.841005e-01
  2.511931e+01    7.964077e-01
  2.513519e+01    8.138650e-01
  2.515107e+01    8.339211e-01
  2.516694e+01    8.200591e-01
  2.518282e+01    8.086907e-01
  2.519869e+01    8.198096e-01
  2.521457e+01    8.383772e-01
  2.523044e+01    8.290107e-01
  2.524632e+01    8.568378e-01
  2.526219e+01    8.541420e-01
  2.527807e+01    8.541679e-01
  2.529395e+01    8.718818e-01
  2.530982e+01    8.718843e-01
  2.532570e+01    8.612556e-01
  2.534157e+01    8.785422e-01
  2.535745e+01    8.684537e-01
  2.537332e+01    8.539331e-01
  2.538920e+01    8.893348e-01
  2.540507e+01    9.215069e-01
  2.542095e+01    9.038238e-01
  2.543683e+01    8.973268e-01
  2.545270e+01    9.302426e-01
  2.546858e+01    9.490928e-01
  2.548445e+01    9.671625e-01
  2.550033e+01    9.802340e-01
  2.551620e+01    9.938684e-01
  2.553208e+01    1.007416e+00
  2.554795e+01    1.025795e+00
  2.556383e+01    1.037096e+00
  2.557971e+01    1.060461e+00
  2.559558e+01    1.082233e+00
  2.561146e+01    1.151600e+00
  2.562733e+01    1.213466e+00
  2.564321e+01    1.219470e+00
  2.565908e+01    1.261976e+00
  2.567496e+01    1.335936e+00
  2.569083e+01    1.393800e+00
  2.570671e+01    1.502426e+00
  2.572259e+01    1.614883e+00
  2.573846e+01    1.765899e+00
  2.575434e+01    1.911384e+00
  2.577021e+01    2.131250e+00
  2.578609e+01    2.372516e+00
  2.580196e+01    2.656305e+00
  2.581784e+01    3.015644e+00
  2.583371e+01    3.442566e+00
  2.584959e+01    3.965084e+00
  2.586547e+01    4.556963e+00
  2.588134e+01    5.147417e+00
  2.589722e+01    5.772443e+00
  2.591309e+01    6.433547e+00
  2.592897e+01    6.981754e+00
  2.594484e+01    7.416137e+00
  2.596072e+01    7.674978e+00
  2.597660e+01    7.601267e+00
  2.599247e+01    7.323452e+00
  2.600835e+01    6.809655e+00
  2.602422e+01    6.019827e+00
  2.604010e+01    5.174077e+00
  2.605597e+01    4.450382e+00
  2.607185e+01    3.804243e+00
  2.608772e+01    3.238226e+00
  2.610360e+01    2.798323e+00
  2.611948e+01    2.465937e+00
  2.613535e+01    2.223847e+00
  2.615123e+01    2.022726e+00
  2.616710e+01    1.822262e+00
  2.618298e+01    1.675141e+00
  2.619885e+01    1.538760e+00
  2.621473e+01    1.470157e+00
  2.623060e+01    1.383556e+00
  2.624648e+01    1.291941e+00
  2.626236e+01    1.252536e+00
  2.627823e+01    1.185242e+00
  2.629411e+01    1.171465e+00
  2.630998e+01    1.134367e+00
  2.632586e+01    1.088452e+00
  2.634173e+01    1.041724e+00
  2.635761e+01    1.026710e+00
  2.637348e+01    1.022087e+00
  2.638936e+01    9.986570e-01
  2.640524e+01    9.791563e-01
  2.642111e+01    9.650681e-01
  2.643699e+01    9.461269e-01
  2.645286e+01    9.409654e-01
  2.646874e+01    9.396270e-01
  2.648461e+01    9.277029e-01
  2.650049e+01    9.283758e-01
  2.651636e+01    9.315462e-01
  2.653224e+01    9.060749e-01
  2.654812e+01    9.072482e-01
  2.656399e+01    9.083880e-01
  2.657987e+01    9.035547e-01
  2.659574e+01    9.026275e-01
  2.661162e+01    9.040077e-01
  2.662749e+01    8.902948e-01
  2.664337e+01    9.076437e-01
  2.665924e+01    9.077908e-01
  2.667512e+01    9.093474e-01
  2.669100e+01    8.938023e-01
  2.670687e+01    8.710188e-01
  2.672275e+01    8.952250e-01
  2.673862e+01    8.879848e-01
  2.675450e+01    9.000383e-01
  2.677037e+01    8.746882e-01
  2.678625e+01    8.901908e-01
  2.680212e+01    8.875833e-01
  2.681800e+01    8.879687e-01
  2.683388e+01    8.934051e-01
  2.684975e+01    9.044486e-01
  2.686563e+01    9.065234e-01
  2.688150e+01    9.302579e-01
  2.689738e+01    9.256693e-01
  2.691325e+01    9.204211e-01
  2.692913e+01    9.263232e-01
  2.694501e+01    9.343342e-01
  2.696088e+01    9.578450e-01
  2.697676e+01    9.706520e-01
  2.699263e+01    9.869212e-01
  2.700851e+01    1.008283e+00
  2.702438e+01    1.050397e+00
  2.704026e+01    1.079937e+00
  2.705613e+01    1.130846e+00
  2.707201e+01    1.207469e+00
  2.708789e+01    1.289062e+00
  2.710376e+01    1.405323e+00
  2.711964e+01    1.507592e+00
  2.713551e+01    1.661323e+00
  2.715139e+01    1.794211e+00
  2.716726e+01    1.933615e+00
  2.718314e+01    2.072916e+00
  2.719901e+01    2.158439e+00
  2.721489e+01    2.255000e+00
  2.723077e+01    2.278164e+00
  2.724664e+01    2.210353e+00
  2.726252e+01    2.099619e+00
  2.727839e+01    1.925897e+00
  2.729427e+01    1.765887e+00
  2.731014e+01    1.632488e+00
  2.732602e+01    1.473481e+00
  2.734189e+01    1.359594e+00
  2.735777e+01    1.265308e+00
  2.737365e+01    1.203755e+00
  2.738952e+01    1.132553e+00
  2.740540e+01    1.079267e+00
  2.742127e+01    1.043432e+00
  2.743715e+01    1.054240e+00
  2.745302e+01    9.956826e-01
  2.746890e+01    9.541081e-01
  2.748477e+01    9.501409e-01
  2.750065e+01    9.221389e-01
  2.751653e+01    9.061036e-01
  2.753240e+01    8.916010e-01
  2.754828e+01    8.814830e-01
  2.756415e+01    8.710515e-01
  2.758003e+01    8.481797e-01
  2.759590e+01    8.512752e-01
  2.761178e+01    8.543212e-01
  2.762765e+01    8.360879e-01
  2.764353e+01    8.374701e-01
  2.765941e+01    8.320951e-01
  2.767528e+01    8.409739e-01
  2.769116e+01    8.276550e-01
  2.770703e+01    8.026683e-01
  2.772291e+01    7.952211e-01
  2.773878e+01    8.035772e-01
  2.775466e+01    8.017909e-01
  2.777054e+01    7.986467e-01
  2.778641e+01    8.246690e-01
  2.780229e+01    8.195186e-01
  2.781816e+01    8.066043e-01
  2.783404e+01    7.907895e-01
  2.784991e+01    7.955086e-01
  2.786579e+01    8.008627e-01
  2.788166e+01    8.013607e-01
  2.789754e+01    7.896437e-01
  2.791342e+01    7.739602e-01
  2.792929e+01    7.692729e-01
  2.794517e+01    7.799066e-01
  2.796104e+01    7.923153e-01
  2.797692e+01    7.813471e-01
  2.799279e+01    7.988517e-01
  2.800867e+01    7.757783e-01
  2.802454e+01    7.744229e-01
  2.804042e+01    7.553532e-01
  2.805630e+01    7.896624e-01
  2.807217e+01    7.782763e-01
  2.808805e+01    7.842778e-01
  2.810392e+01    7.890865e-01
  2.811980e+01    7.782846e-01
  2.813567e+01    7.741380e-01
  2.815155e+01    7.911751e-01
  2.816742e+01    7.656837e-01
  2.818330e+01    7.597541e-01
  2.819918e+01    7.757691e-01
  2.821505e+01    7.661215e-01
  2.823093e+01    7.673793e-01
  2.824680e+01    7.694473e-01
  2.826268e+01    7.689314e-01
  2.827855e+01    7.633777e-01
  2.829443e+01    7.554966e-01
  2.831030e+01    7.599815e-01
  2.832618e+01    7.589363e-01
  2.834206e+01    7.543912e-01
  2.835793e+01    7.565308e-01
  2.837381e+01    7.730127e-01
  2.838968e+01    7.540476e-01
  2.840556e+01    7.481872e-01
  2.842143e+01    7.816794e-01
  2.843731e+01    7.823911e-01
  2.845318e+01    7.564392e-01
  2.846906e+01    7.422196e-01
  2.848494e+01    7.657599e-01
  2.850081e+01    7.516991e-01
  2.851669e+01    7.608715e-01
  2.853256e+01    7.459246e-01
  2.854844e+01    7.419727e-01
  2.856431e+01    7.391153e-01
  2.858019e+01    7.676603e-01
  2.859606e+01    7.522427e-01
  2.861194e+01    7.592512e-01
  2.862782e+01    7.473327e-01
  2.864369e+01    7.568712e-01
  2.865957e+01    7.361612e-01
  2.867544e+01    7.319793e-01
  2.869132e+01    7.458282e-01
  2.870719e+01    7.429015e-01
  2.872307e+01    7.412160e-01
  2.873895e+01    7.493253e-01
  2.875482e+01    7.406659e-01
  2.877070e+01    7.209289e-01
  2.878657e+01    7.217043e-01
  2.880245e+01    7.479284e-01
  2.881832e+01    7.239466e-01
  2.883420e+01    7.432100e-01
  2.885007e+01    7.267032e-01
  2.886595e+01    7.315062e-01
  2.888183e+01    7.403296e-01
  2.889770e+01    7.274889e-01
  2.891358e+01    7.453883e-01
  2.892945e+01    7.500739e-01
  2.894533e+01    7.512807e-01
  2.896120e+01    7.458690e-01
  2.897708e+01    7.186908e-01
  2.899295e+01    7.239583e-01
  2.900883e+01    7.230060e-01
  2.902471e+01    7.263606e-01
  2.904058e+01    7.123806e-01
  2.905646e+01    7.100793e-01
  2.907233e+01    7.422337e-01
  2.908821e+01    7.312674e-01
  2.910408e+01    7.310057e-01
  2.911996e+01    7.242719e-01
  2.913583e+01    7.406840e-01
  2.915171e+01    7.445351e-01
  2.916759e+01    7.224957e-01
  2.918346e+01    7.427646e-01
  2.919934e+01    7.332340e-01
  2.921521e+01    7.392654e-01
  2.923109e+01    7.458587e-01
  2.924696e+01    7.267895e-01
  2.926284e+01    7.369805e-01
  2.927871e+01    7.370184e-01
  2.929459e+01    7.189717e-01
  2.931047e+01    7.264118e-01
  2.932634e+01    7.010475e-01
  2.934222e+01    7.091153e-01
  2.935809e+01    7.045015e-01
  2.937397e+01    7.090884e-01
  2.938984e+01    7.234014e-01
  2.940572e+01    7.458403e-01
  2.942159e+01    7.278125e-01
  2.943747e+01    7.252044e-01
  2.945335e+01    7.216433e-01
  2.946922e+01    7.224339e-01
  2.948510e+01    7.123853e-01
  2.950097e+01    6.988243e-01
  2.951685e+01    7.123799e-01
  2.953272e+01    7.264025e-01
  2.954860e+01    7.114379e-01
  2.956447e+01    7.250530e-01
  2.958035e+01    7.282194e-01
  2.959623e+01    7.309820e-01
  2.961210e+01    7.269502e-01
  2.962798e+01    7.048714e-01
  2.964385e+01    7.301227e-01
  2.965973e+01    7.360863e-01
  2.967560e+01    7.182004e-01
  2.969148e+01    7.329876e-01
  2.970736e+01    7.227546e-01
  2.972323e+01    7.232187e-01
  2.973911e+01    7.113762e-01
  2.975498e+01    7.325026e-01
  2.977086e+01    7.162591e-01
  2.978673e+01    7.083372e-01
  2.980261e+01    6.988109e-01
  2.981848e+01    7.159792e-01
  2.983436e+01    7.111014e-01
  2.985024e+01    7.194282e-01
  2.986611e+01    7.122906e-01
  2.988199e+01    7.034491e-01
  2.989786e+01    7.007788e-01
  2.991374e+01    7.125015e-01
  2.992961e+01    7.371975e-01
  2.994549e+01    7.409810e-01
  2.996136e+01    7.177427e-01
  2.997724e+01    7.298439e-01
  2.999312e+01    7.383052e-01
  3.000899e+01    7.267976e-01
  3.002487e+01    7.325575e-01
  3.004074e+01    7.287875e-01
  3.005662e+01    7.331053e-01
  3.007249e+01    7.276404e-01
  3.008837e+01    7.220383e-01
  3.010424e+01    7.304403e-01
  3.012012e+01    7.349375e-01
  3.013600e+01    7.201573e-01
  3.015187e+01    7.147794e-01
  3.016775e+01    7.045979e-01
  3.018362e+01    7.057583e-01
  3.019950e+01    6.991578e-01
  3.021537e+01    6.996320e-01
  3.023125e+01    6.941536e-01
  3.024712e+01    6.905841e-01
  3.026300e+01    7.039576e-01
  3.027888e+01    7.027853e-01
  3.029475e+01    7.032661e-01
  3.031063e+01    7.181915e-01
  3.032650e+01    7.077082e-01
  3.034238e+01    7.041945e-01
  3.035825e+01    7.049276e-01
  3.037413e+01    7.081348e-01
  3.039000e+01    6.994693e-01
  3.040588e+01    6.932822e-01
  3.042176e+01    7.083975e-01
  3.043763e+01    7.186943e-01
  3.045351e+01    7.153854e-01
  3.046938e+01    7.093142e-01
  3.048526e+01    7.131014e-01
  3.050113e+01    6.842834e-01
  3.051701e+01    6.966033e-01
  3.053288e+01    7.063920e-01
  3.054876e+01    6.855630e-01
  3.056464e+01    6.962796e-01
  3.058051e+01    7.008980e-01
  3.059639e+01    6.922600e-01
  3.061226e+01    7.104898e-01
  3.062814e+01    7.210363e-01
  3.064401e+01    6.982606e-01
  3.065989e+01    7.077036e-01
  3.067577e+01    6.968974e-01
  3.069164e+01    6.911680e-01
  3.070752e+01    6.984156e-01
  3.072339e+01    7.041689e-01
  3.073927e+01    6.964481e-01
  3.075514e+01    7.123635e-01
  3.077102e+01    7.209935e-01
  3.078689e+01    7.032961e-01
  3.080277e+01    7.211428e-01
  3.081865e+01    7.264115e-01
  3.083452e+01    7.167730e-01
  3.085040e+01    7.108492e-01
  3.086627e+01    7.262380e-01
  3.088215e+01    6.956284e-01
  3.089802e+01    7.079293e-01
  3.091390e+01    7.118365e-01
  3.092977e+01    7.096318e-01
  3.094565e+01    6.939584e-01
  3.096153e+01    7.269117e-01
  3.097740e+01    7.164654e-01
  3.099328e+01    7.075498e-01
  3.100915e+01    7.328513e-01
  3.102503e+01    7.307107e-01
  3.104090e+01    7.099516e-01
  3.105678e+01    7.213293e-01
  3.107265e+01    7.015219e-01
  3.108853e+01    7.100925e-01
  3.110441e+01    7.239766e-01
  3.112028e+01    7.336997e-01
  3.113616e+01    7.315355e-01
  3.115203e+01    7.187226e-01
  3.116791e+01    7.185454e-01
  3.118378e+01    7.159907e-01
  3.119966e+01    7.356933e-01
  3.121553e+01    7.250937e-01
  3.123141e+01    7.287710e-01
  3.124729e+01    7.315214e-01
  3.126316e+01    7.325358e-01
  3.127904e+01    7.267584e-01
  3.129491e+01    7.548934e-01
  3.131079e+01    7.582092e-01
  3.132666e+01    7.255242e-01
  3.134254e+01    7.256113e-01
  3.135841e+01    7.299525e-01
  3.137429e+01    7.251102e-01
  3.139017e+01    7.428518e-01
  3.140604e+01    7.528424e-01
  3.142192e+01    7.518877e-01
  3.143779e+01    7.452039e-01
  3.145367e+01    7.427712e-01
  3.146954e+01    7.510507e-01
  3.148542e+01    7.667424e-01
  3.150129e+01    7.567984e-01
  3.151717e+01    7.837777e-01
  3.153305e+01    7.747465e-01
  3.154892e+01    7.791001e-01
  3.156480e+01    7.981057e-01
  3.158067e+01    7.914223e-01
  3.159655e+01    8.034913e-01
  3.161242e+01    8.154328e-01
  3.162830e+01    8.307709e-01
  3.164418e+01    8.440960e-01
  3.166005e+01    8.579783e-01
  3.167593e+01    8.896836e-01
  3.169180e+01    9.411017e-01
  3.170768e+01    9.407358e-01
  3.172355e+01    9.965378e-01
  3.173943e+01    1.059941e+00
  3.175530e+01    1.139940e+00
  3.177118e+01    1.213306e+00
  3.178706e+01    1.286063e+00
  3.180293e+01    1.417685e+00
  3.181881e+01    1.542441e+00
  3.183468e+01    1.662604e+00
  3.185056e+01    1.838782e+00
  3.186643e+01    1.979751e+00
  3.188231e+01    2.093223e+00
  3.189818e+01    2.207941e+00
  3.191406e+01    2.282535e+00
  3.192994e+01    2.225222e+00
  3.194581e+01    2.125248e+00
  3.196169e+01    2.016552e+00
  3.197756e+01    1.861061e+00
  3.199344e+01    1.659346e+00
  3.200931e+01    1.515480e+00
  3.202519e+01    1.389748e+00
  3.204106e+01    1.287080e+00
  3.205694e+01    1.153480e+00
  3.207282e+01    1.092610e+00
  3.208869e+01    1.012033e+00
  3.210457e+01    9.737215e-01
  3.212044e+01    9.159371e-01
  3.213632e+01    8.852462e-01
  3.215219e+01    8.891559e-01
  3.216807e+01    8.679922e-01
  3.218394e+01    8.290096e-01
  3.219982e+01    8.447860e-01
  3.221570e+01    8.344232e-01
  3.223157e+01    7.922475e-01
  3.224745e+01    7.942028e-01
  3.226332e+01    7.852857e-01
  3.227920e+01    7.662078e-01
  3.229507e+01    7.579281e-01
  3.231095e+01    7.541671e-01
  3.232682e+01    7.557477e-01
  3.234270e+01    7.543656e-01
  3.235858e+01    7.580302e-01
  3.237445e+01    7.470025e-01
  3.239033e+01    7.452157e-01
  3.240620e+01    7.209988e-01
  3.242208e+01    7.108217e-01
  3.243795e+01    7.227008e-01
  3.245383e+01    7.184452e-01
  3.246970e+01    7.297094e-01
  3.248558e+01    7.321599e-01
  3.250146e+01    7.153254e-01
  3.251733e+01    7.028948e-01
  3.253321e+01    6.998656e-01
  3.254908e+01    6.992698e-01
