# == pyFAI calibration ==
# Distance Sample to Detector: 0.3999999939076516 m
# PONI: 9.750e-02, 1.135e-01 m
# Rotations: -0.000175 0.000000 -0.000000 rad
# 
# == Fit2d calibration ==
# Distance Sample-beamCenter: 400.000 mm
# Center: x=1514.000, y=1300.000 pix
# Tilt: 0.010 deg  TiltPlanRot: 0.010 deg
# 
# Detector Detector	 Spline= None	 PixelSize= 7.500e-05, 7.500e-05 m
#    Detector has a mask: False 
#    Detector has a dark current: False 
#    detector has a flat field: False 
# 
# Wavelength: 6.888e-11 m
# Mask applied: user provided
# Dark current applied: False
# Flat field applied: False
# Polarization factor: 0.99
# Normalization factor: 1.0
# --> /home/myspot/data/2024_07_Rosario/Ru-CGO-ex/2024-07-27_002_Ru-CGO-ex_Activtation_ramp_000002_data_000017.dat
#       q_nm^-1             I 
  2.003187e-02    0.000000e+00
  3.590745e-02    0.000000e+00
  5.178302e-02    1.484000e-01
  6.765859e-02    2.443886e-01
  8.353417e-02    3.255607e-02
  9.940974e-02    1.568306e-02
  1.152853e-01    6.390022e-02
  1.311609e-01    8.886310e-02
  1.470365e-01    1.407752e-02
  1.629120e-01    3.192937e-02
  1.787876e-01    2.775709e-02
  1.946632e-01    6.214935e-02
  2.105388e-01    3.172471e-02
  2.264143e-01    4.371719e-02
  2.422899e-01    4.495687e-02
  2.581655e-01    5.876076e-03
  2.740411e-01    0.000000e+00
  2.899166e-01    2.099701e-02
  3.057922e-01    3.620353e-02
  3.216678e-01    5.352935e-02
  3.375433e-01    3.126872e-02
  3.534189e-01    3.453175e-02
  3.692945e-01    5.479955e-02
  3.851701e-01    2.746928e-02
  4.010456e-01    1.129068e-02
  4.169212e-01    1.654091e-02
  4.327968e-01    5.450047e-02
  4.486724e-01    3.330042e-02
  4.645479e-01    1.258146e-02
  4.804235e-01    2.246023e-02
  4.962991e-01    3.473058e-02
  5.121747e-01    2.937208e-02
  5.280502e-01    3.346231e-02
  5.439258e-01    4.624655e-02
  5.598014e-01    4.771382e-02
  5.756770e-01    5.846055e-02
  5.915525e-01    4.527780e-02
  6.074281e-01    3.771693e-02
  6.233037e-01    2.110166e-02
  6.391793e-01    3.563142e-02
  6.550548e-01    5.395764e-02
  6.709304e-01    2.756908e-02
  6.868060e-01    1.714653e-02
  7.026815e-01    2.457908e-02
  7.185571e-01    3.744253e-02
  7.344327e-01    3.260428e-02
  7.503083e-01    4.890206e-02
  7.661838e-01    6.191672e-02
  7.820594e-01    1.061801e-01
  7.979350e-01    1.853635e-01
  8.138106e-01    2.535999e-01
  8.296861e-01    2.652177e-01
  8.455617e-01    2.350428e-01
  8.614373e-01    3.757323e-01
  8.773129e-01    4.267713e-01
  8.931884e-01    4.902482e-01
  9.090640e-01    5.002757e-01
  9.249396e-01    6.491883e-01
  9.408152e-01    7.596338e-01
  9.566907e-01    7.799730e-01
  9.725663e-01    8.820609e-01
  9.884419e-01    1.029998e+00
  1.004317e+00    1.044442e+00
  1.020193e+00    1.098586e+00
  1.036069e+00    1.150074e+00
  1.051944e+00    1.163682e+00
  1.067820e+00    1.313854e+00
  1.083695e+00    1.430095e+00
  1.099571e+00    1.386293e+00
  1.115446e+00    1.398849e+00
  1.131322e+00    1.493558e+00
  1.147198e+00    1.565591e+00
  1.163073e+00    1.504172e+00
  1.178949e+00    1.563031e+00
  1.194824e+00    1.615865e+00
  1.210700e+00    1.821093e+00
  1.226575e+00    2.048238e+00
  1.242451e+00    2.227928e+00
  1.258327e+00    2.333056e+00
  1.274202e+00    2.451792e+00
  1.290078e+00    2.477112e+00
  1.305953e+00    2.555843e+00
  1.321829e+00    2.609789e+00
  1.337705e+00    2.621166e+00
  1.353580e+00    2.636767e+00
  1.369456e+00    2.595182e+00
  1.385331e+00    2.596788e+00
  1.401207e+00    2.708092e+00
  1.417082e+00    2.665800e+00
  1.432958e+00    2.800799e+00
  1.448834e+00    2.791503e+00
  1.464709e+00    2.872389e+00
  1.480585e+00    2.929036e+00
  1.496460e+00    3.073176e+00
  1.512336e+00    3.085515e+00
  1.528211e+00    3.182552e+00
  1.544087e+00    3.164631e+00
  1.559963e+00    3.127883e+00
  1.575838e+00    2.947052e+00
  1.591714e+00    2.923914e+00
  1.607589e+00    2.958010e+00
  1.623465e+00    2.878531e+00
  1.639340e+00    2.935512e+00
  1.655216e+00    2.963234e+00
  1.671092e+00    3.041566e+00
  1.686967e+00    3.224229e+00
  1.702843e+00    3.083924e+00
  1.718718e+00    2.866482e+00
  1.734594e+00    2.929154e+00
  1.750469e+00    2.898528e+00
  1.766345e+00    2.804585e+00
  1.782221e+00    2.902713e+00
  1.798096e+00    2.945047e+00
  1.813972e+00    2.809064e+00
  1.829847e+00    2.887424e+00
  1.845723e+00    2.952886e+00
  1.861598e+00    2.811090e+00
  1.877474e+00    2.756016e+00
  1.893350e+00    2.807501e+00
  1.909225e+00    2.870627e+00
  1.925101e+00    2.716944e+00
  1.940976e+00    2.662567e+00
  1.956852e+00    2.654739e+00
  1.972727e+00    2.835823e+00
  1.988603e+00    2.831731e+00
  2.004479e+00    2.822090e+00
  2.020354e+00    2.864744e+00
  2.036230e+00    2.799572e+00
  2.052105e+00    2.623739e+00
  2.067981e+00    2.770672e+00
  2.083856e+00    2.846082e+00
  2.099732e+00    2.894225e+00
  2.115608e+00    2.797303e+00
  2.131483e+00    2.807678e+00
  2.147359e+00    2.715095e+00
  2.163234e+00    2.700825e+00
  2.179110e+00    2.750774e+00
  2.194985e+00    2.814632e+00
  2.210861e+00    2.738710e+00
  2.226737e+00    2.842474e+00
  2.242612e+00    2.955177e+00
  2.258488e+00    2.943422e+00
  2.274363e+00    2.820554e+00
  2.290239e+00    2.769882e+00
  2.306115e+00    2.762472e+00
  2.321990e+00    2.695479e+00
  2.337866e+00    2.844107e+00
  2.353741e+00    2.874071e+00
  2.369617e+00    2.868604e+00
  2.385492e+00    2.902801e+00
  2.401368e+00    2.849387e+00
  2.417244e+00    2.839564e+00
  2.433119e+00    2.891764e+00
  2.448995e+00    2.851852e+00
  2.464870e+00    2.829387e+00
  2.480746e+00    2.883510e+00
  2.496621e+00    2.831789e+00
  2.512497e+00    2.911148e+00
  2.528373e+00    2.859576e+00
  2.544248e+00    2.688434e+00
  2.560124e+00    2.799155e+00
  2.575999e+00    2.948660e+00
  2.591875e+00    2.900722e+00
  2.607750e+00    2.846354e+00
  2.623626e+00    2.839600e+00
  2.639502e+00    2.843579e+00
  2.655377e+00    2.887835e+00
  2.671253e+00    2.923692e+00
  2.687128e+00    2.787640e+00
  2.703004e+00    2.865589e+00
  2.718879e+00    2.919817e+00
  2.734755e+00    2.872755e+00
  2.750631e+00    2.698773e+00
  2.766506e+00    2.810821e+00
  2.782382e+00    2.947914e+00
  2.798257e+00    2.986924e+00
  2.814133e+00    2.914662e+00
  2.830008e+00    2.875717e+00
  2.845884e+00    2.836110e+00
  2.861760e+00    2.869701e+00
  2.877635e+00    2.950103e+00
  2.893511e+00    2.864214e+00
  2.909386e+00    2.934849e+00
  2.925262e+00    2.914837e+00
  2.941137e+00    2.875386e+00
  2.957013e+00    2.825838e+00
  2.972889e+00    2.883420e+00
  2.988764e+00    2.948719e+00
  3.004640e+00    2.853122e+00
  3.020515e+00    2.904849e+00
  3.036391e+00    2.879123e+00
  3.052266e+00    2.953542e+00
  3.068142e+00    3.024456e+00
  3.084018e+00    2.995598e+00
  3.099893e+00    2.921162e+00
  3.115769e+00    2.908312e+00
  3.131644e+00    3.028688e+00
  3.147520e+00    2.931580e+00
  3.163395e+00    2.967590e+00
  3.179271e+00    2.982886e+00
  3.195147e+00    2.921009e+00
  3.211022e+00    2.858941e+00
  3.226898e+00    2.901750e+00
  3.242773e+00    2.964185e+00
  3.258649e+00    2.915029e+00
  3.274525e+00    2.876014e+00
  3.290400e+00    2.849715e+00
  3.306276e+00    2.897866e+00
  3.322151e+00    2.982984e+00
  3.338027e+00    3.014177e+00
  3.353902e+00    2.948274e+00
  3.369778e+00    2.913041e+00
  3.385654e+00    2.890011e+00
  3.401529e+00    2.941128e+00
  3.417405e+00    2.994668e+00
  3.433280e+00    3.056970e+00
  3.449156e+00    3.008091e+00
  3.465031e+00    2.998589e+00
  3.480907e+00    2.902551e+00
  3.496783e+00    2.937665e+00
  3.512658e+00    2.985117e+00
  3.528534e+00    3.008136e+00
  3.544409e+00    2.957525e+00
  3.560285e+00    2.923078e+00
  3.576160e+00    2.958657e+00
  3.592036e+00    2.950027e+00
  3.607912e+00    3.031211e+00
  3.623787e+00    3.002510e+00
  3.639663e+00    2.953833e+00
  3.655538e+00    2.961490e+00
  3.671414e+00    2.954360e+00
  3.687289e+00    2.911688e+00
  3.703165e+00    3.000467e+00
  3.719041e+00    3.021684e+00
  3.734916e+00    3.042152e+00
  3.750792e+00    2.975783e+00
  3.766667e+00    3.025337e+00
  3.782543e+00    3.038915e+00
  3.798418e+00    3.046233e+00
  3.814294e+00    3.055550e+00
  3.830170e+00    2.987572e+00
  3.846045e+00    2.972320e+00
  3.861921e+00    3.037036e+00
  3.877796e+00    3.083380e+00
  3.893672e+00    3.025326e+00
  3.909547e+00    3.034519e+00
  3.925423e+00    3.000005e+00
  3.941299e+00    2.994560e+00
  3.957174e+00    3.004498e+00
  3.973050e+00    3.044785e+00
  3.988925e+00    3.077033e+00
  4.004801e+00    3.029527e+00
  4.020676e+00    2.968963e+00
  4.036552e+00    3.024094e+00
  4.052428e+00    3.058066e+00
  4.068303e+00    3.083689e+00
  4.084179e+00    3.086067e+00
  4.100054e+00    3.023266e+00
  4.115930e+00    3.019661e+00
  4.131806e+00    2.965061e+00
  4.147681e+00    3.088165e+00
  4.163557e+00    3.153366e+00
  4.179432e+00    3.129877e+00
  4.195308e+00    3.027176e+00
  4.211183e+00    3.059279e+00
  4.227059e+00    3.083380e+00
  4.242935e+00    3.086494e+00
  4.258810e+00    3.088933e+00
  4.274686e+00    3.070020e+00
  4.290561e+00    3.041028e+00
  4.306437e+00    3.026352e+00
  4.322312e+00    3.043458e+00
  4.338188e+00    3.104794e+00
  4.354064e+00    3.068051e+00
  4.369939e+00    3.114520e+00
  4.385815e+00    3.109408e+00
  4.401690e+00    3.125282e+00
  4.417566e+00    3.111892e+00
  4.433441e+00    3.095848e+00
  4.449317e+00    3.087509e+00
  4.465193e+00    3.121496e+00
  4.481068e+00    3.121686e+00
  4.496944e+00    3.100162e+00
  4.512819e+00    3.158470e+00
  4.528695e+00    3.171107e+00
  4.544570e+00    3.117138e+00
  4.560446e+00    3.135597e+00
  4.576322e+00    3.141047e+00
  4.592197e+00    2.978246e+00
  4.608073e+00    3.036523e+00
  4.623948e+00    3.134779e+00
  4.639824e+00    3.130629e+00
  4.655699e+00    3.041535e+00
  4.671575e+00    3.125780e+00
  4.687451e+00    3.143201e+00
  4.703326e+00    3.095127e+00
  4.719202e+00    3.104151e+00
  4.735077e+00    3.165318e+00
  4.750953e+00    3.109150e+00
  4.766828e+00    3.055426e+00
  4.782704e+00    3.112891e+00
  4.798580e+00    3.165229e+00
  4.814455e+00    3.164479e+00
  4.830331e+00    3.152534e+00
  4.846206e+00    3.149778e+00
  4.862082e+00    3.115220e+00
  4.877957e+00    3.137151e+00
  4.893833e+00    3.133353e+00
  4.909709e+00    3.105580e+00
  4.925584e+00    3.133098e+00
  4.941460e+00    3.097285e+00
  4.957335e+00    3.141605e+00
  4.973211e+00    3.265869e+00
  4.989086e+00    3.227560e+00
  5.004962e+00    3.107917e+00
  5.020838e+00    3.117975e+00
  5.036713e+00    3.148316e+00
  5.052589e+00    3.150575e+00
  5.068464e+00    3.131337e+00
  5.084340e+00    3.194203e+00
  5.100216e+00    3.173410e+00
  5.116091e+00    3.150777e+00
  5.131967e+00    3.155081e+00
  5.147842e+00    3.174650e+00
  5.163718e+00    3.156697e+00
  5.179593e+00    3.195094e+00
  5.195469e+00    3.114621e+00
  5.211345e+00    3.087803e+00
  5.227220e+00    3.115397e+00
  5.243096e+00    3.214668e+00
  5.258971e+00    3.216186e+00
  5.274847e+00    3.236554e+00
  5.290722e+00    3.219939e+00
  5.306598e+00    3.157815e+00
  5.322474e+00    3.253234e+00
  5.338349e+00    3.233377e+00
  5.354225e+00    3.211449e+00
  5.370100e+00    3.124345e+00
  5.385976e+00    3.139646e+00
  5.401851e+00    3.124633e+00
  5.417727e+00    3.148764e+00
  5.433603e+00    3.138724e+00
  5.449478e+00    3.144403e+00
  5.465354e+00    3.152005e+00
  5.481229e+00    3.177170e+00
  5.497105e+00    3.119720e+00
  5.512980e+00    3.096461e+00
  5.528856e+00    3.100928e+00
  5.544732e+00    3.155328e+00
  5.560607e+00    3.083888e+00
  5.576483e+00    3.090428e+00
  5.592358e+00    3.092523e+00
  5.608234e+00    3.093530e+00
  5.624109e+00    3.099105e+00
  5.639985e+00    3.095900e+00
  5.655861e+00    3.165173e+00
  5.671736e+00    3.124604e+00
  5.687612e+00    3.124547e+00
  5.703487e+00    3.108182e+00
  5.719363e+00    3.082575e+00
  5.735238e+00    3.090429e+00
  5.751114e+00    3.070762e+00
  5.766990e+00    2.957735e+00
  5.782865e+00    2.983562e+00
  5.798741e+00    3.031279e+00
  5.814616e+00    3.045053e+00
  5.830492e+00    3.005687e+00
  5.846367e+00    3.057800e+00
  5.862243e+00    3.074665e+00
  5.878119e+00    3.026878e+00
  5.893994e+00    3.073687e+00
  5.909870e+00    3.049490e+00
  5.925745e+00    3.012717e+00
  5.941621e+00    3.008458e+00
  5.957497e+00    3.038785e+00
  5.973372e+00    3.052731e+00
  5.989248e+00    3.060141e+00
  6.005123e+00    2.922810e+00
  6.020999e+00    3.031065e+00
  6.036874e+00    3.029366e+00
  6.052750e+00    2.968080e+00
  6.068626e+00    2.975469e+00
  6.084501e+00    3.047618e+00
  6.100377e+00    3.171155e+00
  6.116252e+00    3.161554e+00
  6.132128e+00    3.085851e+00
  6.148003e+00    3.135957e+00
  6.163879e+00    3.096241e+00
  6.179755e+00    3.119834e+00
  6.195630e+00    3.093431e+00
  6.211506e+00    3.129761e+00
  6.227381e+00    3.103647e+00
  6.243257e+00    3.118882e+00
  6.259132e+00    3.070411e+00
  6.275008e+00    3.039138e+00
  6.290884e+00    3.051802e+00
  6.306759e+00    3.004664e+00
  6.322635e+00    3.034220e+00
  6.338510e+00    3.034288e+00
  6.354386e+00    3.036963e+00
  6.370261e+00    3.136313e+00
  6.386137e+00    3.102259e+00
  6.402013e+00    3.054886e+00
  6.417888e+00    3.074928e+00
  6.433764e+00    3.085892e+00
  6.449639e+00    3.015722e+00
  6.465515e+00    2.998883e+00
  6.481390e+00    3.045893e+00
  6.497266e+00    3.048264e+00
  6.513142e+00    3.115670e+00
  6.529017e+00    3.059119e+00
  6.544893e+00    3.014032e+00
  6.560768e+00    3.028255e+00
  6.576644e+00    3.056462e+00
  6.592519e+00    3.124295e+00
  6.608395e+00    3.126951e+00
  6.624271e+00    3.061105e+00
  6.640146e+00    3.117515e+00
  6.656022e+00    3.116812e+00
  6.671897e+00    3.068016e+00
  6.687773e+00    3.008041e+00
  6.703648e+00    3.082788e+00
  6.719524e+00    3.060630e+00
  6.735400e+00    2.993262e+00
  6.751275e+00    3.001332e+00
  6.767151e+00    3.006457e+00
  6.783026e+00    2.997813e+00
  6.798902e+00    3.018814e+00
  6.814777e+00    3.016710e+00
  6.830653e+00    3.002470e+00
  6.846529e+00    2.999031e+00
  6.862404e+00    3.036825e+00
  6.878280e+00    3.114991e+00
  6.894155e+00    3.116914e+00
  6.910031e+00    3.097214e+00
  6.925907e+00    3.003889e+00
  6.941782e+00    3.006794e+00
  6.957658e+00    3.023705e+00
  6.973533e+00    3.068238e+00
  6.989409e+00    3.049686e+00
  7.005284e+00    3.000585e+00
  7.021160e+00    2.995834e+00
  7.037036e+00    2.978368e+00
  7.052911e+00    2.967386e+00
  7.068787e+00    3.075961e+00
  7.084662e+00    3.112340e+00
  7.100538e+00    3.005777e+00
  7.116413e+00    2.999632e+00
  7.132289e+00    3.010413e+00
  7.148165e+00    3.082443e+00
  7.164040e+00    3.059822e+00
  7.179916e+00    2.971978e+00
  7.195791e+00    2.977463e+00
  7.211667e+00    3.104947e+00
  7.227542e+00    3.106827e+00
  7.243418e+00    3.049826e+00
  7.259294e+00    3.034096e+00
  7.275169e+00    2.993730e+00
  7.291045e+00    3.024976e+00
  7.306920e+00    3.095117e+00
  7.322796e+00    3.102840e+00
  7.338671e+00    3.023621e+00
  7.354547e+00    3.000256e+00
  7.370423e+00    2.996254e+00
  7.386298e+00    3.002548e+00
  7.402174e+00    2.948013e+00
  7.418049e+00    2.997160e+00
  7.433925e+00    3.012113e+00
  7.449800e+00    2.980939e+00
  7.465676e+00    3.018593e+00
  7.481552e+00    2.988692e+00
  7.497427e+00    2.977525e+00
  7.513303e+00    3.059492e+00
  7.529178e+00    3.001791e+00
  7.545054e+00    2.944174e+00
  7.560929e+00    2.974259e+00
  7.576805e+00    3.027847e+00
  7.592681e+00    3.061224e+00
  7.608556e+00    3.047918e+00
  7.624432e+00    3.045117e+00
  7.640307e+00    2.987507e+00
  7.656183e+00    2.964521e+00
  7.672058e+00    2.974982e+00
  7.687934e+00    3.080162e+00
  7.703810e+00    3.034095e+00
  7.719685e+00    2.976092e+00
  7.735561e+00    2.897364e+00
  7.751436e+00    2.972276e+00
  7.767312e+00    3.019189e+00
  7.783187e+00    3.013602e+00
  7.799063e+00    2.879705e+00
  7.814939e+00    2.930429e+00
  7.830814e+00    2.953376e+00
  7.846690e+00    2.963927e+00
  7.862565e+00    2.931584e+00
  7.878441e+00    2.882407e+00
  7.894317e+00    2.957568e+00
  7.910192e+00    2.957356e+00
  7.926068e+00    2.970796e+00
  7.941943e+00    2.951269e+00
  7.957819e+00    2.994580e+00
  7.973694e+00    2.986120e+00
  7.989570e+00    2.940824e+00
  8.005446e+00    2.903670e+00
  8.021321e+00    2.961093e+00
  8.037197e+00    2.918202e+00
  8.053072e+00    2.943735e+00
  8.068948e+00    2.985933e+00
  8.084823e+00    2.989612e+00
  8.100699e+00    2.952158e+00
  8.116575e+00    2.923142e+00
  8.132450e+00    2.907644e+00
  8.148326e+00    2.926228e+00
  8.164201e+00    2.969392e+00
  8.180077e+00    2.971180e+00
  8.195952e+00    2.969192e+00
  8.211828e+00    2.958792e+00
  8.227704e+00    2.990581e+00
  8.243579e+00    2.929736e+00
  8.259455e+00    2.915685e+00
  8.275330e+00    2.946934e+00
  8.291206e+00    2.999192e+00
  8.307081e+00    3.008678e+00
  8.322957e+00    2.982065e+00
  8.338833e+00    2.943888e+00
  8.354708e+00    2.975119e+00
  8.370584e+00    2.994198e+00
  8.386459e+00    2.905618e+00
  8.402335e+00    2.878701e+00
  8.418210e+00    2.882211e+00
  8.434086e+00    2.863253e+00
  8.449962e+00    2.930832e+00
  8.465837e+00    2.972797e+00
  8.481713e+00    2.937074e+00
  8.497588e+00    2.887141e+00
  8.513464e+00    2.996470e+00
  8.529339e+00    2.941604e+00
  8.545215e+00    2.853230e+00
  8.561091e+00    2.919380e+00
  8.576966e+00    2.892131e+00
  8.592842e+00    2.859248e+00
  8.608717e+00    2.838991e+00
  8.624593e+00    2.878113e+00
  8.640468e+00    2.913232e+00
  8.656344e+00    2.907665e+00
  8.672220e+00    2.911613e+00
  8.688095e+00    2.868769e+00
  8.703971e+00    2.869046e+00
  8.719846e+00    2.932313e+00
  8.735722e+00    2.806791e+00
  8.751598e+00    2.868129e+00
  8.767473e+00    2.923261e+00
  8.783349e+00    2.904575e+00
  8.799224e+00    2.881716e+00
  8.815100e+00    2.899369e+00
  8.830975e+00    2.910663e+00
  8.846851e+00    2.868420e+00
  8.862727e+00    2.849664e+00
  8.878602e+00    2.869116e+00
  8.894478e+00    2.839037e+00
  8.910353e+00    2.806200e+00
  8.926229e+00    2.845858e+00
  8.942104e+00    2.862292e+00
  8.957980e+00    2.862855e+00
  8.973856e+00    2.826725e+00
  8.989731e+00    2.868202e+00
  9.005607e+00    2.838216e+00
  9.021482e+00    2.866574e+00
  9.037358e+00    2.839405e+00
  9.053233e+00    2.845608e+00
  9.069109e+00    2.814349e+00
  9.084985e+00    2.789251e+00
  9.100860e+00    2.759211e+00
  9.116736e+00    2.786603e+00
  9.132611e+00    2.848222e+00
  9.148487e+00    2.822907e+00
  9.164362e+00    2.787248e+00
  9.180238e+00    2.796189e+00
  9.196114e+00    2.842280e+00
  9.211989e+00    2.896420e+00
  9.227865e+00    2.849594e+00
  9.243740e+00    2.829176e+00
  9.259616e+00    2.814629e+00
  9.275491e+00    2.809020e+00
  9.291367e+00    2.775529e+00
  9.307243e+00    2.806174e+00
  9.323118e+00    2.786915e+00
  9.338994e+00    2.771675e+00
  9.354869e+00    2.780286e+00
  9.370745e+00    2.760360e+00
  9.386620e+00    2.722096e+00
  9.402496e+00    2.711433e+00
  9.418372e+00    2.756508e+00
  9.434247e+00    2.742817e+00
  9.450123e+00    2.765180e+00
  9.465998e+00    2.814636e+00
  9.481874e+00    2.785642e+00
  9.497749e+00    2.761967e+00
  9.513625e+00    2.736076e+00
  9.529501e+00    2.818708e+00
  9.545376e+00    2.813368e+00
  9.561252e+00    2.816349e+00
  9.577127e+00    2.778357e+00
  9.593003e+00    2.748873e+00
  9.608878e+00    2.792506e+00
  9.624754e+00    2.786554e+00
  9.640630e+00    2.745119e+00
  9.656505e+00    2.737372e+00
  9.672381e+00    2.740744e+00
  9.688256e+00    2.797857e+00
  9.704132e+00    2.755076e+00
  9.720008e+00    2.723227e+00
  9.735883e+00    2.739320e+00
  9.751759e+00    2.715039e+00
  9.767634e+00    2.764679e+00
  9.783510e+00    2.748522e+00
  9.799385e+00    2.781328e+00
  9.815261e+00    2.716400e+00
  9.831137e+00    2.764010e+00
  9.847012e+00    2.761331e+00
  9.862888e+00    2.720129e+00
  9.878763e+00    2.692141e+00
  9.894639e+00    2.682953e+00
  9.910514e+00    2.809036e+00
  9.926390e+00    2.819775e+00
  9.942266e+00    2.741509e+00
  9.958141e+00    2.687956e+00
  9.974017e+00    2.702715e+00
  9.989892e+00    2.711458e+00
  1.000577e+01    2.710824e+00
  1.002164e+01    2.725245e+00
  1.003752e+01    2.713165e+00
  1.005339e+01    2.682370e+00
  1.006927e+01    2.694888e+00
  1.008515e+01    2.753539e+00
  1.010102e+01    2.690383e+00
  1.011690e+01    2.665397e+00
  1.013277e+01    2.611391e+00
  1.014865e+01    2.662259e+00
  1.016452e+01    2.669292e+00
  1.018040e+01    2.660068e+00
  1.019627e+01    2.653942e+00
  1.021215e+01    2.652802e+00
  1.022803e+01    2.659182e+00
  1.024390e+01    2.645219e+00
  1.025978e+01    2.655503e+00
  1.027565e+01    2.673962e+00
  1.029153e+01    2.719793e+00
  1.030740e+01    2.684571e+00
  1.032328e+01    2.612621e+00
  1.033915e+01    2.591636e+00
  1.035503e+01    2.617261e+00
  1.037091e+01    2.646168e+00
  1.038678e+01    2.672847e+00
  1.040266e+01    2.641726e+00
  1.041853e+01    2.618976e+00
  1.043441e+01    2.620289e+00
  1.045028e+01    2.577542e+00
  1.046616e+01    2.575137e+00
  1.048204e+01    2.593856e+00
  1.049791e+01    2.639684e+00
  1.051379e+01    2.658610e+00
  1.052966e+01    2.607727e+00
  1.054554e+01    2.598165e+00
  1.056141e+01    2.641096e+00
  1.057729e+01    2.601605e+00
  1.059316e+01    2.642503e+00
  1.060904e+01    2.610915e+00
  1.062492e+01    2.566667e+00
  1.064079e+01    2.591749e+00
  1.065667e+01    2.569836e+00
  1.067254e+01    2.596538e+00
  1.068842e+01    2.609919e+00
  1.070429e+01    2.655910e+00
  1.072017e+01    2.606538e+00
  1.073604e+01    2.575240e+00
  1.075192e+01    2.505442e+00
  1.076780e+01    2.519058e+00
  1.078367e+01    2.491133e+00
  1.079955e+01    2.504059e+00
  1.081542e+01    2.533580e+00
  1.083130e+01    2.542367e+00
  1.084717e+01    2.545282e+00
  1.086305e+01    2.559196e+00
  1.087892e+01    2.542652e+00
  1.089480e+01    2.540710e+00
  1.091068e+01    2.555521e+00
  1.092655e+01    2.497681e+00
  1.094243e+01    2.531892e+00
  1.095830e+01    2.535794e+00
  1.097418e+01    2.560190e+00
  1.099005e+01    2.563231e+00
  1.100593e+01    2.529468e+00
  1.102180e+01    2.496199e+00
  1.103768e+01    2.472726e+00
  1.105356e+01    2.437536e+00
  1.106943e+01    2.432479e+00
  1.108531e+01    2.493346e+00
  1.110118e+01    2.518316e+00
  1.111706e+01    2.504901e+00
  1.113293e+01    2.522090e+00
  1.114881e+01    2.483989e+00
  1.116468e+01    2.495910e+00
  1.118056e+01    2.493414e+00
  1.119644e+01    2.481824e+00
  1.121231e+01    2.473505e+00
  1.122819e+01    2.448244e+00
  1.124406e+01    2.457762e+00
  1.125994e+01    2.477916e+00
  1.127581e+01    2.511245e+00
  1.129169e+01    2.463362e+00
  1.130756e+01    2.437093e+00
  1.132344e+01    2.449521e+00
  1.133932e+01    2.438596e+00
  1.135519e+01    2.412803e+00
  1.137107e+01    2.398833e+00
  1.138694e+01    2.393501e+00
  1.140282e+01    2.438782e+00
  1.141869e+01    2.415664e+00
  1.143457e+01    2.461767e+00
  1.145045e+01    2.439093e+00
  1.146632e+01    2.427652e+00
  1.148220e+01    2.357927e+00
  1.149807e+01    2.394791e+00
  1.151395e+01    2.439220e+00
  1.152982e+01    2.407671e+00
  1.154570e+01    2.436961e+00
  1.156157e+01    2.443661e+00
  1.157745e+01    2.407589e+00
  1.159333e+01    2.335391e+00
  1.160920e+01    2.401571e+00
  1.162508e+01    2.418469e+00
  1.164095e+01    2.376025e+00
  1.165683e+01    2.361715e+00
  1.167270e+01    2.413616e+00
  1.168858e+01    2.466870e+00
  1.170445e+01    2.402054e+00
  1.172033e+01    2.408542e+00
  1.173621e+01    2.427575e+00
  1.175208e+01    2.452862e+00
  1.176796e+01    2.408478e+00
  1.178383e+01    2.384714e+00
  1.179971e+01    2.393163e+00
  1.181558e+01    2.363840e+00
  1.183146e+01    2.376042e+00
  1.184733e+01    2.380840e+00
  1.186321e+01    2.336751e+00
  1.187909e+01    2.352972e+00
  1.189496e+01    2.400642e+00
  1.191084e+01    2.402129e+00
  1.192671e+01    2.383403e+00
  1.194259e+01    2.411703e+00
  1.195846e+01    2.362699e+00
  1.197434e+01    2.376846e+00
  1.199021e+01    2.395708e+00
  1.200609e+01    2.352150e+00
  1.202197e+01    2.347806e+00
  1.203784e+01    2.326240e+00
  1.205372e+01    2.357655e+00
  1.206959e+01    2.358191e+00
  1.208547e+01    2.371447e+00
  1.210134e+01    2.352492e+00
  1.211722e+01    2.344697e+00
  1.213309e+01    2.336115e+00
  1.214897e+01    2.330672e+00
  1.216485e+01    2.337475e+00
  1.218072e+01    2.339054e+00
  1.219660e+01    2.348386e+00
  1.221247e+01    2.369381e+00
  1.222835e+01    2.346605e+00
  1.224422e+01    2.351593e+00
  1.226010e+01    2.356645e+00
  1.227597e+01    2.349145e+00
  1.229185e+01    2.318889e+00
  1.230773e+01    2.328884e+00
  1.232360e+01    2.356288e+00
  1.233948e+01    2.359699e+00
  1.235535e+01    2.368757e+00
  1.237123e+01    2.386844e+00
  1.238710e+01    2.420232e+00
  1.240298e+01    2.391021e+00
  1.241886e+01    2.398386e+00
  1.243473e+01    2.381136e+00
  1.245061e+01    2.397472e+00
  1.246648e+01    2.374995e+00
  1.248236e+01    2.314868e+00
  1.249823e+01    2.374438e+00
  1.251411e+01    2.415312e+00
  1.252998e+01    2.418396e+00
  1.254586e+01    2.392651e+00
  1.256174e+01    2.430214e+00
  1.257761e+01    2.399461e+00
  1.259349e+01    2.440968e+00
  1.260936e+01    2.445798e+00
  1.262524e+01    2.427514e+00
  1.264111e+01    2.408415e+00
  1.265699e+01    2.355049e+00
  1.267286e+01    2.466349e+00
  1.268874e+01    2.490134e+00
  1.270462e+01    2.517648e+00
  1.272049e+01    2.527687e+00
  1.273637e+01    2.516890e+00
  1.275224e+01    2.605722e+00
  1.276812e+01    2.654294e+00
  1.278399e+01    2.670425e+00
  1.279987e+01    2.731077e+00
  1.281574e+01    2.737166e+00
  1.283162e+01    2.805888e+00
  1.284750e+01    2.861359e+00
  1.286337e+01    2.917696e+00
  1.287925e+01    3.037170e+00
  1.289512e+01    3.152875e+00
  1.291100e+01    3.239411e+00
  1.292687e+01    3.421042e+00
  1.294275e+01    3.652382e+00
  1.295862e+01    3.946612e+00
  1.297450e+01    4.266494e+00
  1.299038e+01    4.691668e+00
  1.300625e+01    5.251676e+00
  1.302213e+01    5.890931e+00
  1.303800e+01    6.622104e+00
  1.305388e+01    7.736109e+00
  1.306975e+01    8.948517e+00
  1.308563e+01    1.035181e+01
  1.310150e+01    1.186527e+01
  1.311738e+01    1.341503e+01
  1.313326e+01    1.491871e+01
  1.314913e+01    1.644094e+01
  1.316501e+01    1.794600e+01
  1.318088e+01    1.931716e+01
  1.319676e+01    1.985528e+01
  1.321263e+01    1.976581e+01
  1.322851e+01    1.858486e+01
  1.324438e+01    1.649926e+01
  1.326026e+01    1.419156e+01
  1.327614e+01    1.180683e+01
  1.329201e+01    9.857457e+00
  1.330789e+01    8.379195e+00
  1.332376e+01    7.164908e+00
  1.333964e+01    6.250470e+00
  1.335551e+01    5.526660e+00
  1.337139e+01    4.892050e+00
  1.338727e+01    4.476005e+00
  1.340314e+01    4.142146e+00
  1.341902e+01    3.761694e+00
  1.343489e+01    3.521450e+00
  1.345077e+01    3.398201e+00
  1.346664e+01    3.225667e+00
  1.348252e+01    3.044853e+00
  1.349839e+01    2.924821e+00
  1.351427e+01    2.877942e+00
  1.353015e+01    2.780290e+00
  1.354602e+01    2.683257e+00
  1.356190e+01    2.647481e+00
  1.357777e+01    2.655646e+00
  1.359365e+01    2.567893e+00
  1.360952e+01    2.519552e+00
  1.362540e+01    2.472425e+00
  1.364127e+01    2.456010e+00
  1.365715e+01    2.428250e+00
  1.367303e+01    2.384341e+00
  1.368890e+01    2.322307e+00
  1.370478e+01    2.312403e+00
  1.372065e+01    2.295073e+00
  1.373653e+01    2.273281e+00
  1.375240e+01    2.224324e+00
  1.376828e+01    2.244977e+00
  1.378415e+01    2.255230e+00
  1.380003e+01    2.209583e+00
  1.381591e+01    2.196230e+00
  1.383178e+01    2.192628e+00
  1.384766e+01    2.187292e+00
  1.386353e+01    2.158834e+00
  1.387941e+01    2.136687e+00
  1.389528e+01    2.145169e+00
  1.391116e+01    2.149493e+00
  1.392703e+01    2.165592e+00
  1.394291e+01    2.103955e+00
  1.395879e+01    2.082163e+00
  1.397466e+01    2.080735e+00
  1.399054e+01    2.105469e+00
  1.400641e+01    2.052636e+00
  1.402229e+01    2.041084e+00
  1.403816e+01    2.021249e+00
  1.405404e+01    2.052546e+00
  1.406991e+01    2.100635e+00
  1.408579e+01    2.086118e+00
  1.410167e+01    2.052109e+00
  1.411754e+01    2.063645e+00
  1.413342e+01    2.063369e+00
  1.414929e+01    2.038882e+00
  1.416517e+01    2.003494e+00
  1.418104e+01    2.005239e+00
  1.419692e+01    2.016271e+00
  1.421279e+01    2.000997e+00
  1.422867e+01    2.034188e+00
  1.424455e+01    2.005239e+00
  1.426042e+01    1.957981e+00
  1.427630e+01    2.015303e+00
  1.429217e+01    2.011409e+00
  1.430805e+01    2.007200e+00
  1.432392e+01    1.971796e+00
  1.433980e+01    1.963332e+00
  1.435568e+01    1.968534e+00
  1.437155e+01    1.933740e+00
  1.438743e+01    1.943256e+00
  1.440330e+01    1.937837e+00
  1.441918e+01    1.917760e+00
  1.443505e+01    1.947645e+00
  1.445093e+01    1.979922e+00
  1.446680e+01    1.973745e+00
  1.448268e+01    1.947210e+00
  1.449856e+01    1.951852e+00
  1.451443e+01    1.942284e+00
  1.453031e+01    1.950055e+00
  1.454618e+01    1.917769e+00
  1.456206e+01    1.911312e+00
  1.457793e+01    1.939232e+00
  1.459381e+01    1.938983e+00
  1.460968e+01    1.961845e+00
  1.462556e+01    2.002893e+00
  1.464144e+01    1.985383e+00
  1.465731e+01    1.979153e+00
  1.467319e+01    1.929981e+00
  1.468906e+01    1.925981e+00
  1.470494e+01    1.921213e+00
  1.472081e+01    1.966943e+00
  1.473669e+01    1.952823e+00
  1.475256e+01    1.929369e+00
  1.476844e+01    1.919343e+00
  1.478432e+01    1.907306e+00
  1.480019e+01    1.909739e+00
  1.481607e+01    1.959791e+00
  1.483194e+01    1.973426e+00
  1.484782e+01    1.974994e+00
  1.486369e+01    1.977929e+00
  1.487957e+01    1.969712e+00
  1.489544e+01    1.936323e+00
  1.491132e+01    1.955413e+00
  1.492720e+01    2.020666e+00
  1.494307e+01    2.019661e+00
  1.495895e+01    2.065900e+00
  1.497482e+01    2.106737e+00
  1.499070e+01    2.116583e+00
  1.500657e+01    2.103983e+00
  1.502245e+01    2.217526e+00
  1.503832e+01    2.296239e+00
  1.505420e+01    2.374279e+00
  1.507008e+01    2.421983e+00
  1.508595e+01    2.560545e+00
  1.510183e+01    2.745457e+00
  1.511770e+01    2.955195e+00
  1.513358e+01    3.194269e+00
  1.514945e+01    3.548009e+00
  1.516533e+01    3.897584e+00
  1.518120e+01    4.317934e+00
  1.519708e+01    4.838113e+00
  1.521296e+01    5.240070e+00
  1.522883e+01    5.624107e+00
  1.524471e+01    6.005442e+00
  1.526058e+01    6.362088e+00
  1.527646e+01    6.520589e+00
  1.529233e+01    6.644147e+00
  1.530821e+01    6.566846e+00
  1.532409e+01    6.297990e+00
  1.533996e+01    5.749854e+00
  1.535584e+01    5.114897e+00
  1.537171e+01    4.471668e+00
  1.538759e+01    3.968657e+00
  1.540346e+01    3.495141e+00
  1.541934e+01    3.167638e+00
  1.543521e+01    2.922202e+00
  1.545109e+01    2.721180e+00
  1.546697e+01    2.548007e+00
  1.548284e+01    2.391380e+00
  1.549872e+01    2.267848e+00
  1.551459e+01    2.205304e+00
  1.553047e+01    2.120999e+00
  1.554634e+01    2.094054e+00
  1.556222e+01    2.021446e+00
  1.557809e+01    1.993413e+00
  1.559397e+01    1.969572e+00
  1.560985e+01    1.928217e+00
  1.562572e+01    1.890516e+00
  1.564160e+01    1.882437e+00
  1.565747e+01    1.841033e+00
  1.567335e+01    1.825703e+00
  1.568922e+01    1.821108e+00
  1.570510e+01    1.769983e+00
  1.572097e+01    1.762511e+00
  1.573685e+01    1.790105e+00
  1.575273e+01    1.753829e+00
  1.576860e+01    1.736161e+00
  1.578448e+01    1.730541e+00
  1.580035e+01    1.733335e+00
  1.581623e+01    1.725975e+00
  1.583210e+01    1.676512e+00
  1.584798e+01    1.682150e+00
  1.586385e+01    1.688136e+00
  1.587973e+01    1.680869e+00
  1.589561e+01    1.667997e+00
  1.591148e+01    1.660417e+00
  1.592736e+01    1.646892e+00
  1.594323e+01    1.651135e+00
  1.595911e+01    1.634609e+00
  1.597498e+01    1.654741e+00
  1.599086e+01    1.670782e+00
  1.600673e+01    1.634665e+00
  1.602261e+01    1.591717e+00
  1.603849e+01    1.622956e+00
  1.605436e+01    1.632524e+00
  1.607024e+01    1.634779e+00
  1.608611e+01    1.591201e+00
  1.610199e+01    1.595173e+00
  1.611786e+01    1.610572e+00
  1.613374e+01    1.603483e+00
  1.614961e+01    1.599169e+00
  1.616549e+01    1.613618e+00
  1.618137e+01    1.599145e+00
  1.619724e+01    1.580793e+00
  1.621312e+01    1.625144e+00
  1.622899e+01    1.634544e+00
  1.624487e+01    1.580896e+00
  1.626074e+01    1.572803e+00
  1.627662e+01    1.571506e+00
  1.629250e+01    1.514789e+00
  1.630837e+01    1.514392e+00
  1.632425e+01    1.568495e+00
  1.634012e+01    1.584204e+00
  1.635600e+01    1.550797e+00
  1.637187e+01    1.544251e+00
  1.638775e+01    1.558733e+00
  1.640362e+01    1.567099e+00
  1.641950e+01    1.568121e+00
  1.643538e+01    1.563805e+00
  1.645125e+01    1.505780e+00
  1.646713e+01    1.524346e+00
  1.648300e+01    1.528103e+00
  1.649888e+01    1.535276e+00
  1.651475e+01    1.560066e+00
  1.653063e+01    1.493512e+00
  1.654650e+01    1.508011e+00
  1.656238e+01    1.502278e+00
  1.657826e+01    1.502937e+00
  1.659413e+01    1.516830e+00
  1.661001e+01    1.507552e+00
  1.662588e+01    1.527326e+00
  1.664176e+01    1.520511e+00
  1.665763e+01    1.528514e+00
  1.667351e+01    1.492742e+00
  1.668938e+01    1.485129e+00
  1.670526e+01    1.487995e+00
  1.672114e+01    1.482635e+00
  1.673701e+01    1.479556e+00
  1.675289e+01    1.501944e+00
  1.676876e+01    1.501845e+00
  1.678464e+01    1.504135e+00
  1.680051e+01    1.491094e+00
  1.681639e+01    1.501989e+00
  1.683226e+01    1.490096e+00
  1.684814e+01    1.488803e+00
  1.686402e+01    1.479797e+00
  1.687989e+01    1.478661e+00
  1.689577e+01    1.478486e+00
  1.691164e+01    1.486454e+00
  1.692752e+01    1.451675e+00
  1.694339e+01    1.453560e+00
  1.695927e+01    1.471474e+00
  1.697514e+01    1.471394e+00
  1.699102e+01    1.478096e+00
  1.700690e+01    1.449408e+00
  1.702277e+01    1.464334e+00
  1.703865e+01    1.452898e+00
  1.705452e+01    1.452090e+00
  1.707040e+01    1.429139e+00
  1.708627e+01    1.424071e+00
  1.710215e+01    1.461488e+00
  1.711802e+01    1.437885e+00
  1.713390e+01    1.423445e+00
  1.714978e+01    1.424253e+00
  1.716565e+01    1.421340e+00
  1.718153e+01    1.422036e+00
  1.719740e+01    1.411804e+00
  1.721328e+01    1.411724e+00
  1.722915e+01    1.393281e+00
  1.724503e+01    1.389234e+00
  1.726091e+01    1.393836e+00
  1.727678e+01    1.410839e+00
  1.729266e+01    1.405175e+00
  1.730853e+01    1.411142e+00
  1.732441e+01    1.438460e+00
  1.734028e+01    1.411975e+00
  1.735616e+01    1.400298e+00
  1.737203e+01    1.395454e+00
  1.738791e+01    1.414232e+00
  1.740379e+01    1.374052e+00
  1.741966e+01    1.383043e+00
  1.743554e+01    1.363002e+00
  1.745141e+01    1.351822e+00
  1.746729e+01    1.374295e+00
  1.748316e+01    1.405066e+00
  1.749904e+01    1.402471e+00
  1.751491e+01    1.392098e+00
  1.753079e+01    1.400372e+00
  1.754667e+01    1.385996e+00
  1.756254e+01    1.364294e+00
  1.757842e+01    1.341066e+00
  1.759429e+01    1.354753e+00
  1.761017e+01    1.368295e+00
  1.762604e+01    1.382846e+00
  1.764192e+01    1.360144e+00
  1.765779e+01    1.378097e+00
  1.767367e+01    1.388452e+00
  1.768955e+01    1.350196e+00
  1.770542e+01    1.349357e+00
  1.772130e+01    1.378040e+00
  1.773717e+01    1.385719e+00
  1.775305e+01    1.355800e+00
  1.776892e+01    1.344852e+00
  1.778480e+01    1.350453e+00
  1.780067e+01    1.350869e+00
  1.781655e+01    1.341112e+00
  1.783243e+01    1.366326e+00
  1.784830e+01    1.364817e+00
  1.786418e+01    1.325063e+00
  1.788005e+01    1.333896e+00
  1.789593e+01    1.317736e+00
  1.791180e+01    1.336349e+00
  1.792768e+01    1.319806e+00
  1.794355e+01    1.322215e+00
  1.795943e+01    1.344530e+00
  1.797531e+01    1.327114e+00
  1.799118e+01    1.335428e+00
  1.800706e+01    1.327277e+00
  1.802293e+01    1.304406e+00
  1.803881e+01    1.294036e+00
  1.805468e+01    1.314266e+00
  1.807056e+01    1.324282e+00
  1.808643e+01    1.305798e+00
  1.810231e+01    1.287210e+00
  1.811819e+01    1.290379e+00
  1.813406e+01    1.280320e+00
  1.814994e+01    1.280803e+00
  1.816581e+01    1.297441e+00
  1.818169e+01    1.310277e+00
  1.819756e+01    1.307594e+00
  1.821344e+01    1.296598e+00
  1.822932e+01    1.293621e+00
  1.824519e+01    1.321482e+00
  1.826107e+01    1.313511e+00
  1.827694e+01    1.298348e+00
  1.829282e+01    1.268611e+00
  1.830869e+01    1.291278e+00
  1.832457e+01    1.297996e+00
  1.834044e+01    1.296866e+00
  1.835632e+01    1.283247e+00
  1.837220e+01    1.285191e+00
  1.838807e+01    1.267948e+00
  1.840395e+01    1.265740e+00
  1.841982e+01    1.272091e+00
  1.843570e+01    1.276814e+00
  1.845157e+01    1.294877e+00
  1.846745e+01    1.292547e+00
  1.848332e+01    1.296448e+00
  1.849920e+01    1.291871e+00
  1.851508e+01    1.285982e+00
  1.853095e+01    1.275947e+00
  1.854683e+01    1.277987e+00
  1.856270e+01    1.278872e+00
  1.857858e+01    1.246124e+00
  1.859445e+01    1.244511e+00
  1.861033e+01    1.264202e+00
  1.862620e+01    1.249555e+00
  1.864208e+01    1.256383e+00
  1.865796e+01    1.243726e+00
  1.867383e+01    1.222698e+00
  1.868971e+01    1.216901e+00
  1.870558e+01    1.230333e+00
  1.872146e+01    1.250998e+00
  1.873733e+01    1.259479e+00
  1.875321e+01    1.252499e+00
  1.876908e+01    1.244447e+00
  1.878496e+01    1.251700e+00
  1.880084e+01    1.262059e+00
  1.881671e+01    1.235963e+00
  1.883259e+01    1.223775e+00
  1.884846e+01    1.231889e+00
  1.886434e+01    1.214241e+00
  1.888021e+01    1.246047e+00
  1.889609e+01    1.237127e+00
  1.891196e+01    1.236741e+00
  1.892784e+01    1.242038e+00
  1.894372e+01    1.218651e+00
  1.895959e+01    1.180461e+00
  1.897547e+01    1.213640e+00
  1.899134e+01    1.242109e+00
  1.900722e+01    1.231791e+00
  1.902309e+01    1.210034e+00
  1.903897e+01    1.231079e+00
  1.905484e+01    1.240724e+00
  1.907072e+01    1.220566e+00
  1.908660e+01    1.211506e+00
  1.910247e+01    1.229697e+00
  1.911835e+01    1.209068e+00
  1.913422e+01    1.187112e+00
  1.915010e+01    1.202638e+00
  1.916597e+01    1.193447e+00
  1.918185e+01    1.197428e+00
  1.919773e+01    1.217237e+00
  1.921360e+01    1.218242e+00
  1.922948e+01    1.214788e+00
  1.924535e+01    1.203062e+00
  1.926123e+01    1.202205e+00
  1.927710e+01    1.171807e+00
  1.929298e+01    1.182562e+00
  1.930885e+01    1.197847e+00
  1.932473e+01    1.183792e+00
  1.934061e+01    1.184075e+00
  1.935648e+01    1.180463e+00
  1.937236e+01    1.168359e+00
  1.938823e+01    1.175093e+00
  1.940411e+01    1.186798e+00
  1.941998e+01    1.177783e+00
  1.943586e+01    1.176979e+00
  1.945173e+01    1.212503e+00
  1.946761e+01    1.191514e+00
  1.948349e+01    1.192269e+00
  1.949936e+01    1.193249e+00
  1.951524e+01    1.190515e+00
  1.953111e+01    1.193941e+00
  1.954699e+01    1.174141e+00
  1.956286e+01    1.168099e+00
  1.957874e+01    1.151756e+00
  1.959461e+01    1.177852e+00
  1.961049e+01    1.191247e+00
  1.962637e+01    1.189873e+00
  1.964224e+01    1.188451e+00
  1.965812e+01    1.190188e+00
  1.967399e+01    1.179253e+00
  1.968987e+01    1.169017e+00
  1.970574e+01    1.162048e+00
  1.972162e+01    1.165834e+00
  1.973749e+01    1.173643e+00
  1.975337e+01    1.173893e+00
  1.976925e+01    1.153759e+00
  1.978512e+01    1.153068e+00
  1.980100e+01    1.128651e+00
  1.981687e+01    1.151320e+00
  1.983275e+01    1.146780e+00
  1.984862e+01    1.151405e+00
  1.986450e+01    1.146414e+00
  1.988037e+01    1.160212e+00
  1.989625e+01    1.158457e+00
  1.991213e+01    1.167912e+00
  1.992800e+01    1.169040e+00
  1.994388e+01    1.154890e+00
  1.995975e+01    1.158671e+00
  1.997563e+01    1.134935e+00
  1.999150e+01    1.127869e+00
  2.000738e+01    1.128374e+00
  2.002325e+01    1.147730e+00
  2.003913e+01    1.153106e+00
  2.005501e+01    1.167108e+00
  2.007088e+01    1.150452e+00
  2.008676e+01    1.136464e+00
  2.010263e+01    1.124906e+00
  2.011851e+01    1.111111e+00
  2.013438e+01    1.119170e+00
  2.015026e+01    1.111641e+00
  2.016614e+01    1.116233e+00
  2.018201e+01    1.120375e+00
  2.019789e+01    1.102520e+00
  2.021376e+01    1.113039e+00
  2.022964e+01    1.097898e+00
  2.024551e+01    1.112200e+00
  2.026139e+01    1.098017e+00
  2.027726e+01    1.109971e+00
  2.029314e+01    1.131466e+00
  2.030902e+01    1.126490e+00
  2.032489e+01    1.103326e+00
  2.034077e+01    1.088170e+00
  2.035664e+01    1.104280e+00
  2.037252e+01    1.126012e+00
  2.038839e+01    1.126945e+00
  2.040427e+01    1.122479e+00
  2.042014e+01    1.107999e+00
  2.043602e+01    1.120937e+00
  2.045190e+01    1.108941e+00
  2.046777e+01    1.091841e+00
  2.048365e+01    1.093935e+00
  2.049952e+01    1.130643e+00
  2.051540e+01    1.115708e+00
  2.053127e+01    1.092558e+00
  2.054715e+01    1.121174e+00
  2.056302e+01    1.121123e+00
  2.057890e+01    1.110729e+00
  2.059478e+01    1.111771e+00
  2.061065e+01    1.103247e+00
  2.062653e+01    1.091992e+00
  2.064240e+01    1.110393e+00
  2.065828e+01    1.113506e+00
  2.067415e+01    1.082771e+00
  2.069003e+01    1.082588e+00
  2.070590e+01    1.088962e+00
  2.072178e+01    1.090539e+00
  2.073766e+01    1.109424e+00
  2.075353e+01    1.097144e+00
  2.076941e+01    1.105733e+00
  2.078528e+01    1.112857e+00
  2.080116e+01    1.112347e+00
  2.081703e+01    1.108389e+00
  2.083291e+01    1.095651e+00
  2.084878e+01    1.110385e+00
  2.086466e+01    1.093501e+00
  2.088054e+01    1.115738e+00
  2.089641e+01    1.132651e+00
  2.091229e+01    1.109058e+00
  2.092816e+01    1.081657e+00
  2.094404e+01    1.108752e+00
  2.095991e+01    1.110832e+00
  2.097579e+01    1.111147e+00
  2.099166e+01    1.116580e+00
  2.100754e+01    1.089510e+00
  2.102342e+01    1.085346e+00
  2.103929e+01    1.081831e+00
  2.105517e+01    1.093289e+00
  2.107104e+01    1.094707e+00
  2.108692e+01    1.101565e+00
  2.110279e+01    1.116320e+00
  2.111867e+01    1.101442e+00
  2.113455e+01    1.102811e+00
  2.115042e+01    1.111689e+00
  2.116630e+01    1.113869e+00
  2.118217e+01    1.114940e+00
  2.119805e+01    1.113653e+00
  2.121392e+01    1.129506e+00
  2.122980e+01    1.148163e+00
  2.124567e+01    1.107314e+00
  2.126155e+01    1.122721e+00
  2.127743e+01    1.142734e+00
  2.129330e+01    1.148524e+00
  2.130918e+01    1.142812e+00
  2.132505e+01    1.135963e+00
  2.134093e+01    1.169608e+00
  2.135680e+01    1.186312e+00
  2.137268e+01    1.187467e+00
  2.138855e+01    1.188205e+00
  2.140443e+01    1.211608e+00
  2.142031e+01    1.195058e+00
  2.143618e+01    1.187799e+00
  2.145206e+01    1.209701e+00
  2.146793e+01    1.241346e+00
  2.148381e+01    1.260082e+00
  2.149968e+01    1.271687e+00
  2.151556e+01    1.293407e+00
  2.153143e+01    1.326488e+00
  2.154731e+01    1.363274e+00
  2.156319e+01    1.413201e+00
  2.157906e+01    1.446729e+00
  2.159494e+01    1.486827e+00
  2.161081e+01    1.538623e+00
  2.162669e+01    1.617715e+00
  2.164256e+01    1.736927e+00
  2.165844e+01    1.816258e+00
  2.167431e+01    1.934576e+00
  2.169019e+01    2.100226e+00
  2.170607e+01    2.261883e+00
  2.172194e+01    2.509403e+00
  2.173782e+01    2.767394e+00
  2.175369e+01    3.136142e+00
  2.176957e+01    3.593747e+00
  2.178544e+01    4.134390e+00
  2.180132e+01    4.748920e+00
  2.181719e+01    5.457297e+00
  2.183307e+01    6.239631e+00
  2.184895e+01    7.089203e+00
  2.186482e+01    7.966428e+00
  2.188070e+01    8.872091e+00
  2.189657e+01    9.759279e+00
  2.191245e+01    1.050693e+01
  2.192832e+01    1.091896e+01
  2.194420e+01    1.096450e+01
  2.196007e+01    1.055173e+01
  2.197595e+01    9.759624e+00
  2.199183e+01    8.645497e+00
  2.200770e+01    7.426273e+00
  2.202358e+01    6.314511e+00
  2.203945e+01    5.292959e+00
  2.205533e+01    4.496429e+00
  2.207120e+01    3.887903e+00
  2.208708e+01    3.423926e+00
  2.210296e+01    2.962754e+00
  2.211883e+01    2.624386e+00
  2.213471e+01    2.389448e+00
  2.215058e+01    2.188083e+00
  2.216646e+01    2.005292e+00
  2.218233e+01    1.875125e+00
  2.219821e+01    1.762882e+00
  2.221408e+01    1.647246e+00
  2.222996e+01    1.563509e+00
  2.224584e+01    1.471804e+00
  2.226171e+01    1.440403e+00
  2.227759e+01    1.392481e+00
  2.229346e+01    1.345470e+00
  2.230934e+01    1.286836e+00
  2.232521e+01    1.274550e+00
  2.234109e+01    1.244036e+00
  2.235696e+01    1.213183e+00
  2.237284e+01    1.189765e+00
  2.238872e+01    1.173987e+00
  2.240459e+01    1.154418e+00
  2.242047e+01    1.136740e+00
  2.243634e+01    1.136276e+00
  2.245222e+01    1.111751e+00
  2.246809e+01    1.100676e+00
  2.248397e+01    1.069480e+00
  2.249984e+01    1.095388e+00
  2.251572e+01    1.086978e+00
  2.253160e+01    1.049005e+00
  2.254747e+01    1.048033e+00
  2.256335e+01    1.063673e+00
  2.257922e+01    1.034004e+00
  2.259510e+01    1.029131e+00
  2.261097e+01    1.007771e+00
  2.262685e+01    1.028476e+00
  2.264272e+01    1.024811e+00
  2.265860e+01    1.001302e+00
  2.267448e+01    9.844442e-01
  2.269035e+01    9.989473e-01
  2.270623e+01    9.843165e-01
  2.272210e+01    1.002389e+00
  2.273798e+01    9.939755e-01
  2.275385e+01    9.765401e-01
  2.276973e+01    9.565246e-01
  2.278560e+01    9.858879e-01
  2.280148e+01    9.731266e-01
  2.281736e+01    9.576672e-01
  2.283323e+01    9.320449e-01
  2.284911e+01    9.481770e-01
  2.286498e+01    9.524584e-01
  2.288086e+01    9.434990e-01
  2.289673e+01    9.490638e-01
  2.291261e+01    9.402270e-01
  2.292848e+01    9.464635e-01
  2.294436e+01    9.428619e-01
  2.296024e+01    9.413376e-01
  2.297611e+01    9.583908e-01
  2.299199e+01    9.509206e-01
  2.300786e+01    9.298325e-01
  2.302374e+01    9.078833e-01
  2.303961e+01    9.192194e-01
  2.305549e+01    9.054698e-01
  2.307137e+01    8.927706e-01
  2.308724e+01    8.975361e-01
  2.310312e+01    9.237015e-01
  2.311899e+01    9.104873e-01
  2.313487e+01    9.018894e-01
  2.315074e+01    8.829830e-01
  2.316662e+01    8.776141e-01
  2.318249e+01    8.751333e-01
  2.319837e+01    8.904185e-01
  2.321425e+01    8.938661e-01
  2.323012e+01    8.975185e-01
  2.324600e+01    8.942755e-01
  2.326187e+01    8.862153e-01
  2.327775e+01    8.838180e-01
  2.329362e+01    8.853118e-01
  2.330950e+01    8.946606e-01
  2.332537e+01    8.853120e-01
  2.334125e+01    8.798826e-01
  2.335713e+01    9.012922e-01
  2.337300e+01    8.629991e-01
  2.338888e+01    8.667881e-01
  2.340475e+01    8.671258e-01
  2.342063e+01    8.752503e-01
  2.343650e+01    8.778121e-01
  2.345238e+01    8.607237e-01
  2.346825e+01    8.458658e-01
  2.348413e+01    8.519878e-01
  2.350001e+01    8.720654e-01
  2.351588e+01    8.610520e-01
  2.353176e+01    8.597507e-01
  2.354763e+01    8.625231e-01
  2.356351e+01    8.554248e-01
  2.357938e+01    8.594373e-01
  2.359526e+01    8.712697e-01
  2.361113e+01    8.560770e-01
  2.362701e+01    8.790904e-01
  2.364289e+01    8.592011e-01
  2.365876e+01    8.391997e-01
  2.367464e+01    8.471197e-01
  2.369051e+01    8.437836e-01
  2.370639e+01    8.459400e-01
  2.372226e+01    8.422198e-01
  2.373814e+01    8.556412e-01
  2.375401e+01    8.458408e-01
  2.376989e+01    8.179656e-01
  2.378577e+01    8.317957e-01
  2.380164e+01    8.359088e-01
  2.381752e+01    8.296907e-01
  2.383339e+01    8.142437e-01
  2.384927e+01    8.154016e-01
  2.386514e+01    8.147987e-01
  2.388102e+01    8.091816e-01
  2.389689e+01    8.310934e-01
  2.391277e+01    8.364652e-01
  2.392865e+01    8.105280e-01
  2.394452e+01    8.183936e-01
  2.396040e+01    7.899596e-01
  2.397627e+01    7.920370e-01
  2.399215e+01    8.038597e-01
  2.400802e+01    7.979975e-01
  2.402390e+01    7.885768e-01
  2.403978e+01    7.946274e-01
  2.405565e+01    7.962190e-01
  2.407153e+01    8.105124e-01
  2.408740e+01    8.048011e-01
  2.410328e+01    8.081089e-01
  2.411915e+01    8.054842e-01
  2.413503e+01    7.959116e-01
  2.415090e+01    7.943635e-01
  2.416678e+01    7.949278e-01
  2.418266e+01    7.984802e-01
  2.419853e+01    7.853374e-01
  2.421441e+01    7.873059e-01
  2.423028e+01    7.974946e-01
  2.424616e+01    8.043182e-01
  2.426203e+01    7.891558e-01
  2.427791e+01    8.050455e-01
  2.429378e+01    8.037103e-01
  2.430966e+01    7.887958e-01
  2.432554e+01    8.028888e-01
  2.434141e+01    7.847303e-01
  2.435729e+01    8.036370e-01
  2.437316e+01    8.019376e-01
  2.438904e+01    8.144491e-01
  2.440491e+01    8.145650e-01
  2.442079e+01    8.023151e-01
  2.443666e+01    8.152601e-01
  2.445254e+01    8.228270e-01
  2.446842e+01    8.039138e-01
  2.448429e+01    7.920126e-01
  2.450017e+01    8.033648e-01
  2.451604e+01    7.932979e-01
  2.453192e+01    7.908676e-01
  2.454779e+01    8.135397e-01
  2.456367e+01    8.058971e-01
  2.457954e+01    8.005584e-01
  2.459542e+01    8.050871e-01
  2.461130e+01    8.166337e-01
  2.462717e+01    7.924750e-01
  2.464305e+01    7.798414e-01
  2.465892e+01    7.987660e-01
  2.467480e+01    8.105370e-01
  2.469067e+01    8.014318e-01
  2.470655e+01    7.984566e-01
  2.472242e+01    7.858420e-01
  2.473830e+01    8.029980e-01
  2.475418e+01    8.171518e-01
  2.477005e+01    8.044974e-01
  2.478593e+01    8.121287e-01
  2.480180e+01    8.175825e-01
  2.481768e+01    7.992609e-01
  2.483355e+01    8.186579e-01
  2.484943e+01    8.142441e-01
  2.486530e+01    7.952300e-01
  2.488118e+01    7.953089e-01
  2.489706e+01    8.125350e-01
  2.491293e+01    8.260456e-01
  2.492881e+01    8.144148e-01
  2.494468e+01    8.112775e-01
  2.496056e+01    8.067529e-01
  2.497643e+01    8.069104e-01
  2.499231e+01    8.186833e-01
  2.500819e+01    8.184780e-01
  2.502406e+01    8.304846e-01
  2.503994e+01    8.346841e-01
  2.505581e+01    8.267217e-01
  2.507169e+01    8.133044e-01
  2.508756e+01    8.164414e-01
  2.510344e+01    8.216327e-01
  2.511931e+01    8.296986e-01
  2.513519e+01    8.342467e-01
  2.515107e+01    8.239678e-01
  2.516694e+01    8.396443e-01
  2.518282e+01    8.513238e-01
  2.519869e+01    8.494810e-01
  2.521457e+01    8.379382e-01
  2.523044e+01    8.542396e-01
  2.524632e+01    8.696836e-01
  2.526219e+01    8.792495e-01
  2.527807e+01    8.855200e-01
  2.529395e+01    9.029709e-01
  2.530982e+01    9.039039e-01
  2.532570e+01    8.865290e-01
  2.534157e+01    8.674347e-01
  2.535745e+01    8.850150e-01
  2.537332e+01    8.993911e-01
  2.538920e+01    9.082473e-01
  2.540507e+01    9.308490e-01
  2.542095e+01    9.284887e-01
  2.543683e+01    9.329470e-01
  2.545270e+01    9.532303e-01
  2.546858e+01    9.418278e-01
  2.548445e+01    9.567357e-01
  2.550033e+01    9.804741e-01
  2.551620e+01    9.917326e-01
  2.553208e+01    1.005604e+00
  2.554795e+01    1.014712e+00
  2.556383e+01    1.039981e+00
  2.557971e+01    1.080657e+00
  2.559558e+01    1.100274e+00
  2.561146e+01    1.108020e+00
  2.562733e+01    1.140479e+00
  2.564321e+01    1.182380e+00
  2.565908e+01    1.206998e+00
  2.567496e+01    1.277280e+00
  2.569083e+01    1.317163e+00
  2.570671e+01    1.376474e+00
  2.572259e+01    1.447420e+00
  2.573846e+01    1.533675e+00
  2.575434e+01    1.671607e+00
  2.577021e+01    1.821866e+00
  2.578609e+01    1.964195e+00
  2.580196e+01    2.204963e+00
  2.581784e+01    2.427459e+00
  2.583371e+01    2.739493e+00
  2.584959e+01    3.107250e+00
  2.586547e+01    3.538569e+00
  2.588134e+01    4.096301e+00
  2.589722e+01    4.704665e+00
  2.591309e+01    5.477431e+00
  2.592897e+01    6.253251e+00
  2.594484e+01    7.050909e+00
  2.596072e+01    7.821042e+00
  2.597660e+01    8.465446e+00
  2.599247e+01    9.016764e+00
  2.600835e+01    9.255260e+00
  2.602422e+01    9.083567e+00
  2.604010e+01    8.502584e+00
  2.605597e+01    7.737554e+00
  2.607185e+01    6.848019e+00
  2.608772e+01    5.911846e+00
  2.610360e+01    5.048699e+00
  2.611948e+01    4.305444e+00
  2.613535e+01    3.637777e+00
  2.615123e+01    3.180185e+00
  2.616710e+01    2.820028e+00
  2.618298e+01    2.513155e+00
  2.619885e+01    2.248276e+00
  2.621473e+01    2.017440e+00
  2.623060e+01    1.832795e+00
  2.624648e+01    1.730169e+00
  2.626236e+01    1.613561e+00
  2.627823e+01    1.499313e+00
  2.629411e+01    1.434821e+00
  2.630998e+01    1.385989e+00
  2.632586e+01    1.314936e+00
  2.634173e+01    1.255299e+00
  2.635761e+01    1.199888e+00
  2.637348e+01    1.192960e+00
  2.638936e+01    1.119291e+00
  2.640524e+01    1.074528e+00
  2.642111e+01    1.088050e+00
  2.643699e+01    1.064962e+00
  2.645286e+01    1.037435e+00
  2.646874e+01    1.050218e+00
  2.648461e+01    1.015326e+00
  2.650049e+01    9.803242e-01
  2.651636e+01    1.003230e+00
  2.653224e+01    9.952163e-01
  2.654812e+01    9.631161e-01
  2.656399e+01    9.630654e-01
  2.657987e+01    9.681692e-01
  2.659574e+01    9.526534e-01
  2.661162e+01    9.390411e-01
  2.662749e+01    9.268758e-01
  2.664337e+01    9.411054e-01
  2.665924e+01    9.166120e-01
  2.667512e+01    9.312860e-01
  2.669100e+01    9.317459e-01
  2.670687e+01    9.259476e-01
  2.672275e+01    9.291655e-01
  2.673862e+01    9.185234e-01
  2.675450e+01    9.112079e-01
  2.677037e+01    9.068685e-01
  2.678625e+01    9.082599e-01
  2.680212e+01    9.307201e-01
  2.681800e+01    9.150013e-01
  2.683388e+01    9.090277e-01
  2.684975e+01    9.238372e-01
  2.686563e+01    9.239777e-01
  2.688150e+01    9.263029e-01
  2.689738e+01    9.391961e-01
  2.691325e+01    9.240440e-01
  2.692913e+01    9.372787e-01
  2.694501e+01    9.798982e-01
  2.696088e+01    9.892193e-01
  2.697676e+01    9.968093e-01
  2.699263e+01    1.012950e+00
  2.700851e+01    1.007720e+00
  2.702438e+01    1.044348e+00
  2.704026e+01    1.073103e+00
  2.705613e+01    1.094014e+00
  2.707201e+01    1.117819e+00
  2.708789e+01    1.158510e+00
  2.710376e+01    1.247151e+00
  2.711964e+01    1.349964e+00
  2.713551e+01    1.456864e+00
  2.715139e+01    1.585060e+00
  2.716726e+01    1.702101e+00
  2.718314e+01    1.872181e+00
  2.719901e+01    2.028896e+00
  2.721489e+01    2.215989e+00
  2.723077e+01    2.407169e+00
  2.724664e+01    2.530414e+00
  2.726252e+01    2.610422e+00
  2.727839e+01    2.606840e+00
  2.729427e+01    2.544905e+00
  2.731014e+01    2.386273e+00
  2.732602e+01    2.237273e+00
  2.734189e+01    2.036035e+00
  2.735777e+01    1.817463e+00
  2.737365e+01    1.656271e+00
  2.738952e+01    1.495871e+00
  2.740540e+01    1.412418e+00
  2.742127e+01    1.307540e+00
  2.743715e+01    1.210290e+00
  2.745302e+01    1.163326e+00
  2.746890e+01    1.127429e+00
  2.748477e+01    1.067549e+00
  2.750065e+01    1.029379e+00
  2.751653e+01    1.013417e+00
  2.753240e+01    9.851772e-01
  2.754828e+01    9.562130e-01
  2.756415e+01    9.438853e-01
  2.758003e+01    9.224267e-01
  2.759590e+01    9.242603e-01
  2.761178e+01    9.013034e-01
  2.762765e+01    8.873004e-01
  2.764353e+01    8.776718e-01
  2.765941e+01    8.675838e-01
  2.767528e+01    8.708378e-01
  2.769116e+01    8.632555e-01
  2.770703e+01    8.320397e-01
  2.772291e+01    8.223134e-01
  2.773878e+01    8.583946e-01
  2.775466e+01    8.489655e-01
  2.777054e+01    8.573179e-01
  2.778641e+01    8.456925e-01
  2.780229e+01    8.620805e-01
  2.781816e+01    8.583629e-01
  2.783404e+01    8.193836e-01
  2.784991e+01    8.198121e-01
  2.786579e+01    8.361378e-01
  2.788166e+01    8.269091e-01
  2.789754e+01    8.308138e-01
  2.791342e+01    8.434724e-01
  2.792929e+01    8.205965e-01
  2.794517e+01    8.267657e-01
  2.796104e+01    8.150474e-01
  2.797692e+01    8.078356e-01
  2.799279e+01    8.122652e-01
  2.800867e+01    8.056880e-01
  2.802454e+01    7.884010e-01
  2.804042e+01    7.835870e-01
  2.805630e+01    8.133796e-01
  2.807217e+01    8.274604e-01
  2.808805e+01    8.302578e-01
  2.810392e+01    8.068208e-01
  2.811980e+01    8.017547e-01
  2.813567e+01    8.014751e-01
  2.815155e+01    8.020897e-01
  2.816742e+01    7.973579e-01
  2.818330e+01    7.875873e-01
  2.819918e+01    7.990096e-01
  2.821505e+01    8.160562e-01
  2.823093e+01    8.177547e-01
  2.824680e+01    8.038761e-01
  2.826268e+01    7.937709e-01
  2.827855e+01    7.987027e-01
  2.829443e+01    7.977726e-01
  2.831030e+01    7.890615e-01
  2.832618e+01    8.124052e-01
  2.834206e+01    7.799945e-01
  2.835793e+01    7.747922e-01
  2.837381e+01    7.780007e-01
  2.838968e+01    7.779925e-01
  2.840556e+01    7.623729e-01
  2.842143e+01    7.758113e-01
  2.843731e+01    7.810568e-01
  2.845318e+01    7.709628e-01
  2.846906e+01    7.823711e-01
  2.848494e+01    7.808855e-01
  2.850081e+01    7.664013e-01
  2.851669e+01    7.749561e-01
  2.853256e+01    7.568458e-01
  2.854844e+01    7.702321e-01
  2.856431e+01    7.773912e-01
  2.858019e+01    7.902027e-01
  2.859606e+01    7.728283e-01
  2.861194e+01    7.655808e-01
  2.862782e+01    7.806701e-01
  2.864369e+01    7.591175e-01
  2.865957e+01    7.583924e-01
  2.867544e+01    7.546462e-01
  2.869132e+01    7.716333e-01
  2.870719e+01    7.796573e-01
  2.872307e+01    7.894744e-01
  2.873895e+01    7.863511e-01
  2.875482e+01    7.692094e-01
  2.877070e+01    7.637493e-01
  2.878657e+01    7.656499e-01
  2.880245e+01    7.573819e-01
  2.881832e+01    7.802790e-01
  2.883420e+01    7.567334e-01
  2.885007e+01    7.648509e-01
  2.886595e+01    7.603500e-01
  2.888183e+01    7.879713e-01
  2.889770e+01    7.805931e-01
  2.891358e+01    7.705674e-01
  2.892945e+01    7.590150e-01
  2.894533e+01    7.540598e-01
  2.896120e+01    7.418167e-01
  2.897708e+01    7.462566e-01
  2.899295e+01    7.414024e-01
  2.900883e+01    7.496060e-01
  2.902471e+01    7.563047e-01
  2.904058e+01    7.718885e-01
  2.905646e+01    7.441018e-01
  2.907233e+01    7.378480e-01
  2.908821e+01    7.237583e-01
  2.910408e+01    7.477003e-01
  2.911996e+01    7.470242e-01
  2.913583e+01    7.484993e-01
  2.915171e+01    7.582600e-01
  2.916759e+01    7.527823e-01
  2.918346e+01    7.484093e-01
  2.919934e+01    7.567785e-01
  2.921521e+01    7.509842e-01
  2.923109e+01    7.422829e-01
  2.924696e+01    7.498611e-01
  2.926284e+01    7.424195e-01
  2.927871e+01    7.366881e-01
  2.929459e+01    7.329033e-01
  2.931047e+01    7.480795e-01
  2.932634e+01    7.414645e-01
  2.934222e+01    7.515750e-01
  2.935809e+01    7.474499e-01
  2.937397e+01    7.278352e-01
  2.938984e+01    7.420304e-01
  2.940572e+01    7.598537e-01
  2.942159e+01    7.575949e-01
  2.943747e+01    7.388501e-01
  2.945335e+01    7.404281e-01
  2.946922e+01    7.467121e-01
  2.948510e+01    7.328625e-01
  2.950097e+01    7.322206e-01
  2.951685e+01    7.343208e-01
  2.953272e+01    7.482728e-01
  2.954860e+01    7.437032e-01
  2.956447e+01    7.404628e-01
  2.958035e+01    6.983145e-01
  2.959623e+01    7.208316e-01
  2.961210e+01    7.650572e-01
  2.962798e+01    7.626118e-01
  2.964385e+01    7.313834e-01
  2.965973e+01    6.903231e-01
  2.967560e+01    7.311025e-01
  2.969148e+01    7.462743e-01
  2.970736e+01    7.373329e-01
  2.972323e+01    7.142648e-01
  2.973911e+01    7.361636e-01
  2.975498e+01    7.454128e-01
  2.977086e+01    7.304989e-01
  2.978673e+01    7.321665e-01
  2.980261e+01    7.340460e-01
  2.981848e+01    7.412723e-01
  2.983436e+01    7.362232e-01
  2.985024e+01    7.153090e-01
  2.986611e+01    7.328525e-01
  2.988199e+01    7.347039e-01
  2.989786e+01    7.431530e-01
  2.991374e+01    7.468404e-01
  2.992961e+01    7.379934e-01
  2.994549e+01    7.065595e-01
  2.996136e+01    7.454098e-01
  2.997724e+01    7.468817e-01
  2.999312e+01    7.340878e-01
  3.000899e+01    7.306786e-01
  3.002487e+01    7.446092e-01
  3.004074e+01    7.478681e-01
  3.005662e+01    7.375801e-01
  3.007249e+01    7.501060e-01
  3.008837e+01    7.507668e-01
  3.010424e+01    7.429751e-01
  3.012012e+01    7.277746e-01
  3.013600e+01    7.316701e-01
  3.015187e+01    7.302389e-01
  3.016775e+01    7.397562e-01
  3.018362e+01    7.368938e-01
  3.019950e+01    7.411067e-01
  3.021537e+01    7.171685e-01
  3.023125e+01    7.108318e-01
  3.024712e+01    7.150148e-01
  3.026300e+01    7.279158e-01
  3.027888e+01    7.169736e-01
  3.029475e+01    7.187905e-01
  3.031063e+01    7.385656e-01
  3.032650e+01    7.572064e-01
  3.034238e+01    7.527465e-01
  3.035825e+01    7.318119e-01
  3.037413e+01    7.116302e-01
  3.039000e+01    7.319908e-01
  3.040588e+01    7.407074e-01
  3.042176e+01    7.319840e-01
  3.043763e+01    7.149153e-01
  3.045351e+01    7.161461e-01
  3.046938e+01    7.287470e-01
  3.048526e+01    7.136932e-01
  3.050113e+01    7.163771e-01
  3.051701e+01    7.193069e-01
  3.053288e+01    7.058082e-01
  3.054876e+01    7.370175e-01
  3.056464e+01    7.309870e-01
  3.058051e+01    7.341869e-01
  3.059639e+01    7.204463e-01
  3.061226e+01    7.300121e-01
  3.062814e+01    7.164908e-01
  3.064401e+01    7.411471e-01
  3.065989e+01    7.436099e-01
  3.067577e+01    7.272919e-01
  3.069164e+01    7.236906e-01
  3.070752e+01    7.112476e-01
  3.072339e+01    7.133176e-01
  3.073927e+01    7.508424e-01
  3.075514e+01    7.286257e-01
  3.077102e+01    7.287816e-01
  3.078689e+01    7.347269e-01
  3.080277e+01    7.298436e-01
  3.081865e+01    7.193841e-01
  3.083452e+01    7.305719e-01
  3.085040e+01    7.213956e-01
  3.086627e+01    7.392675e-01
  3.088215e+01    7.170714e-01
  3.089802e+01    7.245402e-01
  3.091390e+01    7.363095e-01
  3.092977e+01    7.182985e-01
  3.094565e+01    7.432874e-01
  3.096153e+01    7.227640e-01
  3.097740e+01    7.203819e-01
  3.099328e+01    7.296875e-01
  3.100915e+01    7.339148e-01
  3.102503e+01    7.370772e-01
  3.104090e+01    7.407411e-01
  3.105678e+01    7.402912e-01
  3.107265e+01    7.482633e-01
  3.108853e+01    7.386103e-01
  3.110441e+01    7.434217e-01
  3.112028e+01    7.337002e-01
  3.113616e+01    7.124807e-01
  3.115203e+01    7.239138e-01
  3.116791e+01    7.404212e-01
  3.118378e+01    7.432078e-01
  3.119966e+01    7.587427e-01
  3.121553e+01    7.559677e-01
  3.123141e+01    7.540154e-01
  3.124729e+01    7.477693e-01
  3.126316e+01    7.435887e-01
  3.127904e+01    7.366590e-01
  3.129491e+01    7.401210e-01
  3.131079e+01    7.462927e-01
  3.132666e+01    7.370077e-01
  3.134254e+01    7.615794e-01
  3.135841e+01    7.657717e-01
  3.137429e+01    7.416527e-01
  3.139017e+01    7.512602e-01
  3.140604e+01    7.558582e-01
  3.142192e+01    7.464504e-01
  3.143779e+01    7.485657e-01
  3.145367e+01    7.581625e-01
  3.146954e+01    7.694232e-01
  3.148542e+01    7.674963e-01
  3.150129e+01    7.724774e-01
  3.151717e+01    7.882050e-01
  3.153305e+01    7.889378e-01
  3.154892e+01    7.973359e-01
  3.156480e+01    8.097355e-01
  3.158067e+01    7.969203e-01
  3.159655e+01    8.065405e-01
  3.161242e+01    8.244143e-01
  3.162830e+01    8.375084e-01
  3.164418e+01    8.414012e-01
  3.166005e+01    8.423858e-01
  3.167593e+01    8.639534e-01
  3.169180e+01    8.868846e-01
  3.170768e+01    9.119576e-01
  3.172355e+01    9.552240e-01
  3.173943e+01    9.970232e-01
  3.175530e+01    1.019631e+00
  3.177118e+01    1.064853e+00
  3.178706e+01    1.128825e+00
  3.180293e+01    1.189747e+00
  3.181881e+01    1.283785e+00
  3.183468e+01    1.393790e+00
  3.185056e+01    1.506080e+00
  3.186643e+01    1.659250e+00
  3.188231e+01    1.881096e+00
  3.189818e+01    2.052943e+00
  3.191406e+01    2.228750e+00
  3.192994e+01    2.425504e+00
  3.194581e+01    2.554109e+00
  3.196169e+01    2.612231e+00
  3.197756e+01    2.584273e+00
  3.199344e+01    2.508589e+00
  3.200931e+01    2.364379e+00
  3.202519e+01    2.198389e+00
  3.204106e+01    2.024854e+00
  3.205694e+01    1.794374e+00
  3.207282e+01    1.602463e+00
  3.208869e+01    1.429965e+00
  3.210457e+01    1.302555e+00
  3.212044e+01    1.216508e+00
  3.213632e+01    1.114591e+00
  3.215219e+01    1.061905e+00
  3.216807e+01    1.008049e+00
  3.218394e+01    9.855434e-01
  3.219982e+01    9.433634e-01
  3.221570e+01    9.115504e-01
  3.223157e+01    8.857001e-01
  3.224745e+01    8.711099e-01
  3.226332e+01    8.593717e-01
  3.227920e+01    8.317446e-01
  3.229507e+01    8.255339e-01
  3.231095e+01    8.109096e-01
  3.232682e+01    8.097150e-01
  3.234270e+01    7.958497e-01
  3.235858e+01    7.717428e-01
  3.237445e+01    7.602225e-01
  3.239033e+01    7.898720e-01
  3.240620e+01    7.632857e-01
  3.242208e+01    7.839918e-01
  3.243795e+01    7.639205e-01
  3.245383e+01    7.472975e-01
  3.246970e+01    7.493804e-01
  3.248558e+01    7.554868e-01
  3.250146e+01    7.488534e-01
  3.251733e+01    7.551988e-01
  3.253321e+01    7.462994e-01
  3.254908e+01    7.656469e-01
