# == pyFAI calibration ==
# Distance Sample to Detector: 0.3999999939076516 m
# PONI: 9.750e-02, 1.135e-01 m
# Rotations: -0.000175 0.000000 -0.000000 rad
# 
# == Fit2d calibration ==
# Distance Sample-beamCenter: 400.000 mm
# Center: x=1514.000, y=1300.000 pix
# Tilt: 0.010 deg  TiltPlanRot: 0.010 deg
# 
# Detector Detector	 Spline= None	 PixelSize= 7.500e-05, 7.500e-05 m
#    Detector has a mask: False 
#    Detector has a dark current: False 
#    detector has a flat field: False 
# 
# Wavelength: 6.888e-11 m
# Mask applied: user provided
# Dark current applied: False
# Flat field applied: False
# Polarization factor: 0.99
# Normalization factor: 1.0
# --> /home/myspot/data/2024_07_Rosario/Ru-CGO-ex/2024-07-27_002_Ru-CGO-ex_Activtation_ramp_000002_data_000134.dat
#       q_nm^-1             I 
  2.003187e-02    0.000000e+00
  3.590745e-02    0.000000e+00
  5.178302e-02    0.000000e+00
  6.765859e-02    2.055495e-01
  8.353417e-02    1.831973e-01
  9.940974e-02    1.109678e-01
  1.152853e-01    8.112828e-02
  1.311609e-01    1.026818e-02
  1.470365e-01    2.924068e-02
  1.629120e-01    8.544511e-02
  1.787876e-01    6.860449e-02
  1.946632e-01    6.139922e-02
  2.105388e-01    8.640472e-03
  2.264143e-01    0.000000e+00
  2.422899e-01    1.116243e-02
  2.581655e-01    5.167350e-02
  2.740411e-01    3.659583e-02
  2.899166e-01    7.064932e-02
  3.057922e-01    8.289950e-02
  3.216678e-01    1.962689e-02
  3.375433e-01    2.562190e-02
  3.534189e-01    3.999700e-02
  3.692945e-01    7.367337e-03
  3.851701e-01    5.103305e-03
  4.010456e-01    2.248611e-02
  4.169212e-01    2.328712e-02
  4.327968e-01    1.653130e-02
  4.486724e-01    1.311848e-02
  4.645479e-01    8.420092e-03
  4.804235e-01    8.818977e-03
  4.962991e-01    8.891555e-03
  5.121747e-01    6.030472e-03
  5.280502e-01    2.193422e-02
  5.439258e-01    2.539787e-02
  5.598014e-01    5.571446e-02
  5.756770e-01    5.625787e-02
  5.915525e-01    4.480819e-02
  6.074281e-01    5.258943e-02
  6.233037e-01    3.376623e-02
  6.391793e-01    4.939737e-02
  6.550548e-01    4.613211e-02
  6.709304e-01    5.705788e-02
  6.868060e-01    3.706365e-02
  7.026815e-01    3.824623e-02
  7.185571e-01    4.216565e-02
  7.344327e-01    3.870318e-02
  7.503083e-01    3.370327e-02
  7.661838e-01    7.694656e-02
  7.820594e-01    1.268853e-01
  7.979350e-01    1.080370e-01
  8.138106e-01    1.418574e-01
  8.296861e-01    2.227068e-01
  8.455617e-01    3.430589e-01
  8.614373e-01    3.659495e-01
  8.773129e-01    3.552915e-01
  8.931884e-01    4.551652e-01
  9.090640e-01    5.231436e-01
  9.249396e-01    5.062617e-01
  9.408152e-01    5.649767e-01
  9.566907e-01    8.022484e-01
  9.725663e-01    8.982711e-01
  9.884419e-01    9.397147e-01
  1.004317e+00    1.041208e+00
  1.020193e+00    1.122128e+00
  1.036069e+00    1.175684e+00
  1.051944e+00    1.191467e+00
  1.067820e+00    1.266754e+00
  1.083695e+00    1.357608e+00
  1.099571e+00    1.383715e+00
  1.115446e+00    1.395731e+00
  1.131322e+00    1.478264e+00
  1.147198e+00    1.438120e+00
  1.163073e+00    1.432736e+00
  1.178949e+00    1.446290e+00
  1.194824e+00    1.554791e+00
  1.210700e+00    1.837158e+00
  1.226575e+00    2.069696e+00
  1.242451e+00    2.197795e+00
  1.258327e+00    2.287527e+00
  1.274202e+00    2.427156e+00
  1.290078e+00    2.346536e+00
  1.305953e+00    2.395180e+00
  1.321829e+00    2.428723e+00
  1.337705e+00    2.599954e+00
  1.353580e+00    2.545449e+00
  1.369456e+00    2.503877e+00
  1.385331e+00    2.512391e+00
  1.401207e+00    2.694244e+00
  1.417082e+00    2.658636e+00
  1.432958e+00    2.821469e+00
  1.448834e+00    2.847625e+00
  1.464709e+00    2.596280e+00
  1.480585e+00    2.686757e+00
  1.496460e+00    2.716191e+00
  1.512336e+00    2.716671e+00
  1.528211e+00    2.786617e+00
  1.544087e+00    2.942860e+00
  1.559963e+00    3.003153e+00
  1.575838e+00    2.924131e+00
  1.591714e+00    2.930917e+00
  1.607589e+00    2.966054e+00
  1.623465e+00    2.976766e+00
  1.639340e+00    2.974012e+00
  1.655216e+00    2.942063e+00
  1.671092e+00    2.907056e+00
  1.686967e+00    2.862079e+00
  1.702843e+00    2.804943e+00
  1.718718e+00    2.764403e+00
  1.734594e+00    2.816196e+00
  1.750469e+00    2.671939e+00
  1.766345e+00    2.696532e+00
  1.782221e+00    2.629477e+00
  1.798096e+00    2.728463e+00
  1.813972e+00    2.788242e+00
  1.829847e+00    2.618342e+00
  1.845723e+00    2.719785e+00
  1.861598e+00    2.705790e+00
  1.877474e+00    2.738603e+00
  1.893350e+00    2.761009e+00
  1.909225e+00    2.715955e+00
  1.925101e+00    2.712096e+00
  1.940976e+00    2.709236e+00
  1.956852e+00    2.806266e+00
  1.972727e+00    2.805173e+00
  1.988603e+00    2.746491e+00
  2.004479e+00    2.646975e+00
  2.020354e+00    2.745737e+00
  2.036230e+00    2.632464e+00
  2.052105e+00    2.610128e+00
  2.067981e+00    2.753736e+00
  2.083856e+00    2.748070e+00
  2.099732e+00    2.710219e+00
  2.115608e+00    2.751391e+00
  2.131483e+00    2.756812e+00
  2.147359e+00    2.751638e+00
  2.163234e+00    2.716900e+00
  2.179110e+00    2.726836e+00
  2.194985e+00    2.743618e+00
  2.210861e+00    2.746951e+00
  2.226737e+00    2.792339e+00
  2.242612e+00    2.719473e+00
  2.258488e+00    2.705756e+00
  2.274363e+00    2.678867e+00
  2.290239e+00    2.693086e+00
  2.306115e+00    2.691673e+00
  2.321990e+00    2.740288e+00
  2.337866e+00    2.694706e+00
  2.353741e+00    2.732443e+00
  2.369617e+00    2.703219e+00
  2.385492e+00    2.789508e+00
  2.401368e+00    2.768099e+00
  2.417244e+00    2.647999e+00
  2.433119e+00    2.730959e+00
  2.448995e+00    2.771048e+00
  2.464870e+00    2.745078e+00
  2.480746e+00    2.716786e+00
  2.496621e+00    2.642292e+00
  2.512497e+00    2.665518e+00
  2.528373e+00    2.795366e+00
  2.544248e+00    2.742547e+00
  2.560124e+00    2.721720e+00
  2.575999e+00    2.762378e+00
  2.591875e+00    2.898453e+00
  2.607750e+00    2.823466e+00
  2.623626e+00    2.765045e+00
  2.639502e+00    2.778564e+00
  2.655377e+00    2.787367e+00
  2.671253e+00    2.813478e+00
  2.687128e+00    2.809091e+00
  2.703004e+00    2.777462e+00
  2.718879e+00    2.866092e+00
  2.734755e+00    2.810924e+00
  2.750631e+00    2.753158e+00
  2.766506e+00    2.717141e+00
  2.782382e+00    2.731059e+00
  2.798257e+00    2.859581e+00
  2.814133e+00    2.939101e+00
  2.830008e+00    2.907100e+00
  2.845884e+00    2.875235e+00
  2.861760e+00    2.856542e+00
  2.877635e+00    2.877857e+00
  2.893511e+00    2.822457e+00
  2.909386e+00    2.859035e+00
  2.925262e+00    2.905054e+00
  2.941137e+00    2.943254e+00
  2.957013e+00    2.874052e+00
  2.972889e+00    2.771819e+00
  2.988764e+00    2.768833e+00
  3.004640e+00    2.832472e+00
  3.020515e+00    2.783971e+00
  3.036391e+00    2.841514e+00
  3.052266e+00    3.004925e+00
  3.068142e+00    2.918455e+00
  3.084018e+00    2.868338e+00
  3.099893e+00    2.817032e+00
  3.115769e+00    2.845484e+00
  3.131644e+00    2.800497e+00
  3.147520e+00    2.796850e+00
  3.163395e+00    2.864245e+00
  3.179271e+00    2.816851e+00
  3.195147e+00    2.854457e+00
  3.211022e+00    2.938970e+00
  3.226898e+00    2.922929e+00
  3.242773e+00    2.924348e+00
  3.258649e+00    2.894822e+00
  3.274525e+00    2.990288e+00
  3.290400e+00    2.970490e+00
  3.306276e+00    2.832016e+00
  3.322151e+00    2.828485e+00
  3.338027e+00    2.847887e+00
  3.353902e+00    2.853314e+00
  3.369778e+00    2.821760e+00
  3.385654e+00    2.930556e+00
  3.401529e+00    2.913675e+00
  3.417405e+00    2.897108e+00
  3.433280e+00    2.984459e+00
  3.449156e+00    2.960751e+00
  3.465031e+00    2.909272e+00
  3.480907e+00    2.878190e+00
  3.496783e+00    2.927187e+00
  3.512658e+00    2.962325e+00
  3.528534e+00    2.938611e+00
  3.544409e+00    2.924293e+00
  3.560285e+00    3.004382e+00
  3.576160e+00    2.984377e+00
  3.592036e+00    2.874623e+00
  3.607912e+00    2.845953e+00
  3.623787e+00    2.859451e+00
  3.639663e+00    2.912179e+00
  3.655538e+00    2.925562e+00
  3.671414e+00    2.912884e+00
  3.687289e+00    2.962558e+00
  3.703165e+00    2.969931e+00
  3.719041e+00    2.987395e+00
  3.734916e+00    2.958303e+00
  3.750792e+00    3.014461e+00
  3.766667e+00    2.953221e+00
  3.782543e+00    2.885493e+00
  3.798418e+00    2.947081e+00
  3.814294e+00    2.943714e+00
  3.830170e+00    2.920704e+00
  3.846045e+00    2.949459e+00
  3.861921e+00    2.964207e+00
  3.877796e+00    2.958197e+00
  3.893672e+00    2.956642e+00
  3.909547e+00    2.998578e+00
  3.925423e+00    2.990691e+00
  3.941299e+00    3.003170e+00
  3.957174e+00    3.026191e+00
  3.973050e+00    3.070485e+00
  3.988925e+00    3.016248e+00
  4.004801e+00    3.004110e+00
  4.020676e+00    2.977912e+00
  4.036552e+00    2.935278e+00
  4.052428e+00    2.988861e+00
  4.068303e+00    2.984809e+00
  4.084179e+00    2.999856e+00
  4.100054e+00    3.033117e+00
  4.115930e+00    2.968405e+00
  4.131806e+00    2.899217e+00
  4.147681e+00    3.016261e+00
  4.163557e+00    3.044839e+00
  4.179432e+00    2.948185e+00
  4.195308e+00    2.969229e+00
  4.211183e+00    2.976568e+00
  4.227059e+00    3.018539e+00
  4.242935e+00    3.008365e+00
  4.258810e+00    2.988219e+00
  4.274686e+00    2.973397e+00
  4.290561e+00    2.982090e+00
  4.306437e+00    3.008447e+00
  4.322312e+00    3.026756e+00
  4.338188e+00    3.053590e+00
  4.354064e+00    3.063296e+00
  4.369939e+00    3.069146e+00
  4.385815e+00    2.993536e+00
  4.401690e+00    3.001470e+00
  4.417566e+00    2.996593e+00
  4.433441e+00    3.062311e+00
  4.449317e+00    3.086899e+00
  4.465193e+00    3.057631e+00
  4.481068e+00    3.128925e+00
  4.496944e+00    3.051693e+00
  4.512819e+00    3.013661e+00
  4.528695e+00    3.023808e+00
  4.544570e+00    3.059783e+00
  4.560446e+00    2.980929e+00
  4.576322e+00    2.968439e+00
  4.592197e+00    2.994763e+00
  4.608073e+00    2.970330e+00
  4.623948e+00    3.076203e+00
  4.639824e+00    3.166691e+00
  4.655699e+00    3.153484e+00
  4.671575e+00    3.114438e+00
  4.687451e+00    3.026808e+00
  4.703326e+00    3.059684e+00
  4.719202e+00    3.122910e+00
  4.735077e+00    3.278974e+00
  4.750953e+00    3.213403e+00
  4.766828e+00    3.118611e+00
  4.782704e+00    3.130591e+00
  4.798580e+00    3.051593e+00
  4.814455e+00    3.035687e+00
  4.830331e+00    3.085794e+00
  4.846206e+00    3.036524e+00
  4.862082e+00    3.072928e+00
  4.877957e+00    3.153666e+00
  4.893833e+00    3.141733e+00
  4.909709e+00    3.123313e+00
  4.925584e+00    3.147020e+00
  4.941460e+00    3.189000e+00
  4.957335e+00    3.125421e+00
  4.973211e+00    3.109552e+00
  4.989086e+00    3.149105e+00
  5.004962e+00    3.141097e+00
  5.020838e+00    3.109532e+00
  5.036713e+00    3.084596e+00
  5.052589e+00    3.149602e+00
  5.068464e+00    3.117352e+00
  5.084340e+00    3.113375e+00
  5.100216e+00    3.084188e+00
  5.116091e+00    3.066677e+00
  5.131967e+00    3.133452e+00
  5.147842e+00    3.105686e+00
  5.163718e+00    3.075987e+00
  5.179593e+00    3.154705e+00
  5.195469e+00    3.155576e+00
  5.211345e+00    3.169629e+00
  5.227220e+00    3.089761e+00
  5.243096e+00    3.109605e+00
  5.258971e+00    3.149050e+00
  5.274847e+00    3.056305e+00
  5.290722e+00    3.012928e+00
  5.306598e+00    3.138496e+00
  5.322474e+00    3.206285e+00
  5.338349e+00    3.105652e+00
  5.354225e+00    3.094568e+00
  5.370100e+00    3.069896e+00
  5.385976e+00    3.129625e+00
  5.401851e+00    3.107378e+00
  5.417727e+00    3.064044e+00
  5.433603e+00    2.999986e+00
  5.449478e+00    2.964054e+00
  5.465354e+00    3.012242e+00
  5.481229e+00    3.060239e+00
  5.497105e+00    3.089590e+00
  5.512980e+00    3.048860e+00
  5.528856e+00    3.084795e+00
  5.544732e+00    3.061936e+00
  5.560607e+00    3.102987e+00
  5.576483e+00    3.042531e+00
  5.592358e+00    3.018416e+00
  5.608234e+00    3.014495e+00
  5.624109e+00    2.980446e+00
  5.639985e+00    3.019580e+00
  5.655861e+00    3.035186e+00
  5.671736e+00    3.151053e+00
  5.687612e+00    3.120839e+00
  5.703487e+00    3.004469e+00
  5.719363e+00    2.995132e+00
  5.735238e+00    2.968082e+00
  5.751114e+00    3.013253e+00
  5.766990e+00    3.037125e+00
  5.782865e+00    3.024652e+00
  5.798741e+00    2.966287e+00
  5.814616e+00    3.024566e+00
  5.830492e+00    3.091192e+00
  5.846367e+00    3.094571e+00
  5.862243e+00    3.039258e+00
  5.878119e+00    2.992180e+00
  5.893994e+00    2.967758e+00
  5.909870e+00    2.900211e+00
  5.925745e+00    2.855793e+00
  5.941621e+00    2.919527e+00
  5.957497e+00    2.999790e+00
  5.973372e+00    3.002008e+00
  5.989248e+00    2.976324e+00
  6.005123e+00    3.020604e+00
  6.020999e+00    2.957861e+00
  6.036874e+00    2.944890e+00
  6.052750e+00    2.971314e+00
  6.068626e+00    2.959326e+00
  6.084501e+00    3.016325e+00
  6.100377e+00    3.087217e+00
  6.116252e+00    3.078767e+00
  6.132128e+00    3.027416e+00
  6.148003e+00    2.994937e+00
  6.163879e+00    3.039128e+00
  6.179755e+00    2.962954e+00
  6.195630e+00    3.063791e+00
  6.211506e+00    3.087986e+00
  6.227381e+00    3.057808e+00
  6.243257e+00    3.059535e+00
  6.259132e+00    3.036094e+00
  6.275008e+00    2.917722e+00
  6.290884e+00    2.929731e+00
  6.306759e+00    2.947711e+00
  6.322635e+00    2.983178e+00
  6.338510e+00    3.076969e+00
  6.354386e+00    3.018917e+00
  6.370261e+00    3.035933e+00
  6.386137e+00    3.014728e+00
  6.402013e+00    2.970663e+00
  6.417888e+00    3.048356e+00
  6.433764e+00    3.063000e+00
  6.449639e+00    3.006179e+00
  6.465515e+00    2.976384e+00
  6.481390e+00    2.952089e+00
  6.497266e+00    2.993328e+00
  6.513142e+00    2.991783e+00
  6.529017e+00    2.985487e+00
  6.544893e+00    2.983502e+00
  6.560768e+00    2.980124e+00
  6.576644e+00    3.043477e+00
  6.592519e+00    2.985115e+00
  6.608395e+00    3.020566e+00
  6.624271e+00    3.018313e+00
  6.640146e+00    3.015419e+00
  6.656022e+00    3.019630e+00
  6.671897e+00    2.979504e+00
  6.687773e+00    2.974522e+00
  6.703648e+00    3.026316e+00
  6.719524e+00    2.983576e+00
  6.735400e+00    2.927476e+00
  6.751275e+00    3.008623e+00
  6.767151e+00    3.038785e+00
  6.783026e+00    2.975508e+00
  6.798902e+00    2.989908e+00
  6.814777e+00    3.017281e+00
  6.830653e+00    2.988163e+00
  6.846529e+00    2.955935e+00
  6.862404e+00    2.975989e+00
  6.878280e+00    3.003548e+00
  6.894155e+00    2.958830e+00
  6.910031e+00    3.001614e+00
  6.925907e+00    3.009138e+00
  6.941782e+00    3.052517e+00
  6.957658e+00    3.070949e+00
  6.973533e+00    3.017370e+00
  6.989409e+00    2.944328e+00
  7.005284e+00    2.879930e+00
  7.021160e+00    2.970543e+00
  7.037036e+00    3.124828e+00
  7.052911e+00    3.053652e+00
  7.068787e+00    3.042715e+00
  7.084662e+00    2.989650e+00
  7.100538e+00    2.991269e+00
  7.116413e+00    2.966041e+00
  7.132289e+00    2.927778e+00
  7.148165e+00    2.939477e+00
  7.164040e+00    2.993873e+00
  7.179916e+00    3.025672e+00
  7.195791e+00    3.041743e+00
  7.211667e+00    3.038833e+00
  7.227542e+00    3.009425e+00
  7.243418e+00    2.967483e+00
  7.259294e+00    2.960106e+00
  7.275169e+00    2.950054e+00
  7.291045e+00    2.921842e+00
  7.306920e+00    2.931393e+00
  7.322796e+00    2.928813e+00
  7.338671e+00    2.893510e+00
  7.354547e+00    2.945805e+00
  7.370423e+00    3.015341e+00
  7.386298e+00    2.991888e+00
  7.402174e+00    2.918926e+00
  7.418049e+00    2.917678e+00
  7.433925e+00    3.009764e+00
  7.449800e+00    3.007014e+00
  7.465676e+00    2.983790e+00
  7.481552e+00    2.953879e+00
  7.497427e+00    2.974300e+00
  7.513303e+00    2.918986e+00
  7.529178e+00    2.887916e+00
  7.545054e+00    2.929515e+00
  7.560929e+00    3.004954e+00
  7.576805e+00    2.989161e+00
  7.592681e+00    3.006815e+00
  7.608556e+00    3.019060e+00
  7.624432e+00    2.988807e+00
  7.640307e+00    2.968603e+00
  7.656183e+00    2.959844e+00
  7.672058e+00    2.972397e+00
  7.687934e+00    2.965579e+00
  7.703810e+00    2.963179e+00
  7.719685e+00    2.906914e+00
  7.735561e+00    2.939864e+00
  7.751436e+00    2.863630e+00
  7.767312e+00    2.910391e+00
  7.783187e+00    2.979542e+00
  7.799063e+00    2.953217e+00
  7.814939e+00    2.925912e+00
  7.830814e+00    2.919115e+00
  7.846690e+00    2.935732e+00
  7.862565e+00    2.863290e+00
  7.878441e+00    2.911669e+00
  7.894317e+00    2.915999e+00
  7.910192e+00    2.875008e+00
  7.926068e+00    2.924729e+00
  7.941943e+00    2.980975e+00
  7.957819e+00    2.909194e+00
  7.973694e+00    2.871539e+00
  7.989570e+00    2.884313e+00
  8.005446e+00    2.906317e+00
  8.021321e+00    2.841319e+00
  8.037197e+00    2.845080e+00
  8.053072e+00    2.973791e+00
  8.068948e+00    2.958439e+00
  8.084823e+00    2.931103e+00
  8.100699e+00    2.884456e+00
  8.116575e+00    2.854180e+00
  8.132450e+00    2.874782e+00
  8.148326e+00    2.976449e+00
  8.164201e+00    2.978928e+00
  8.180077e+00    2.973438e+00
  8.195952e+00    2.913747e+00
  8.211828e+00    2.915505e+00
  8.227704e+00    2.959384e+00
  8.243579e+00    2.932437e+00
  8.259455e+00    2.912612e+00
  8.275330e+00    2.907130e+00
  8.291206e+00    2.858723e+00
  8.307081e+00    2.930573e+00
  8.322957e+00    2.887009e+00
  8.338833e+00    2.832695e+00
  8.354708e+00    2.863371e+00
  8.370584e+00    2.861158e+00
  8.386459e+00    2.884375e+00
  8.402335e+00    2.831603e+00
  8.418210e+00    2.896633e+00
  8.434086e+00    2.927811e+00
  8.449962e+00    2.866889e+00
  8.465837e+00    2.827764e+00
  8.481713e+00    2.831052e+00
  8.497588e+00    2.878575e+00
  8.513464e+00    2.843248e+00
  8.529339e+00    2.823406e+00
  8.545215e+00    2.806784e+00
  8.561091e+00    2.831038e+00
  8.576966e+00    2.844923e+00
  8.592842e+00    2.856299e+00
  8.608717e+00    2.912885e+00
  8.624593e+00    2.838732e+00
  8.640468e+00    2.808275e+00
  8.656344e+00    2.848776e+00
  8.672220e+00    2.839496e+00
  8.688095e+00    2.811654e+00
  8.703971e+00    2.871059e+00
  8.719846e+00    2.856851e+00
  8.735722e+00    2.827980e+00
  8.751598e+00    2.819598e+00
  8.767473e+00    2.815817e+00
  8.783349e+00    2.837457e+00
  8.799224e+00    2.821901e+00
  8.815100e+00    2.791278e+00
  8.830975e+00    2.796113e+00
  8.846851e+00    2.812529e+00
  8.862727e+00    2.783001e+00
  8.878602e+00    2.789683e+00
  8.894478e+00    2.853086e+00
  8.910353e+00    2.843648e+00
  8.926229e+00    2.869468e+00
  8.942104e+00    2.836166e+00
  8.957980e+00    2.820188e+00
  8.973856e+00    2.782393e+00
  8.989731e+00    2.828906e+00
  9.005607e+00    2.817235e+00
  9.021482e+00    2.785107e+00
  9.037358e+00    2.762801e+00
  9.053233e+00    2.737191e+00
  9.069109e+00    2.809651e+00
  9.084985e+00    2.791652e+00
  9.100860e+00    2.743987e+00
  9.116736e+00    2.776567e+00
  9.132611e+00    2.812816e+00
  9.148487e+00    2.843444e+00
  9.164362e+00    2.794687e+00
  9.180238e+00    2.769004e+00
  9.196114e+00    2.801545e+00
  9.211989e+00    2.785987e+00
  9.227865e+00    2.727509e+00
  9.243740e+00    2.702970e+00
  9.259616e+00    2.754594e+00
  9.275491e+00    2.756130e+00
  9.291367e+00    2.765291e+00
  9.307243e+00    2.769978e+00
  9.323118e+00    2.772539e+00
  9.338994e+00    2.748480e+00
  9.354869e+00    2.737218e+00
  9.370745e+00    2.755501e+00
  9.386620e+00    2.731676e+00
  9.402496e+00    2.741715e+00
  9.418372e+00    2.785177e+00
  9.434247e+00    2.791673e+00
  9.450123e+00    2.829462e+00
  9.465998e+00    2.748304e+00
  9.481874e+00    2.750585e+00
  9.497749e+00    2.739394e+00
  9.513625e+00    2.737502e+00
  9.529501e+00    2.758645e+00
  9.545376e+00    2.688468e+00
  9.561252e+00    2.730149e+00
  9.577127e+00    2.729857e+00
  9.593003e+00    2.744614e+00
  9.608878e+00    2.758959e+00
  9.624754e+00    2.736353e+00
  9.640630e+00    2.684862e+00
  9.656505e+00    2.722399e+00
  9.672381e+00    2.724517e+00
  9.688256e+00    2.719609e+00
  9.704132e+00    2.695433e+00
  9.720008e+00    2.717709e+00
  9.735883e+00    2.685246e+00
  9.751759e+00    2.719372e+00
  9.767634e+00    2.714359e+00
  9.783510e+00    2.684126e+00
  9.799385e+00    2.674510e+00
  9.815261e+00    2.645333e+00
  9.831137e+00    2.650853e+00
  9.847012e+00    2.641059e+00
  9.862888e+00    2.718769e+00
  9.878763e+00    2.671814e+00
  9.894639e+00    2.633644e+00
  9.910514e+00    2.602197e+00
  9.926390e+00    2.640489e+00
  9.942266e+00    2.649014e+00
  9.958141e+00    2.620678e+00
  9.974017e+00    2.626347e+00
  9.989892e+00    2.643277e+00
  1.000577e+01    2.639303e+00
  1.002164e+01    2.678123e+00
  1.003752e+01    2.657887e+00
  1.005339e+01    2.650594e+00
  1.006927e+01    2.635728e+00
  1.008515e+01    2.615181e+00
  1.010102e+01    2.674136e+00
  1.011690e+01    2.699271e+00
  1.013277e+01    2.690732e+00
  1.014865e+01    2.582952e+00
  1.016452e+01    2.531614e+00
  1.018040e+01    2.574407e+00
  1.019627e+01    2.635680e+00
  1.021215e+01    2.649662e+00
  1.022803e+01    2.650393e+00
  1.024390e+01    2.652585e+00
  1.025978e+01    2.681198e+00
  1.027565e+01    2.626549e+00
  1.029153e+01    2.628268e+00
  1.030740e+01    2.649439e+00
  1.032328e+01    2.597629e+00
  1.033915e+01    2.544291e+00
  1.035503e+01    2.609233e+00
  1.037091e+01    2.592693e+00
  1.038678e+01    2.548244e+00
  1.040266e+01    2.579164e+00
  1.041853e+01    2.589928e+00
  1.043441e+01    2.604553e+00
  1.045028e+01    2.611631e+00
  1.046616e+01    2.605975e+00
  1.048204e+01    2.593273e+00
  1.049791e+01    2.575383e+00
  1.051379e+01    2.581275e+00
  1.052966e+01    2.561533e+00
  1.054554e+01    2.544806e+00
  1.056141e+01    2.488594e+00
  1.057729e+01    2.533998e+00
  1.059316e+01    2.549108e+00
  1.060904e+01    2.518965e+00
  1.062492e+01    2.502918e+00
  1.064079e+01    2.555424e+00
  1.065667e+01    2.609874e+00
  1.067254e+01    2.593118e+00
  1.068842e+01    2.548797e+00
  1.070429e+01    2.476110e+00
  1.072017e+01    2.510444e+00
  1.073604e+01    2.539838e+00
  1.075192e+01    2.519134e+00
  1.076780e+01    2.541211e+00
  1.078367e+01    2.527508e+00
  1.079955e+01    2.477373e+00
  1.081542e+01    2.484836e+00
  1.083130e+01    2.519258e+00
  1.084717e+01    2.532048e+00
  1.086305e+01    2.491247e+00
  1.087892e+01    2.527359e+00
  1.089480e+01    2.570735e+00
  1.091068e+01    2.463823e+00
  1.092655e+01    2.490487e+00
  1.094243e+01    2.465691e+00
  1.095830e+01    2.454416e+00
  1.097418e+01    2.499336e+00
  1.099005e+01    2.524434e+00
  1.100593e+01    2.473341e+00
  1.102180e+01    2.481004e+00
  1.103768e+01    2.418218e+00
  1.105356e+01    2.411687e+00
  1.106943e+01    2.450788e+00
  1.108531e+01    2.467177e+00
  1.110118e+01    2.408867e+00
  1.111706e+01    2.477704e+00
  1.113293e+01    2.470245e+00
  1.114881e+01    2.437920e+00
  1.116468e+01    2.469020e+00
  1.118056e+01    2.461119e+00
  1.119644e+01    2.435254e+00
  1.121231e+01    2.444808e+00
  1.122819e+01    2.454885e+00
  1.124406e+01    2.455958e+00
  1.125994e+01    2.432060e+00
  1.127581e+01    2.467729e+00
  1.129169e+01    2.455212e+00
  1.130756e+01    2.394223e+00
  1.132344e+01    2.433327e+00
  1.133932e+01    2.412825e+00
  1.135519e+01    2.396206e+00
  1.137107e+01    2.411272e+00
  1.138694e+01    2.370001e+00
  1.140282e+01    2.364197e+00
  1.141869e+01    2.387436e+00
  1.143457e+01    2.417832e+00
  1.145045e+01    2.410624e+00
  1.146632e+01    2.396989e+00
  1.148220e+01    2.352453e+00
  1.149807e+01    2.373304e+00
  1.151395e+01    2.382353e+00
  1.152982e+01    2.386921e+00
  1.154570e+01    2.410440e+00
  1.156157e+01    2.402741e+00
  1.157745e+01    2.374368e+00
  1.159333e+01    2.375278e+00
  1.160920e+01    2.411918e+00
  1.162508e+01    2.380903e+00
  1.164095e+01    2.394112e+00
  1.165683e+01    2.381016e+00
  1.167270e+01    2.380803e+00
  1.168858e+01    2.390421e+00
  1.170445e+01    2.352413e+00
  1.172033e+01    2.319224e+00
  1.173621e+01    2.321276e+00
  1.175208e+01    2.342033e+00
  1.176796e+01    2.370173e+00
  1.178383e+01    2.340309e+00
  1.179971e+01    2.323377e+00
  1.181558e+01    2.319901e+00
  1.183146e+01    2.327476e+00
  1.184733e+01    2.295334e+00
  1.186321e+01    2.317398e+00
  1.187909e+01    2.321372e+00
  1.189496e+01    2.340895e+00
  1.191084e+01    2.326164e+00
  1.192671e+01    2.280991e+00
  1.194259e+01    2.303256e+00
  1.195846e+01    2.372565e+00
  1.197434e+01    2.345519e+00
  1.199021e+01    2.340671e+00
  1.200609e+01    2.351838e+00
  1.202197e+01    2.304332e+00
  1.203784e+01    2.294830e+00
  1.205372e+01    2.330459e+00
  1.206959e+01    2.323610e+00
  1.208547e+01    2.294007e+00
  1.210134e+01    2.292515e+00
  1.211722e+01    2.285054e+00
  1.213309e+01    2.292962e+00
  1.214897e+01    2.310378e+00
  1.216485e+01    2.296219e+00
  1.218072e+01    2.292207e+00
  1.219660e+01    2.314816e+00
  1.221247e+01    2.313555e+00
  1.222835e+01    2.310096e+00
  1.224422e+01    2.319848e+00
  1.226010e+01    2.289449e+00
  1.227597e+01    2.265726e+00
  1.229185e+01    2.278349e+00
  1.230773e+01    2.341373e+00
  1.232360e+01    2.336617e+00
  1.233948e+01    2.314840e+00
  1.235535e+01    2.284244e+00
  1.237123e+01    2.271828e+00
  1.238710e+01    2.240294e+00
  1.240298e+01    2.286856e+00
  1.241886e+01    2.329127e+00
  1.243473e+01    2.319361e+00
  1.245061e+01    2.308097e+00
  1.246648e+01    2.329057e+00
  1.248236e+01    2.320746e+00
  1.249823e+01    2.323596e+00
  1.251411e+01    2.325300e+00
  1.252998e+01    2.351186e+00
  1.254586e+01    2.349582e+00
  1.256174e+01    2.360327e+00
  1.257761e+01    2.373678e+00
  1.259349e+01    2.344371e+00
  1.260936e+01    2.360805e+00
  1.262524e+01    2.378095e+00
  1.264111e+01    2.371570e+00
  1.265699e+01    2.394827e+00
  1.267286e+01    2.440309e+00
  1.268874e+01    2.428373e+00
  1.270462e+01    2.468678e+00
  1.272049e+01    2.521306e+00
  1.273637e+01    2.505414e+00
  1.275224e+01    2.496129e+00
  1.276812e+01    2.530156e+00
  1.278399e+01    2.582474e+00
  1.279987e+01    2.648774e+00
  1.281574e+01    2.732778e+00
  1.283162e+01    2.742667e+00
  1.284750e+01    2.833326e+00
  1.286337e+01    2.903588e+00
  1.287925e+01    3.025941e+00
  1.289512e+01    3.097491e+00
  1.291100e+01    3.293532e+00
  1.292687e+01    3.526070e+00
  1.294275e+01    3.756823e+00
  1.295862e+01    3.986502e+00
  1.297450e+01    4.397337e+00
  1.299038e+01    4.885440e+00
  1.300625e+01    5.440260e+00
  1.302213e+01    6.131668e+00
  1.303800e+01    7.062168e+00
  1.305388e+01    8.255469e+00
  1.306975e+01    9.532343e+00
  1.308563e+01    1.088487e+01
  1.310150e+01    1.223989e+01
  1.311738e+01    1.349727e+01
  1.313326e+01    1.460007e+01
  1.314913e+01    1.571226e+01
  1.316501e+01    1.672939e+01
  1.318088e+01    1.710135e+01
  1.319676e+01    1.675423e+01
  1.321263e+01    1.557928e+01
  1.322851e+01    1.379251e+01
  1.324438e+01    1.183867e+01
  1.326026e+01    9.787560e+00
  1.327614e+01    8.312088e+00
  1.329201e+01    7.055739e+00
  1.330789e+01    6.080252e+00
  1.332376e+01    5.383212e+00
  1.333964e+01    4.793549e+00
  1.335551e+01    4.312360e+00
  1.337139e+01    3.945671e+00
  1.338727e+01    3.675277e+00
  1.340314e+01    3.413853e+00
  1.341902e+01    3.266660e+00
  1.343489e+01    3.116226e+00
  1.345077e+01    2.963680e+00
  1.346664e+01    2.860308e+00
  1.348252e+01    2.772951e+00
  1.349839e+01    2.676775e+00
  1.351427e+01    2.598982e+00
  1.353015e+01    2.584936e+00
  1.354602e+01    2.555660e+00
  1.356190e+01    2.482080e+00
  1.357777e+01    2.415836e+00
  1.359365e+01    2.375515e+00
  1.360952e+01    2.405754e+00
  1.362540e+01    2.378047e+00
  1.364127e+01    2.316668e+00
  1.365715e+01    2.304823e+00
  1.367303e+01    2.286644e+00
  1.368890e+01    2.288563e+00
  1.370478e+01    2.259456e+00
  1.372065e+01    2.219642e+00
  1.373653e+01    2.199088e+00
  1.375240e+01    2.193242e+00
  1.376828e+01    2.138884e+00
  1.378415e+01    2.131340e+00
  1.380003e+01    2.111087e+00
  1.381591e+01    2.139741e+00
  1.383178e+01    2.161005e+00
  1.384766e+01    2.172166e+00
  1.386353e+01    2.107791e+00
  1.387941e+01    2.118047e+00
  1.389528e+01    2.092629e+00
  1.391116e+01    2.095551e+00
  1.392703e+01    2.069221e+00
  1.394291e+01    2.026337e+00
  1.395879e+01    2.037146e+00
  1.397466e+01    2.065754e+00
  1.399054e+01    2.055425e+00
  1.400641e+01    2.048129e+00
  1.402229e+01    2.007222e+00
  1.403816e+01    2.021655e+00
  1.405404e+01    1.997312e+00
  1.406991e+01    2.003522e+00
  1.408579e+01    2.023882e+00
  1.410167e+01    2.021694e+00
  1.411754e+01    1.973205e+00
  1.413342e+01    1.938439e+00
  1.414929e+01    1.978575e+00
  1.416517e+01    1.990025e+00
  1.418104e+01    1.962500e+00
  1.419692e+01    1.958767e+00
  1.421279e+01    2.003472e+00
  1.422867e+01    1.988366e+00
  1.424455e+01    1.954846e+00
  1.426042e+01    1.963052e+00
  1.427630e+01    1.975143e+00
  1.429217e+01    1.955101e+00
  1.430805e+01    1.940914e+00
  1.432392e+01    1.905379e+00
  1.433980e+01    1.942136e+00
  1.435568e+01    1.953235e+00
  1.437155e+01    1.934023e+00
  1.438743e+01    1.883954e+00
  1.440330e+01    1.895494e+00
  1.441918e+01    1.903922e+00
  1.443505e+01    1.899610e+00
  1.445093e+01    1.908331e+00
  1.446680e+01    1.935814e+00
  1.448268e+01    1.942706e+00
  1.449856e+01    1.944969e+00
  1.451443e+01    1.931686e+00
  1.453031e+01    1.932852e+00
  1.454618e+01    1.912811e+00
  1.456206e+01    1.882460e+00
  1.457793e+01    1.909175e+00
  1.459381e+01    1.895527e+00
  1.460968e+01    1.898478e+00
  1.462556e+01    1.925369e+00
  1.464144e+01    1.897952e+00
  1.465731e+01    1.873528e+00
  1.467319e+01    1.900561e+00
  1.468906e+01    1.911271e+00
  1.470494e+01    1.883779e+00
  1.472081e+01    1.882260e+00
  1.473669e+01    1.862520e+00
  1.475256e+01    1.901914e+00
  1.476844e+01    1.912738e+00
  1.478432e+01    1.920143e+00
  1.480019e+01    1.901308e+00
  1.481607e+01    1.883715e+00
  1.483194e+01    1.877683e+00
  1.484782e+01    1.932546e+00
  1.486369e+01    1.966087e+00
  1.487957e+01    1.919809e+00
  1.489544e+01    1.918335e+00
  1.491132e+01    1.965087e+00
  1.492720e+01    1.957563e+00
  1.494307e+01    1.973350e+00
  1.495895e+01    2.014454e+00
  1.497482e+01    2.049124e+00
  1.499070e+01    2.128183e+00
  1.500657e+01    2.191499e+00
  1.502245e+01    2.244467e+00
  1.503832e+01    2.335967e+00
  1.505420e+01    2.409724e+00
  1.507008e+01    2.530977e+00
  1.508595e+01    2.711559e+00
  1.510183e+01    2.835277e+00
  1.511770e+01    3.089877e+00
  1.513358e+01    3.422447e+00
  1.514945e+01    3.821071e+00
  1.516533e+01    4.163321e+00
  1.518120e+01    4.567814e+00
  1.519708e+01    4.935275e+00
  1.521296e+01    5.222415e+00
  1.522883e+01    5.484173e+00
  1.524471e+01    5.695702e+00
  1.526058e+01    5.841363e+00
  1.527646e+01    5.895657e+00
  1.529233e+01    5.646174e+00
  1.530821e+01    5.304752e+00
  1.532409e+01    4.856457e+00
  1.533996e+01    4.255395e+00
  1.535584e+01    3.771764e+00
  1.537171e+01    3.411835e+00
  1.538759e+01    3.087064e+00
  1.540346e+01    2.810420e+00
  1.541934e+01    2.554176e+00
  1.543521e+01    2.421939e+00
  1.545109e+01    2.331358e+00
  1.546697e+01    2.255912e+00
  1.548284e+01    2.143957e+00
  1.549872e+01    2.063847e+00
  1.551459e+01    2.016265e+00
  1.553047e+01    1.933939e+00
  1.554634e+01    1.908076e+00
  1.556222e+01    1.898350e+00
  1.557809e+01    1.900988e+00
  1.559397e+01    1.890222e+00
  1.560985e+01    1.849165e+00
  1.562572e+01    1.797495e+00
  1.564160e+01    1.776618e+00
  1.565747e+01    1.772373e+00
  1.567335e+01    1.771938e+00
  1.568922e+01    1.742504e+00
  1.570510e+01    1.733821e+00
  1.572097e+01    1.725570e+00
  1.573685e+01    1.732801e+00
  1.575273e+01    1.698767e+00
  1.576860e+01    1.676043e+00
  1.578448e+01    1.671809e+00
  1.580035e+01    1.638255e+00
  1.581623e+01    1.641010e+00
  1.583210e+01    1.655367e+00
  1.584798e+01    1.648794e+00
  1.586385e+01    1.658578e+00
  1.587973e+01    1.629978e+00
  1.589561e+01    1.631208e+00
  1.591148e+01    1.647035e+00
  1.592736e+01    1.629490e+00
  1.594323e+01    1.617257e+00
  1.595911e+01    1.619638e+00
  1.597498e+01    1.601605e+00
  1.599086e+01    1.605967e+00
  1.600673e+01    1.591135e+00
  1.602261e+01    1.587330e+00
  1.603849e+01    1.594895e+00
  1.605436e+01    1.601554e+00
  1.607024e+01    1.602272e+00
  1.608611e+01    1.572311e+00
  1.610199e+01    1.590484e+00
  1.611786e+01    1.612401e+00
  1.613374e+01    1.595334e+00
  1.614961e+01    1.592480e+00
  1.616549e+01    1.558300e+00
  1.618137e+01    1.563665e+00
  1.619724e+01    1.560746e+00
  1.621312e+01    1.557826e+00
  1.622899e+01    1.581035e+00
  1.624487e+01    1.545286e+00
  1.626074e+01    1.497593e+00
  1.627662e+01    1.521120e+00
  1.629250e+01    1.557013e+00
  1.630837e+01    1.581009e+00
  1.632425e+01    1.538059e+00
  1.634012e+01    1.519858e+00
  1.635600e+01    1.490720e+00
  1.637187e+01    1.491740e+00
  1.638775e+01    1.514446e+00
  1.640362e+01    1.526405e+00
  1.641950e+01    1.543350e+00
  1.643538e+01    1.532747e+00
  1.645125e+01    1.553897e+00
  1.646713e+01    1.518319e+00
  1.648300e+01    1.510552e+00
  1.649888e+01    1.505599e+00
  1.651475e+01    1.501166e+00
  1.653063e+01    1.503397e+00
  1.654650e+01    1.511609e+00
  1.656238e+01    1.491141e+00
  1.657826e+01    1.485882e+00
  1.659413e+01    1.482204e+00
  1.661001e+01    1.475191e+00
  1.662588e+01    1.479609e+00
  1.664176e+01    1.490312e+00
  1.665763e+01    1.497697e+00
  1.667351e+01    1.485043e+00
  1.668938e+01    1.491891e+00
  1.670526e+01    1.478009e+00
  1.672114e+01    1.473269e+00
  1.673701e+01    1.467715e+00
  1.675289e+01    1.475847e+00
  1.676876e+01    1.439843e+00
  1.678464e+01    1.458542e+00
  1.680051e+01    1.474466e+00
  1.681639e+01    1.466888e+00
  1.683226e+01    1.483756e+00
  1.684814e+01    1.442829e+00
  1.686402e+01    1.432031e+00
  1.687989e+01    1.450123e+00
  1.689577e+01    1.458095e+00
  1.691164e+01    1.463151e+00
  1.692752e+01    1.448223e+00
  1.694339e+01    1.409404e+00
  1.695927e+01    1.423648e+00
  1.697514e+01    1.474456e+00
  1.699102e+01    1.464439e+00
  1.700690e+01    1.419869e+00
  1.702277e+01    1.446561e+00
  1.703865e+01    1.432068e+00
  1.705452e+01    1.441401e+00
  1.707040e+01    1.407561e+00
  1.708627e+01    1.393936e+00
  1.710215e+01    1.401438e+00
  1.711802e+01    1.403638e+00
  1.713390e+01    1.394243e+00
  1.714978e+01    1.386180e+00
  1.716565e+01    1.389961e+00
  1.718153e+01    1.436965e+00
  1.719740e+01    1.422062e+00
  1.721328e+01    1.374811e+00
  1.722915e+01    1.382781e+00
  1.724503e+01    1.387237e+00
  1.726091e+01    1.378030e+00
  1.727678e+01    1.388098e+00
  1.729266e+01    1.414159e+00
  1.730853e+01    1.398512e+00
  1.732441e+01    1.381790e+00
  1.734028e+01    1.387393e+00
  1.735616e+01    1.378266e+00
  1.737203e+01    1.357646e+00
  1.738791e+01    1.363590e+00
  1.740379e+01    1.367742e+00
  1.741966e+01    1.379682e+00
  1.743554e+01    1.369122e+00
  1.745141e+01    1.360379e+00
  1.746729e+01    1.372438e+00
  1.748316e+01    1.372528e+00
  1.749904e+01    1.334748e+00
  1.751491e+01    1.354972e+00
  1.753079e+01    1.358996e+00
  1.754667e+01    1.336552e+00
  1.756254e+01    1.334619e+00
  1.757842e+01    1.352152e+00
  1.759429e+01    1.338869e+00
  1.761017e+01    1.350444e+00
  1.762604e+01    1.355449e+00
  1.764192e+01    1.336892e+00
  1.765779e+01    1.343264e+00
  1.767367e+01    1.311291e+00
  1.768955e+01    1.292525e+00
  1.770542e+01    1.342425e+00
  1.772130e+01    1.349553e+00
  1.773717e+01    1.317628e+00
  1.775305e+01    1.331903e+00
  1.776892e+01    1.319904e+00
  1.778480e+01    1.362017e+00
  1.780067e+01    1.365878e+00
  1.781655e+01    1.327355e+00
  1.783243e+01    1.324372e+00
  1.784830e+01    1.316959e+00
  1.786418e+01    1.301565e+00
  1.788005e+01    1.295902e+00
  1.789593e+01    1.294613e+00
  1.791180e+01    1.292594e+00
  1.792768e+01    1.300947e+00
  1.794355e+01    1.281426e+00
  1.795943e+01    1.286395e+00
  1.797531e+01    1.313724e+00
  1.799118e+01    1.301744e+00
  1.800706e+01    1.298575e+00
  1.802293e+01    1.285587e+00
  1.803881e+01    1.287434e+00
  1.805468e+01    1.272803e+00
  1.807056e+01    1.276228e+00
  1.808643e+01    1.298463e+00
  1.810231e+01    1.285916e+00
  1.811819e+01    1.306856e+00
  1.813406e+01    1.317501e+00
  1.814994e+01    1.294728e+00
  1.816581e+01    1.266491e+00
  1.818169e+01    1.271794e+00
  1.819756e+01    1.292842e+00
  1.821344e+01    1.267357e+00
  1.822932e+01    1.264491e+00
  1.824519e+01    1.292479e+00
  1.826107e+01    1.283136e+00
  1.827694e+01    1.275644e+00
  1.829282e+01    1.287108e+00
  1.830869e+01    1.265824e+00
  1.832457e+01    1.259257e+00
  1.834044e+01    1.251160e+00
  1.835632e+01    1.270753e+00
  1.837220e+01    1.268969e+00
  1.838807e+01    1.262992e+00
  1.840395e+01    1.255155e+00
  1.841982e+01    1.267067e+00
  1.843570e+01    1.259282e+00
  1.845157e+01    1.227911e+00
  1.846745e+01    1.240660e+00
  1.848332e+01    1.254868e+00
  1.849920e+01    1.237885e+00
  1.851508e+01    1.243799e+00
  1.853095e+01    1.215941e+00
  1.854683e+01    1.228147e+00
  1.856270e+01    1.253714e+00
  1.857858e+01    1.242395e+00
  1.859445e+01    1.224981e+00
  1.861033e+01    1.211146e+00
  1.862620e+01    1.236072e+00
  1.864208e+01    1.233613e+00
  1.865796e+01    1.240567e+00
  1.867383e+01    1.218759e+00
  1.868971e+01    1.179075e+00
  1.870558e+01    1.189615e+00
  1.872146e+01    1.208105e+00
  1.873733e+01    1.208784e+00
  1.875321e+01    1.191614e+00
  1.876908e+01    1.204258e+00
  1.878496e+01    1.189274e+00
  1.880084e+01    1.194905e+00
  1.881671e+01    1.208655e+00
  1.883259e+01    1.209918e+00
  1.884846e+01    1.217599e+00
  1.886434e+01    1.216821e+00
  1.888021e+01    1.206975e+00
  1.889609e+01    1.212124e+00
  1.891196e+01    1.192367e+00
  1.892784e+01    1.204692e+00
  1.894372e+01    1.229878e+00
  1.895959e+01    1.217528e+00
  1.897547e+01    1.199715e+00
  1.899134e+01    1.192138e+00
  1.900722e+01    1.181539e+00
  1.902309e+01    1.189193e+00
  1.903897e+01    1.187868e+00
  1.905484e+01    1.180179e+00
  1.907072e+01    1.190319e+00
  1.908660e+01    1.199549e+00
  1.910247e+01    1.172029e+00
  1.911835e+01    1.171880e+00
  1.913422e+01    1.196186e+00
  1.915010e+01    1.183364e+00
  1.916597e+01    1.188329e+00
  1.918185e+01    1.185551e+00
  1.919773e+01    1.156532e+00
  1.921360e+01    1.179372e+00
  1.922948e+01    1.178809e+00
  1.924535e+01    1.200753e+00
  1.926123e+01    1.175729e+00
  1.927710e+01    1.148195e+00
  1.929298e+01    1.166996e+00
  1.930885e+01    1.173202e+00
  1.932473e+01    1.153639e+00
  1.934061e+01    1.168265e+00
  1.935648e+01    1.171985e+00
  1.937236e+01    1.152031e+00
  1.938823e+01    1.154757e+00
  1.940411e+01    1.164530e+00
  1.941998e+01    1.144926e+00
  1.943586e+01    1.138534e+00
  1.945173e+01    1.129404e+00
  1.946761e+01    1.139451e+00
  1.948349e+01    1.158106e+00
  1.949936e+01    1.175603e+00
  1.951524e+01    1.161069e+00
  1.953111e+01    1.147497e+00
  1.954699e+01    1.145952e+00
  1.956286e+01    1.156182e+00
  1.957874e+01    1.157218e+00
  1.959461e+01    1.127021e+00
  1.961049e+01    1.156398e+00
  1.962637e+01    1.145598e+00
  1.964224e+01    1.147298e+00
  1.965812e+01    1.143007e+00
  1.967399e+01    1.115343e+00
  1.968987e+01    1.103567e+00
  1.970574e+01    1.112345e+00
  1.972162e+01    1.124772e+00
  1.973749e+01    1.136028e+00
  1.975337e+01    1.112689e+00
  1.976925e+01    1.114997e+00
  1.978512e+01    1.141008e+00
  1.980100e+01    1.140687e+00
  1.981687e+01    1.128764e+00
  1.983275e+01    1.112365e+00
  1.984862e+01    1.123621e+00
  1.986450e+01    1.130234e+00
  1.988037e+01    1.148544e+00
  1.989625e+01    1.132749e+00
  1.991213e+01    1.110813e+00
  1.992800e+01    1.114508e+00
  1.994388e+01    1.128201e+00
  1.995975e+01    1.114688e+00
  1.997563e+01    1.102985e+00
  1.999150e+01    1.109339e+00
  2.000738e+01    1.122401e+00
  2.002325e+01    1.117149e+00
  2.003913e+01    1.092035e+00
  2.005501e+01    1.093078e+00
  2.007088e+01    1.088918e+00
  2.008676e+01    1.109626e+00
  2.010263e+01    1.107722e+00
  2.011851e+01    1.112148e+00
  2.013438e+01    1.082528e+00
  2.015026e+01    1.094281e+00
  2.016614e+01    1.092941e+00
  2.018201e+01    1.095255e+00
  2.019789e+01    1.115438e+00
  2.021376e+01    1.095055e+00
  2.022964e+01    1.090982e+00
  2.024551e+01    1.070483e+00
  2.026139e+01    1.085276e+00
  2.027726e+01    1.078186e+00
  2.029314e+01    1.094695e+00
  2.030902e+01    1.100964e+00
  2.032489e+01    1.086247e+00
  2.034077e+01    1.071307e+00
  2.035664e+01    1.072091e+00
  2.037252e+01    1.071580e+00
  2.038839e+01    1.077809e+00
  2.040427e+01    1.084410e+00
  2.042014e+01    1.076217e+00
  2.043602e+01    1.083773e+00
  2.045190e+01    1.076123e+00
  2.046777e+01    1.084011e+00
  2.048365e+01    1.076183e+00
  2.049952e+01    1.084317e+00
  2.051540e+01    1.089668e+00
  2.053127e+01    1.093677e+00
  2.054715e+01    1.088305e+00
  2.056302e+01    1.069732e+00
  2.057890e+01    1.065935e+00
  2.059478e+01    1.060276e+00
  2.061065e+01    1.057657e+00
  2.062653e+01    1.057387e+00
  2.064240e+01    1.081592e+00
  2.065828e+01    1.074231e+00
  2.067415e+01    1.079636e+00
  2.069003e+01    1.063801e+00
  2.070590e+01    1.066131e+00
  2.072178e+01    1.075961e+00
  2.073766e+01    1.065164e+00
  2.075353e+01    1.064602e+00
  2.076941e+01    1.072688e+00
  2.078528e+01    1.056754e+00
  2.080116e+01    1.075749e+00
  2.081703e+01    1.059093e+00
  2.083291e+01    1.070462e+00
  2.084878e+01    1.085653e+00
  2.086466e+01    1.076647e+00
  2.088054e+01    1.077376e+00
  2.089641e+01    1.074093e+00
  2.091229e+01    1.059739e+00
  2.092816e+01    1.074824e+00
  2.094404e+01    1.051792e+00
  2.095991e+01    1.081994e+00
  2.097579e+01    1.081288e+00
  2.099166e+01    1.051067e+00
  2.100754e+01    1.073360e+00
  2.102342e+01    1.089445e+00
  2.103929e+01    1.073514e+00
  2.105517e+01    1.050319e+00
  2.107104e+01    1.068050e+00
  2.108692e+01    1.080535e+00
  2.110279e+01    1.067368e+00
  2.111867e+01    1.097013e+00
  2.113455e+01    1.097830e+00
  2.115042e+01    1.092203e+00
  2.116630e+01    1.087682e+00
  2.118217e+01    1.094256e+00
  2.119805e+01    1.074818e+00
  2.121392e+01    1.096829e+00
  2.122980e+01    1.106957e+00
  2.124567e+01    1.096711e+00
  2.126155e+01    1.093781e+00
  2.127743e+01    1.100356e+00
  2.129330e+01    1.110759e+00
  2.130918e+01    1.114807e+00
  2.132505e+01    1.123803e+00
  2.134093e+01    1.132437e+00
  2.135680e+01    1.143016e+00
  2.137268e+01    1.147552e+00
  2.138855e+01    1.163216e+00
  2.140443e+01    1.181520e+00
  2.142031e+01    1.172020e+00
  2.143618e+01    1.198612e+00
  2.145206e+01    1.226756e+00
  2.146793e+01    1.226256e+00
  2.148381e+01    1.239882e+00
  2.149968e+01    1.267077e+00
  2.151556e+01    1.293597e+00
  2.153143e+01    1.325094e+00
  2.154731e+01    1.351954e+00
  2.156319e+01    1.403649e+00
  2.157906e+01    1.486296e+00
  2.159494e+01    1.520745e+00
  2.161081e+01    1.591893e+00
  2.162669e+01    1.705127e+00
  2.164256e+01    1.799844e+00
  2.165844e+01    1.922437e+00
  2.167431e+01    2.110616e+00
  2.169019e+01    2.298512e+00
  2.170607e+01    2.560169e+00
  2.172194e+01    2.877629e+00
  2.173782e+01    3.291645e+00
  2.175369e+01    3.705594e+00
  2.176957e+01    4.271862e+00
  2.178544e+01    4.867609e+00
  2.180132e+01    5.476126e+00
  2.181719e+01    6.206909e+00
  2.183307e+01    6.929718e+00
  2.184895e+01    7.650960e+00
  2.186482e+01    8.394783e+00
  2.188070e+01    8.967455e+00
  2.189657e+01    9.306065e+00
  2.191245e+01    9.299853e+00
  2.192832e+01    8.990716e+00
  2.194420e+01    8.269198e+00
  2.196007e+01    7.232457e+00
  2.197595e+01    6.221077e+00
  2.199183e+01    5.298394e+00
  2.200770e+01    4.475097e+00
  2.202358e+01    3.864807e+00
  2.203945e+01    3.345297e+00
  2.205533e+01    2.936079e+00
  2.207120e+01    2.606457e+00
  2.208708e+01    2.344098e+00
  2.210296e+01    2.142151e+00
  2.211883e+01    1.959543e+00
  2.213471e+01    1.806058e+00
  2.215058e+01    1.677361e+00
  2.216646e+01    1.607967e+00
  2.218233e+01    1.515334e+00
  2.219821e+01    1.433959e+00
  2.221408e+01    1.399238e+00
  2.222996e+01    1.335847e+00
  2.224584e+01    1.284731e+00
  2.226171e+01    1.264557e+00
  2.227759e+01    1.237474e+00
  2.229346e+01    1.199670e+00
  2.230934e+01    1.187784e+00
  2.232521e+01    1.171274e+00
  2.234109e+01    1.152002e+00
  2.235696e+01    1.134990e+00
  2.237284e+01    1.109744e+00
  2.238872e+01    1.096466e+00
  2.240459e+01    1.079855e+00
  2.242047e+01    1.055630e+00
  2.243634e+01    1.056636e+00
  2.245222e+01    1.065097e+00
  2.246809e+01    1.029776e+00
  2.248397e+01    1.004983e+00
  2.249984e+01    1.025835e+00
  2.251572e+01    1.030056e+00
  2.253160e+01    1.005313e+00
  2.254747e+01    9.810244e-01
  2.256335e+01    9.887301e-01
  2.257922e+01    9.990091e-01
  2.259510e+01    1.014477e+00
  2.261097e+01    9.932398e-01
  2.262685e+01    9.381923e-01
  2.264272e+01    9.566671e-01
  2.265860e+01    9.700373e-01
  2.267448e+01    9.783568e-01
  2.269035e+01    9.617088e-01
  2.270623e+01    9.481905e-01
  2.272210e+01    9.440812e-01
  2.273798e+01    9.336128e-01
  2.275385e+01    9.332886e-01
  2.276973e+01    9.362084e-01
  2.278560e+01    9.400318e-01
  2.280148e+01    9.194789e-01
  2.281736e+01    9.327146e-01
  2.283323e+01    9.248174e-01
  2.284911e+01    9.100479e-01
  2.286498e+01    8.855673e-01
  2.288086e+01    9.215193e-01
  2.289673e+01    9.269496e-01
  2.291261e+01    9.241837e-01
  2.292848e+01    8.920957e-01
  2.294436e+01    8.930777e-01
  2.296024e+01    8.823825e-01
  2.297611e+01    8.744411e-01
  2.299199e+01    8.811972e-01
  2.300786e+01    9.032677e-01
  2.302374e+01    8.949573e-01
  2.303961e+01    8.973424e-01
  2.305549e+01    9.003779e-01
  2.307137e+01    8.768684e-01
  2.308724e+01    8.683479e-01
  2.310312e+01    8.698689e-01
  2.311899e+01    8.748072e-01
  2.313487e+01    8.675902e-01
  2.315074e+01    8.676687e-01
  2.316662e+01    8.635840e-01
  2.318249e+01    8.697510e-01
  2.319837e+01    8.678228e-01
  2.321425e+01    8.786510e-01
  2.323012e+01    8.760491e-01
  2.324600e+01    8.546757e-01
  2.326187e+01    8.547258e-01
  2.327775e+01    8.488299e-01
  2.329362e+01    8.445733e-01
  2.330950e+01    8.538688e-01
  2.332537e+01    8.436655e-01
  2.334125e+01    8.457037e-01
  2.335713e+01    8.461455e-01
  2.337300e+01    8.694699e-01
  2.338888e+01    8.529624e-01
  2.340475e+01    8.546215e-01
  2.342063e+01    8.413785e-01
  2.343650e+01    8.483604e-01
  2.345238e+01    8.466727e-01
  2.346825e+01    8.519534e-01
  2.348413e+01    8.469426e-01
  2.350001e+01    8.416637e-01
  2.351588e+01    8.373435e-01
  2.353176e+01    8.125442e-01
  2.354763e+01    8.396712e-01
  2.356351e+01    8.590785e-01
  2.357938e+01    8.322081e-01
  2.359526e+01    8.364760e-01
  2.361113e+01    8.463919e-01
  2.362701e+01    8.548499e-01
  2.364289e+01    8.535226e-01
  2.365876e+01    8.281742e-01
  2.367464e+01    8.348354e-01
  2.369051e+01    8.209932e-01
  2.370639e+01    7.955279e-01
  2.372226e+01    8.185304e-01
  2.373814e+01    8.259851e-01
  2.375401e+01    8.441543e-01
  2.376989e+01    8.237794e-01
  2.378577e+01    8.095043e-01
  2.380164e+01    8.224082e-01
  2.381752e+01    8.004025e-01
  2.383339e+01    7.860525e-01
  2.384927e+01    7.905630e-01
  2.386514e+01    8.082269e-01
  2.388102e+01    7.930208e-01
  2.389689e+01    7.733598e-01
  2.391277e+01    7.749566e-01
  2.392865e+01    7.988559e-01
  2.394452e+01    8.044237e-01
  2.396040e+01    8.087945e-01
  2.397627e+01    7.920296e-01
  2.399215e+01    7.994335e-01
  2.400802e+01    8.135879e-01
  2.402390e+01    7.856287e-01
  2.403978e+01    7.855656e-01
  2.405565e+01    7.919509e-01
  2.407153e+01    7.922005e-01
  2.408740e+01    7.900497e-01
  2.410328e+01    7.956106e-01
  2.411915e+01    7.689534e-01
  2.413503e+01    7.540056e-01
  2.415090e+01    7.829384e-01
  2.416678e+01    7.882686e-01
  2.418266e+01    7.614003e-01
  2.419853e+01    7.548146e-01
  2.421441e+01    7.725435e-01
  2.423028e+01    7.602496e-01
  2.424616e+01    7.639531e-01
  2.426203e+01    7.904019e-01
  2.427791e+01    8.139150e-01
  2.429378e+01    7.987960e-01
  2.430966e+01    7.726837e-01
  2.432554e+01    7.820606e-01
  2.434141e+01    7.872062e-01
  2.435729e+01    7.975632e-01
  2.437316e+01    8.033094e-01
  2.438904e+01    8.004642e-01
  2.440491e+01    7.884281e-01
  2.442079e+01    7.896625e-01
  2.443666e+01    7.775248e-01
  2.445254e+01    7.614828e-01
  2.446842e+01    7.719250e-01
  2.448429e+01    7.805973e-01
  2.450017e+01    7.768751e-01
  2.451604e+01    7.916921e-01
  2.453192e+01    7.953101e-01
  2.454779e+01    7.927932e-01
  2.456367e+01    7.849895e-01
  2.457954e+01    7.952555e-01
  2.459542e+01    7.818457e-01
  2.461130e+01    7.770667e-01
  2.462717e+01    7.790962e-01
  2.464305e+01    7.841812e-01
  2.465892e+01    7.930652e-01
  2.467480e+01    7.777093e-01
  2.469067e+01    7.657090e-01
  2.470655e+01    8.034167e-01
  2.472242e+01    8.105981e-01
  2.473830e+01    8.072485e-01
  2.475418e+01    7.856110e-01
  2.477005e+01    7.996393e-01
  2.478593e+01    8.134706e-01
  2.480180e+01    7.980383e-01
  2.481768e+01    7.725089e-01
  2.483355e+01    7.781333e-01
  2.484943e+01    7.872568e-01
  2.486530e+01    7.986025e-01
  2.488118e+01    8.090880e-01
  2.489706e+01    8.186479e-01
  2.491293e+01    7.918084e-01
  2.492881e+01    7.879831e-01
  2.494468e+01    7.969162e-01
  2.496056e+01    7.959535e-01
  2.497643e+01    8.025331e-01
  2.499231e+01    7.985114e-01
  2.500819e+01    7.806762e-01
  2.502406e+01    7.946751e-01
  2.503994e+01    8.099320e-01
  2.505581e+01    7.959117e-01
  2.507169e+01    7.989977e-01
  2.508756e+01    8.076904e-01
  2.510344e+01    8.051979e-01
  2.511931e+01    8.071355e-01
  2.513519e+01    8.066107e-01
  2.515107e+01    7.960722e-01
  2.516694e+01    8.282996e-01
  2.518282e+01    8.380296e-01
  2.519869e+01    8.263460e-01
  2.521457e+01    8.157743e-01
  2.523044e+01    8.247010e-01
  2.524632e+01    8.664026e-01
  2.526219e+01    8.521708e-01
  2.527807e+01    8.416674e-01
  2.529395e+01    8.616015e-01
  2.530982e+01    8.477844e-01
  2.532570e+01    8.639411e-01
  2.534157e+01    8.726461e-01
  2.535745e+01    8.885661e-01
  2.537332e+01    8.777432e-01
  2.538920e+01    8.857768e-01
  2.540507e+01    8.996550e-01
  2.542095e+01    9.125324e-01
  2.543683e+01    9.230654e-01
  2.545270e+01    9.120459e-01
  2.546858e+01    9.324356e-01
  2.548445e+01    9.673775e-01
  2.550033e+01    9.733988e-01
  2.551620e+01    9.789916e-01
  2.553208e+01    1.008099e+00
  2.554795e+01    1.041465e+00
  2.556383e+01    1.059884e+00
  2.557971e+01    1.062569e+00
  2.559558e+01    1.066561e+00
  2.561146e+01    1.128259e+00
  2.562733e+01    1.150342e+00
  2.564321e+01    1.191746e+00
  2.565908e+01    1.247679e+00
  2.567496e+01    1.330594e+00
  2.569083e+01    1.414123e+00
  2.570671e+01    1.503042e+00
  2.572259e+01    1.586605e+00
  2.573846e+01    1.719176e+00
  2.575434e+01    1.862571e+00
  2.577021e+01    2.057666e+00
  2.578609e+01    2.303290e+00
  2.580196e+01    2.586873e+00
  2.581784e+01    2.970622e+00
  2.583371e+01    3.372021e+00
  2.584959e+01    3.862089e+00
  2.586547e+01    4.406100e+00
  2.588134e+01    5.049370e+00
  2.589722e+01    5.721200e+00
  2.591309e+01    6.315519e+00
  2.592897e+01    6.879437e+00
  2.594484e+01    7.364522e+00
  2.596072e+01    7.616127e+00
  2.597660e+01    7.661719e+00
  2.599247e+01    7.466655e+00
  2.600835e+01    6.850294e+00
  2.602422e+01    6.106380e+00
  2.604010e+01    5.381269e+00
  2.605597e+01    4.586536e+00
  2.607185e+01    3.932038e+00
  2.608772e+01    3.340408e+00
  2.610360e+01    2.902388e+00
  2.611948e+01    2.557146e+00
  2.613535e+01    2.267239e+00
  2.615123e+01    2.056356e+00
  2.616710e+01    1.890945e+00
  2.618298e+01    1.725638e+00
  2.619885e+01    1.586105e+00
  2.621473e+01    1.461851e+00
  2.623060e+01    1.373815e+00
  2.624648e+01    1.299406e+00
  2.626236e+01    1.261539e+00
  2.627823e+01    1.220811e+00
  2.629411e+01    1.164952e+00
  2.630998e+01    1.113189e+00
  2.632586e+01    1.107019e+00
  2.634173e+01    1.090519e+00
  2.635761e+01    1.045459e+00
  2.637348e+01    1.008828e+00
  2.638936e+01    1.001444e+00
  2.640524e+01    9.790313e-01
  2.642111e+01    9.572861e-01
  2.643699e+01    9.620327e-01
  2.645286e+01    9.493290e-01
  2.646874e+01    9.278618e-01
  2.648461e+01    9.364923e-01
  2.650049e+01    9.219972e-01
  2.651636e+01    9.200870e-01
  2.653224e+01    9.101431e-01
  2.654812e+01    9.076486e-01
  2.656399e+01    8.960820e-01
  2.657987e+01    8.943888e-01
  2.659574e+01    9.122587e-01
  2.661162e+01    9.183576e-01
  2.662749e+01    8.863174e-01
  2.664337e+01    8.755771e-01
  2.665924e+01    8.893260e-01
  2.667512e+01    8.919871e-01
  2.669100e+01    9.118546e-01
  2.670687e+01    8.962087e-01
  2.672275e+01    8.665780e-01
  2.673862e+01    8.918440e-01
  2.675450e+01    8.906168e-01
  2.677037e+01    8.958737e-01
  2.678625e+01    8.841491e-01
  2.680212e+01    8.872964e-01
  2.681800e+01    8.712962e-01
  2.683388e+01    8.823203e-01
  2.684975e+01    9.065282e-01
  2.686563e+01    9.096311e-01
  2.688150e+01    8.989955e-01
  2.689738e+01    9.162177e-01
  2.691325e+01    9.271511e-01
  2.692913e+01    9.417961e-01
  2.694501e+01    9.390717e-01
  2.696088e+01    9.531801e-01
  2.697676e+01    9.938986e-01
  2.699263e+01    9.957691e-01
  2.700851e+01    1.012944e+00
  2.702438e+01    1.037340e+00
  2.704026e+01    1.086260e+00
  2.705613e+01    1.158744e+00
  2.707201e+01    1.223815e+00
  2.708789e+01    1.296964e+00
  2.710376e+01    1.370528e+00
  2.711964e+01    1.493324e+00
  2.713551e+01    1.638445e+00
  2.715139e+01    1.764168e+00
  2.716726e+01    1.916089e+00
  2.718314e+01    2.062663e+00
  2.719901e+01    2.153659e+00
  2.721489e+01    2.241945e+00
  2.723077e+01    2.255235e+00
  2.724664e+01    2.244855e+00
  2.726252e+01    2.134970e+00
  2.727839e+01    1.978149e+00
  2.729427e+01    1.817985e+00
  2.731014e+01    1.633243e+00
  2.732602e+01    1.515454e+00
  2.734189e+01    1.415775e+00
  2.735777e+01    1.281821e+00
  2.737365e+01    1.185634e+00
  2.738952e+01    1.142406e+00
  2.740540e+01    1.103251e+00
  2.742127e+01    1.049708e+00
  2.743715e+01    1.008827e+00
  2.745302e+01    9.749302e-01
  2.746890e+01    9.506828e-01
  2.748477e+01    9.500939e-01
  2.750065e+01    9.311245e-01
  2.751653e+01    9.055001e-01
  2.753240e+01    8.750026e-01
  2.754828e+01    8.692555e-01
  2.756415e+01    8.732633e-01
  2.758003e+01    8.852669e-01
  2.759590e+01    8.768466e-01
  2.761178e+01    8.644983e-01
  2.762765e+01    8.514217e-01
  2.764353e+01    8.424384e-01
  2.765941e+01    8.274023e-01
  2.767528e+01    8.272073e-01
  2.769116e+01    8.325387e-01
  2.770703e+01    8.291851e-01
  2.772291e+01    8.299496e-01
  2.773878e+01    8.305121e-01
  2.775466e+01    7.984837e-01
  2.777054e+01    7.872553e-01
  2.778641e+01    8.139396e-01
  2.780229e+01    8.126974e-01
  2.781816e+01    8.019262e-01
  2.783404e+01    8.000011e-01
  2.784991e+01    7.767407e-01
  2.786579e+01    7.707901e-01
  2.788166e+01    7.938730e-01
  2.789754e+01    8.134993e-01
  2.791342e+01    7.756384e-01
  2.792929e+01    7.995465e-01
  2.794517e+01    7.835718e-01
  2.796104e+01    8.010302e-01
  2.797692e+01    7.945053e-01
  2.799279e+01    7.841735e-01
  2.800867e+01    7.930454e-01
  2.802454e+01    7.822406e-01
  2.804042e+01    7.740955e-01
  2.805630e+01    7.592791e-01
  2.807217e+01    7.877780e-01
  2.808805e+01    7.864782e-01
  2.810392e+01    7.592765e-01
  2.811980e+01    7.619451e-01
  2.813567e+01    7.706822e-01
  2.815155e+01    7.581297e-01
  2.816742e+01    7.564242e-01
  2.818330e+01    7.855690e-01
  2.819918e+01    7.660086e-01
  2.821505e+01    7.751608e-01
  2.823093e+01    7.527835e-01
  2.824680e+01    7.416019e-01
  2.826268e+01    7.519689e-01
  2.827855e+01    7.359445e-01
  2.829443e+01    7.434245e-01
  2.831030e+01    7.746059e-01
  2.832618e+01    7.710441e-01
  2.834206e+01    7.328960e-01
  2.835793e+01    7.484525e-01
  2.837381e+01    7.632958e-01
  2.838968e+01    7.815190e-01
  2.840556e+01    7.762958e-01
  2.842143e+01    7.793366e-01
  2.843731e+01    7.638419e-01
  2.845318e+01    7.471235e-01
  2.846906e+01    7.463387e-01
  2.848494e+01    7.541694e-01
  2.850081e+01    7.492058e-01
  2.851669e+01    7.370770e-01
  2.853256e+01    7.374088e-01
  2.854844e+01    7.433019e-01
  2.856431e+01    7.504543e-01
  2.858019e+01    7.264175e-01
  2.859606e+01    7.542868e-01
  2.861194e+01    7.554349e-01
  2.862782e+01    7.424214e-01
  2.864369e+01    7.436874e-01
  2.865957e+01    7.361174e-01
  2.867544e+01    7.274369e-01
  2.869132e+01    7.368639e-01
  2.870719e+01    7.450518e-01
  2.872307e+01    7.425294e-01
  2.873895e+01    7.479168e-01
  2.875482e+01    7.269976e-01
  2.877070e+01    7.299782e-01
  2.878657e+01    7.537615e-01
  2.880245e+01    7.421381e-01
  2.881832e+01    7.388731e-01
  2.883420e+01    7.503750e-01
  2.885007e+01    7.452955e-01
  2.886595e+01    7.509483e-01
  2.888183e+01    7.511681e-01
  2.889770e+01    7.349146e-01
  2.891358e+01    7.324862e-01
  2.892945e+01    7.287152e-01
  2.894533e+01    7.355406e-01
  2.896120e+01    7.148104e-01
  2.897708e+01    7.361986e-01
  2.899295e+01    7.452177e-01
  2.900883e+01    7.395180e-01
  2.902471e+01    7.202893e-01
  2.904058e+01    7.290222e-01
  2.905646e+01    7.490261e-01
  2.907233e+01    7.351856e-01
  2.908821e+01    7.429118e-01
  2.910408e+01    7.394363e-01
  2.911996e+01    7.203662e-01
  2.913583e+01    7.212313e-01
  2.915171e+01    7.351390e-01
  2.916759e+01    7.552823e-01
  2.918346e+01    7.304591e-01
  2.919934e+01    7.257511e-01
  2.921521e+01    7.312108e-01
  2.923109e+01    7.292475e-01
  2.924696e+01    7.391679e-01
  2.926284e+01    7.329329e-01
  2.927871e+01    7.307729e-01
  2.929459e+01    7.239624e-01
  2.931047e+01    7.184053e-01
  2.932634e+01    7.399713e-01
  2.934222e+01    7.187251e-01
  2.935809e+01    7.213095e-01
  2.937397e+01    7.316784e-01
  2.938984e+01    7.279418e-01
  2.940572e+01    7.406633e-01
  2.942159e+01    7.216176e-01
  2.943747e+01    7.168355e-01
  2.945335e+01    7.353970e-01
  2.946922e+01    7.201951e-01
  2.948510e+01    7.112408e-01
  2.950097e+01    7.348140e-01
  2.951685e+01    7.590872e-01
  2.953272e+01    7.400106e-01
  2.954860e+01    7.160797e-01
  2.956447e+01    7.349807e-01
  2.958035e+01    7.264017e-01
  2.959623e+01    7.170690e-01
  2.961210e+01    7.252870e-01
  2.962798e+01    7.314435e-01
  2.964385e+01    7.167181e-01
  2.965973e+01    7.177573e-01
  2.967560e+01    6.938335e-01
  2.969148e+01    7.032298e-01
  2.970736e+01    7.205104e-01
  2.972323e+01    7.233862e-01
  2.973911e+01    7.278867e-01
  2.975498e+01    7.249829e-01
  2.977086e+01    7.181827e-01
  2.978673e+01    7.426305e-01
  2.980261e+01    7.499476e-01
  2.981848e+01    7.212187e-01
  2.983436e+01    7.178633e-01
  2.985024e+01    7.352814e-01
  2.986611e+01    7.228642e-01
  2.988199e+01    7.291647e-01
  2.989786e+01    7.066901e-01
  2.991374e+01    7.077910e-01
  2.992961e+01    7.122413e-01
  2.994549e+01    7.192916e-01
  2.996136e+01    7.166628e-01
  2.997724e+01    6.945083e-01
  2.999312e+01    7.319624e-01
  3.000899e+01    7.339915e-01
  3.002487e+01    7.263151e-01
  3.004074e+01    7.234671e-01
  3.005662e+01    7.466161e-01
  3.007249e+01    7.283817e-01
  3.008837e+01    7.171765e-01
  3.010424e+01    7.290856e-01
  3.012012e+01    7.115496e-01
  3.013600e+01    6.918949e-01
  3.015187e+01    6.996096e-01
  3.016775e+01    7.250279e-01
  3.018362e+01    7.107868e-01
  3.019950e+01    7.100073e-01
  3.021537e+01    7.205752e-01
  3.023125e+01    7.301933e-01
  3.024712e+01    7.191585e-01
  3.026300e+01    7.025235e-01
  3.027888e+01    7.030643e-01
  3.029475e+01    6.930293e-01
  3.031063e+01    7.070031e-01
  3.032650e+01    7.074105e-01
  3.034238e+01    7.020594e-01
  3.035825e+01    6.865438e-01
  3.037413e+01    6.955266e-01
  3.039000e+01    6.970671e-01
  3.040588e+01    7.107412e-01
  3.042176e+01    7.100282e-01
  3.043763e+01    7.069404e-01
  3.045351e+01    7.061869e-01
  3.046938e+01    7.143593e-01
  3.048526e+01    7.066885e-01
  3.050113e+01    7.023120e-01
  3.051701e+01    7.158554e-01
  3.053288e+01    7.107059e-01
  3.054876e+01    6.924787e-01
  3.056464e+01    6.994767e-01
  3.058051e+01    7.123280e-01
  3.059639e+01    7.157312e-01
  3.061226e+01    6.983383e-01
  3.062814e+01    7.171576e-01
  3.064401e+01    7.256814e-01
  3.065989e+01    7.073116e-01
  3.067577e+01    7.022389e-01
  3.069164e+01    6.967589e-01
  3.070752e+01    7.109311e-01
  3.072339e+01    7.138033e-01
  3.073927e+01    7.154836e-01
  3.075514e+01    6.975959e-01
  3.077102e+01    6.945456e-01
  3.078689e+01    7.054018e-01
  3.080277e+01    7.111242e-01
  3.081865e+01    7.104380e-01
  3.083452e+01    7.018660e-01
  3.085040e+01    7.110466e-01
  3.086627e+01    7.104158e-01
  3.088215e+01    7.163465e-01
  3.089802e+01    7.199444e-01
  3.091390e+01    7.258347e-01
  3.092977e+01    7.210770e-01
  3.094565e+01    7.029950e-01
  3.096153e+01    7.110203e-01
  3.097740e+01    6.899101e-01
  3.099328e+01    7.047488e-01
  3.100915e+01    7.031746e-01
  3.102503e+01    7.278990e-01
  3.104090e+01    7.301081e-01
  3.105678e+01    7.189203e-01
  3.107265e+01    7.114376e-01
  3.108853e+01    7.218299e-01
  3.110441e+01    7.063558e-01
  3.112028e+01    7.203463e-01
  3.113616e+01    7.373743e-01
  3.115203e+01    7.424206e-01
  3.116791e+01    7.456592e-01
  3.118378e+01    7.212843e-01
  3.119966e+01    7.210176e-01
  3.121553e+01    7.114176e-01
  3.123141e+01    7.392494e-01
  3.124729e+01    7.387242e-01
  3.126316e+01    7.129281e-01
  3.127904e+01    7.109459e-01
  3.129491e+01    7.267819e-01
  3.131079e+01    7.223642e-01
  3.132666e+01    7.303705e-01
  3.134254e+01    7.198883e-01
  3.135841e+01    7.155265e-01
  3.137429e+01    7.377392e-01
  3.139017e+01    7.351260e-01
  3.140604e+01    7.269355e-01
  3.142192e+01    7.408091e-01
  3.143779e+01    7.467861e-01
  3.145367e+01    7.680436e-01
  3.146954e+01    7.680668e-01
  3.148542e+01    7.525841e-01
  3.150129e+01    7.512257e-01
  3.151717e+01    7.607454e-01
  3.153305e+01    7.671617e-01
  3.154892e+01    7.945892e-01
  3.156480e+01    7.651526e-01
  3.158067e+01    7.864938e-01
  3.159655e+01    8.390688e-01
  3.161242e+01    8.502548e-01
  3.162830e+01    8.404818e-01
  3.164418e+01    8.495830e-01
  3.166005e+01    8.482249e-01
  3.167593e+01    8.910465e-01
  3.169180e+01    9.217435e-01
  3.170768e+01    9.771160e-01
  3.172355e+01    1.000314e+00
  3.173943e+01    1.014089e+00
  3.175530e+01    1.080747e+00
  3.177118e+01    1.184382e+00
  3.178706e+01    1.260592e+00
  3.180293e+01    1.353582e+00
  3.181881e+01    1.490881e+00
  3.183468e+01    1.666053e+00
  3.185056e+01    1.828640e+00
  3.186643e+01    1.980474e+00
  3.188231e+01    2.105461e+00
  3.189818e+01    2.209931e+00
  3.191406e+01    2.197353e+00
  3.192994e+01    2.235757e+00
  3.194581e+01    2.144306e+00
  3.196169e+01    2.046604e+00
  3.197756e+01    1.893463e+00
  3.199344e+01    1.708318e+00
  3.200931e+01    1.551072e+00
  3.202519e+01    1.404834e+00
  3.204106e+01    1.295279e+00
  3.205694e+01    1.216873e+00
  3.207282e+01    1.115081e+00
  3.208869e+01    1.041421e+00
  3.210457e+01    9.983554e-01
  3.212044e+01    9.636280e-01
  3.213632e+01    8.934840e-01
  3.215219e+01    8.445128e-01
  3.216807e+01    8.592567e-01
  3.218394e+01    8.306708e-01
  3.219982e+01    8.020971e-01
  3.221570e+01    7.910706e-01
  3.223157e+01    7.824345e-01
  3.224745e+01    7.738824e-01
  3.226332e+01    7.834229e-01
  3.227920e+01    7.714042e-01
  3.229507e+01    7.681734e-01
  3.231095e+01    7.571900e-01
  3.232682e+01    7.550682e-01
  3.234270e+01    7.570284e-01
  3.235858e+01    7.398277e-01
  3.237445e+01    7.324861e-01
  3.239033e+01    7.275901e-01
  3.240620e+01    7.349768e-01
  3.242208e+01    7.112027e-01
  3.243795e+01    7.348813e-01
  3.245383e+01    7.423022e-01
  3.246970e+01    7.411647e-01
  3.248558e+01    7.225875e-01
  3.250146e+01    7.336976e-01
  3.251733e+01    7.364776e-01
  3.253321e+01    7.059425e-01
  3.254908e+01    7.058287e-01
