# == pyFAI calibration ==
# Distance Sample to Detector: 0.3999999939076516 m
# PONI: 9.750e-02, 1.135e-01 m
# Rotations: -0.000175 0.000000 -0.000000 rad
# 
# == Fit2d calibration ==
# Distance Sample-beamCenter: 400.000 mm
# Center: x=1514.000, y=1300.000 pix
# Tilt: 0.010 deg  TiltPlanRot: 0.010 deg
# 
# Detector Detector	 Spline= None	 PixelSize= 7.500e-05, 7.500e-05 m
#    Detector has a mask: False 
#    Detector has a dark current: False 
#    detector has a flat field: False 
# 
# Wavelength: 6.888e-11 m
# Mask applied: user provided
# Dark current applied: False
# Flat field applied: False
# Polarization factor: 0.99
# Normalization factor: 1.0
# --> /home/myspot/data/2024_07_Rosario/Ru-CGO-ex/2024-07-27_002_Ru-CGO-ex_Activtation_ramp_000002_data_000154.dat
#       q_nm^-1             I 
  2.003187e-02    2.227120e-02
  3.590745e-02    9.188656e-02
  5.178302e-02    1.910478e-02
  6.765859e-02    1.004003e-02
  8.353417e-02    5.967999e-02
  9.940974e-02    4.926563e-02
  1.152853e-01    1.167954e-01
  1.311609e-01    1.142281e-01
  1.470365e-01    6.391588e-02
  1.629120e-01    1.348814e-02
  1.787876e-01    6.461566e-03
  1.946632e-01    1.920767e-02
  2.105388e-01    9.297045e-03
  2.264143e-01    7.888672e-02
  2.422899e-01    5.875355e-02
  2.581655e-01    4.818288e-02
  2.740411e-01    5.657192e-02
  2.899166e-01    4.061776e-02
  3.057922e-01    6.828135e-02
  3.216678e-01    3.238914e-02
  3.375433e-01    3.634661e-02
  3.534189e-01    4.061915e-02
  3.692945e-01    4.393214e-02
  3.851701e-01    3.045101e-02
  4.010456e-01    4.133193e-02
  4.169212e-01    4.143377e-02
  4.327968e-01    2.210751e-02
  4.486724e-01    3.085352e-02
  4.645479e-01    4.700249e-02
  4.804235e-01    4.824916e-02
  4.962991e-01    7.047389e-02
  5.121747e-01    4.704172e-02
  5.280502e-01    3.264985e-02
  5.439258e-01    2.812228e-02
  5.598014e-01    4.033284e-02
  5.756770e-01    3.458580e-02
  5.915525e-01    5.138957e-02
  6.074281e-01    6.221024e-02
  6.233037e-01    6.106355e-02
  6.391793e-01    5.374304e-02
  6.550548e-01    2.709058e-02
  6.709304e-01    3.141173e-02
  6.868060e-01    1.827431e-02
  7.026815e-01    4.370423e-02
  7.185571e-01    5.033430e-02
  7.344327e-01    3.654326e-02
  7.503083e-01    3.403471e-02
  7.661838e-01    6.537113e-02
  7.820594e-01    9.600445e-02
  7.979350e-01    1.121118e-01
  8.138106e-01    1.798617e-01
  8.296861e-01    2.270042e-01
  8.455617e-01    2.675133e-01
  8.614373e-01    3.469380e-01
  8.773129e-01    4.667619e-01
  8.931884e-01    4.451874e-01
  9.090640e-01    4.743785e-01
  9.249396e-01    5.880547e-01
  9.408152e-01    7.781550e-01
  9.566907e-01    7.858201e-01
  9.725663e-01    9.053499e-01
  9.884419e-01    1.062060e+00
  1.004317e+00    1.068667e+00
  1.020193e+00    1.122795e+00
  1.036069e+00    1.107453e+00
  1.051944e+00    1.249449e+00
  1.067820e+00    1.309346e+00
  1.083695e+00    1.344549e+00
  1.099571e+00    1.461666e+00
  1.115446e+00    1.410099e+00
  1.131322e+00    1.435623e+00
  1.147198e+00    1.534593e+00
  1.163073e+00    1.544439e+00
  1.178949e+00    1.522415e+00
  1.194824e+00    1.634470e+00
  1.210700e+00    1.815396e+00
  1.226575e+00    2.189586e+00
  1.242451e+00    2.296623e+00
  1.258327e+00    2.222586e+00
  1.274202e+00    2.361844e+00
  1.290078e+00    2.531317e+00
  1.305953e+00    2.454325e+00
  1.321829e+00    2.499751e+00
  1.337705e+00    2.566718e+00
  1.353580e+00    2.586318e+00
  1.369456e+00    2.718007e+00
  1.385331e+00    2.733947e+00
  1.401207e+00    2.730470e+00
  1.417082e+00    2.713725e+00
  1.432958e+00    2.708432e+00
  1.448834e+00    2.687142e+00
  1.464709e+00    2.744359e+00
  1.480585e+00    2.638854e+00
  1.496460e+00    2.699521e+00
  1.512336e+00    2.862117e+00
  1.528211e+00    2.849945e+00
  1.544087e+00    2.986523e+00
  1.559963e+00    3.031028e+00
  1.575838e+00    2.986144e+00
  1.591714e+00    2.886333e+00
  1.607589e+00    2.855244e+00
  1.623465e+00    2.761271e+00
  1.639340e+00    2.710209e+00
  1.655216e+00    2.792810e+00
  1.671092e+00    2.848620e+00
  1.686967e+00    2.803442e+00
  1.702843e+00    2.586939e+00
  1.718718e+00    2.603141e+00
  1.734594e+00    2.657142e+00
  1.750469e+00    2.733562e+00
  1.766345e+00    2.699029e+00
  1.782221e+00    2.774074e+00
  1.798096e+00    2.762560e+00
  1.813972e+00    2.801800e+00
  1.829847e+00    2.711868e+00
  1.845723e+00    2.689607e+00
  1.861598e+00    2.740072e+00
  1.877474e+00    2.678757e+00
  1.893350e+00    2.597051e+00
  1.909225e+00    2.557247e+00
  1.925101e+00    2.654082e+00
  1.940976e+00    2.658453e+00
  1.956852e+00    2.717508e+00
  1.972727e+00    2.781544e+00
  1.988603e+00    2.789207e+00
  2.004479e+00    2.759406e+00
  2.020354e+00    2.711943e+00
  2.036230e+00    2.676491e+00
  2.052105e+00    2.782943e+00
  2.067981e+00    2.912719e+00
  2.083856e+00    2.875546e+00
  2.099732e+00    2.833057e+00
  2.115608e+00    2.728678e+00
  2.131483e+00    2.664344e+00
  2.147359e+00    2.636063e+00
  2.163234e+00    2.655678e+00
  2.179110e+00    2.675108e+00
  2.194985e+00    2.707058e+00
  2.210861e+00    2.745575e+00
  2.226737e+00    2.740227e+00
  2.242612e+00    2.726119e+00
  2.258488e+00    2.727055e+00
  2.274363e+00    2.830019e+00
  2.290239e+00    2.881945e+00
  2.306115e+00    2.770355e+00
  2.321990e+00    2.838078e+00
  2.337866e+00    2.787504e+00
  2.353741e+00    2.685318e+00
  2.369617e+00    2.689152e+00
  2.385492e+00    2.693635e+00
  2.401368e+00    2.703620e+00
  2.417244e+00    2.733490e+00
  2.433119e+00    2.795922e+00
  2.448995e+00    2.826289e+00
  2.464870e+00    2.823123e+00
  2.480746e+00    2.682580e+00
  2.496621e+00    2.717539e+00
  2.512497e+00    2.844646e+00
  2.528373e+00    2.935844e+00
  2.544248e+00    2.854967e+00
  2.560124e+00    2.779957e+00
  2.575999e+00    2.759033e+00
  2.591875e+00    2.748052e+00
  2.607750e+00    2.769403e+00
  2.623626e+00    2.811736e+00
  2.639502e+00    2.811499e+00
  2.655377e+00    2.840357e+00
  2.671253e+00    2.904700e+00
  2.687128e+00    2.901270e+00
  2.703004e+00    2.880230e+00
  2.718879e+00    2.803757e+00
  2.734755e+00    2.761020e+00
  2.750631e+00    2.890905e+00
  2.766506e+00    2.905472e+00
  2.782382e+00    2.873629e+00
  2.798257e+00    2.835292e+00
  2.814133e+00    2.803160e+00
  2.830008e+00    2.857736e+00
  2.845884e+00    2.824122e+00
  2.861760e+00    2.926188e+00
  2.877635e+00    2.928493e+00
  2.893511e+00    2.948616e+00
  2.909386e+00    2.861949e+00
  2.925262e+00    2.856133e+00
  2.941137e+00    2.918447e+00
  2.957013e+00    2.875269e+00
  2.972889e+00    2.870980e+00
  2.988764e+00    2.899529e+00
  3.004640e+00    2.898288e+00
  3.020515e+00    2.996846e+00
  3.036391e+00    2.944064e+00
  3.052266e+00    2.927385e+00
  3.068142e+00    2.890323e+00
  3.084018e+00    2.920150e+00
  3.099893e+00    2.924575e+00
  3.115769e+00    2.922875e+00
  3.131644e+00    2.953103e+00
  3.147520e+00    2.929063e+00
  3.163395e+00    2.905249e+00
  3.179271e+00    2.895926e+00
  3.195147e+00    2.937549e+00
  3.211022e+00    2.887678e+00
  3.226898e+00    2.934901e+00
  3.242773e+00    2.912490e+00
  3.258649e+00    2.996317e+00
  3.274525e+00    2.995297e+00
  3.290400e+00    2.958397e+00
  3.306276e+00    3.028663e+00
  3.322151e+00    3.045006e+00
  3.338027e+00    3.023007e+00
  3.353902e+00    2.984338e+00
  3.369778e+00    3.004616e+00
  3.385654e+00    2.999408e+00
  3.401529e+00    2.938941e+00
  3.417405e+00    2.950337e+00
  3.433280e+00    2.994152e+00
  3.449156e+00    3.007532e+00
  3.465031e+00    2.995557e+00
  3.480907e+00    3.039197e+00
  3.496783e+00    2.964790e+00
  3.512658e+00    2.898771e+00
  3.528534e+00    2.900514e+00
  3.544409e+00    3.021589e+00
  3.560285e+00    3.024768e+00
  3.576160e+00    2.965442e+00
  3.592036e+00    2.988439e+00
  3.607912e+00    3.027671e+00
  3.623787e+00    3.020856e+00
  3.639663e+00    2.975552e+00
  3.655538e+00    3.012969e+00
  3.671414e+00    2.963167e+00
  3.687289e+00    2.896091e+00
  3.703165e+00    2.946079e+00
  3.719041e+00    3.021729e+00
  3.734916e+00    3.050717e+00
  3.750792e+00    3.020337e+00
  3.766667e+00    3.026917e+00
  3.782543e+00    3.038188e+00
  3.798418e+00    2.973317e+00
  3.814294e+00    2.980380e+00
  3.830170e+00    3.046268e+00
  3.846045e+00    3.010808e+00
  3.861921e+00    3.061916e+00
  3.877796e+00    3.037688e+00
  3.893672e+00    3.033590e+00
  3.909547e+00    3.046553e+00
  3.925423e+00    3.030302e+00
  3.941299e+00    3.080960e+00
  3.957174e+00    3.078512e+00
  3.973050e+00    3.096729e+00
  3.988925e+00    3.072295e+00
  4.004801e+00    3.028012e+00
  4.020676e+00    3.005934e+00
  4.036552e+00    3.031658e+00
  4.052428e+00    2.983181e+00
  4.068303e+00    3.019468e+00
  4.084179e+00    3.097999e+00
  4.100054e+00    3.052372e+00
  4.115930e+00    2.979721e+00
  4.131806e+00    2.958033e+00
  4.147681e+00    3.072205e+00
  4.163557e+00    3.160984e+00
  4.179432e+00    3.057669e+00
  4.195308e+00    3.057880e+00
  4.211183e+00    3.106536e+00
  4.227059e+00    3.050905e+00
  4.242935e+00    3.101752e+00
  4.258810e+00    3.033950e+00
  4.274686e+00    3.058382e+00
  4.290561e+00    3.148800e+00
  4.306437e+00    3.097559e+00
  4.322312e+00    3.105459e+00
  4.338188e+00    3.094674e+00
  4.354064e+00    3.122154e+00
  4.369939e+00    3.106365e+00
  4.385815e+00    3.043976e+00
  4.401690e+00    3.002827e+00
  4.417566e+00    3.110594e+00
  4.433441e+00    3.106383e+00
  4.449317e+00    3.111039e+00
  4.465193e+00    3.059962e+00
  4.481068e+00    3.106568e+00
  4.496944e+00    3.083114e+00
  4.512819e+00    3.086292e+00
  4.528695e+00    3.065239e+00
  4.544570e+00    3.117527e+00
  4.560446e+00    3.029011e+00
  4.576322e+00    3.040662e+00
  4.592197e+00    3.124253e+00
  4.608073e+00    3.123485e+00
  4.623948e+00    3.077021e+00
  4.639824e+00    3.052884e+00
  4.655699e+00    3.062031e+00
  4.671575e+00    3.054875e+00
  4.687451e+00    3.071378e+00
  4.703326e+00    3.102251e+00
  4.719202e+00    3.163263e+00
  4.735077e+00    3.346318e+00
  4.750953e+00    3.246724e+00
  4.766828e+00    3.130413e+00
  4.782704e+00    3.163553e+00
  4.798580e+00    3.126330e+00
  4.814455e+00    3.130544e+00
  4.830331e+00    3.147272e+00
  4.846206e+00    3.179267e+00
  4.862082e+00    3.145195e+00
  4.877957e+00    3.093254e+00
  4.893833e+00    3.165548e+00
  4.909709e+00    3.136894e+00
  4.925584e+00    3.191927e+00
  4.941460e+00    3.122097e+00
  4.957335e+00    3.108350e+00
  4.973211e+00    3.149361e+00
  4.989086e+00    3.056609e+00
  5.004962e+00    3.151069e+00
  5.020838e+00    3.166806e+00
  5.036713e+00    3.170609e+00
  5.052589e+00    3.237463e+00
  5.068464e+00    3.128185e+00
  5.084340e+00    3.078438e+00
  5.100216e+00    3.091400e+00
  5.116091e+00    3.142415e+00
  5.131967e+00    3.163908e+00
  5.147842e+00    3.156492e+00
  5.163718e+00    3.106170e+00
  5.179593e+00    3.106050e+00
  5.195469e+00    3.194439e+00
  5.211345e+00    3.221801e+00
  5.227220e+00    3.170899e+00
  5.243096e+00    3.110909e+00
  5.258971e+00    3.129656e+00
  5.274847e+00    3.217404e+00
  5.290722e+00    3.257081e+00
  5.306598e+00    3.157842e+00
  5.322474e+00    3.127636e+00
  5.338349e+00    3.114302e+00
  5.354225e+00    3.128360e+00
  5.370100e+00    3.208026e+00
  5.385976e+00    3.170422e+00
  5.401851e+00    3.096399e+00
  5.417727e+00    3.075155e+00
  5.433603e+00    3.191860e+00
  5.449478e+00    3.112519e+00
  5.465354e+00    3.066576e+00
  5.481229e+00    3.118388e+00
  5.497105e+00    3.055721e+00
  5.512980e+00    3.139690e+00
  5.528856e+00    3.104341e+00
  5.544732e+00    3.086819e+00
  5.560607e+00    3.097322e+00
  5.576483e+00    3.085892e+00
  5.592358e+00    3.065856e+00
  5.608234e+00    3.096647e+00
  5.624109e+00    3.070824e+00
  5.639985e+00    3.031055e+00
  5.655861e+00    3.086771e+00
  5.671736e+00    3.093555e+00
  5.687612e+00    3.015158e+00
  5.703487e+00    3.057433e+00
  5.719363e+00    3.140650e+00
  5.735238e+00    3.116644e+00
  5.751114e+00    3.063629e+00
  5.766990e+00    3.038247e+00
  5.782865e+00    3.120024e+00
  5.798741e+00    3.090378e+00
  5.814616e+00    3.110333e+00
  5.830492e+00    3.104796e+00
  5.846367e+00    3.075521e+00
  5.862243e+00    2.985641e+00
  5.878119e+00    3.090025e+00
  5.893994e+00    3.060305e+00
  5.909870e+00    3.089568e+00
  5.925745e+00    3.045937e+00
  5.941621e+00    3.039419e+00
  5.957497e+00    3.005050e+00
  5.973372e+00    3.023707e+00
  5.989248e+00    2.955944e+00
  6.005123e+00    2.948322e+00
  6.020999e+00    2.932985e+00
  6.036874e+00    3.048001e+00
  6.052750e+00    3.107191e+00
  6.068626e+00    3.082320e+00
  6.084501e+00    3.069563e+00
  6.100377e+00    3.034327e+00
  6.116252e+00    3.139450e+00
  6.132128e+00    3.146931e+00
  6.148003e+00    3.102123e+00
  6.163879e+00    3.067733e+00
  6.179755e+00    3.126889e+00
  6.195630e+00    3.128449e+00
  6.211506e+00    3.014629e+00
  6.227381e+00    3.068902e+00
  6.243257e+00    2.999535e+00
  6.259132e+00    3.053515e+00
  6.275008e+00    3.032841e+00
  6.290884e+00    3.001648e+00
  6.306759e+00    2.984970e+00
  6.322635e+00    3.078918e+00
  6.338510e+00    3.145621e+00
  6.354386e+00    3.062922e+00
  6.370261e+00    3.004050e+00
  6.386137e+00    3.060818e+00
  6.402013e+00    3.045209e+00
  6.417888e+00    3.109762e+00
  6.433764e+00    3.124074e+00
  6.449639e+00    3.037165e+00
  6.465515e+00    3.008651e+00
  6.481390e+00    3.016395e+00
  6.497266e+00    3.101954e+00
  6.513142e+00    3.042171e+00
  6.529017e+00    3.110312e+00
  6.544893e+00    3.151834e+00
  6.560768e+00    2.963387e+00
  6.576644e+00    3.011557e+00
  6.592519e+00    3.048232e+00
  6.608395e+00    3.003291e+00
  6.624271e+00    3.036566e+00
  6.640146e+00    3.081257e+00
  6.656022e+00    3.042222e+00
  6.671897e+00    3.048676e+00
  6.687773e+00    3.078041e+00
  6.703648e+00    2.996648e+00
  6.719524e+00    3.062873e+00
  6.735400e+00    3.042537e+00
  6.751275e+00    3.014173e+00
  6.767151e+00    3.011354e+00
  6.783026e+00    3.006578e+00
  6.798902e+00    3.026439e+00
  6.814777e+00    3.044772e+00
  6.830653e+00    3.056934e+00
  6.846529e+00    3.041102e+00
  6.862404e+00    3.051186e+00
  6.878280e+00    3.087516e+00
  6.894155e+00    3.090097e+00
  6.910031e+00    3.038689e+00
  6.925907e+00    3.040342e+00
  6.941782e+00    3.024341e+00
  6.957658e+00    3.090388e+00
  6.973533e+00    3.010929e+00
  6.989409e+00    2.967460e+00
  7.005284e+00    3.018236e+00
  7.021160e+00    3.027703e+00
  7.037036e+00    3.060021e+00
  7.052911e+00    3.026876e+00
  7.068787e+00    3.025883e+00
  7.084662e+00    3.088367e+00
  7.100538e+00    3.099914e+00
  7.116413e+00    3.020829e+00
  7.132289e+00    3.011315e+00
  7.148165e+00    3.001099e+00
  7.164040e+00    2.951691e+00
  7.179916e+00    2.945473e+00
  7.195791e+00    2.978721e+00
  7.211667e+00    3.066371e+00
  7.227542e+00    3.045707e+00
  7.243418e+00    3.044671e+00
  7.259294e+00    3.041938e+00
  7.275169e+00    3.038305e+00
  7.291045e+00    3.057894e+00
  7.306920e+00    3.029328e+00
  7.322796e+00    2.928957e+00
  7.338671e+00    3.020695e+00
  7.354547e+00    3.011535e+00
  7.370423e+00    3.029588e+00
  7.386298e+00    3.080414e+00
  7.402174e+00    3.014576e+00
  7.418049e+00    2.957556e+00
  7.433925e+00    2.932254e+00
  7.449800e+00    3.013635e+00
  7.465676e+00    3.008281e+00
  7.481552e+00    3.007082e+00
  7.497427e+00    2.968137e+00
  7.513303e+00    2.952763e+00
  7.529178e+00    3.006173e+00
  7.545054e+00    3.002661e+00
  7.560929e+00    2.979093e+00
  7.576805e+00    3.034838e+00
  7.592681e+00    3.045699e+00
  7.608556e+00    3.001415e+00
  7.624432e+00    3.026479e+00
  7.640307e+00    2.922471e+00
  7.656183e+00    2.919204e+00
  7.672058e+00    2.940375e+00
  7.687934e+00    2.943919e+00
  7.703810e+00    2.939360e+00
  7.719685e+00    2.956046e+00
  7.735561e+00    3.000083e+00
  7.751436e+00    2.985883e+00
  7.767312e+00    3.017574e+00
  7.783187e+00    3.017355e+00
  7.799063e+00    3.009009e+00
  7.814939e+00    3.015760e+00
  7.830814e+00    2.973262e+00
  7.846690e+00    2.869524e+00
  7.862565e+00    2.886836e+00
  7.878441e+00    2.943612e+00
  7.894317e+00    2.960275e+00
  7.910192e+00    2.980209e+00
  7.926068e+00    2.999574e+00
  7.941943e+00    2.962075e+00
  7.957819e+00    2.914443e+00
  7.973694e+00    2.948335e+00
  7.989570e+00    2.990011e+00
  8.005446e+00    2.924610e+00
  8.021321e+00    2.931863e+00
  8.037197e+00    2.937721e+00
  8.053072e+00    2.917709e+00
  8.068948e+00    2.941585e+00
  8.084823e+00    2.935316e+00
  8.100699e+00    2.962434e+00
  8.116575e+00    2.937763e+00
  8.132450e+00    2.947194e+00
  8.148326e+00    2.972703e+00
  8.164201e+00    2.988834e+00
  8.180077e+00    2.994308e+00
  8.195952e+00    3.033586e+00
  8.211828e+00    3.007447e+00
  8.227704e+00    3.024825e+00
  8.243579e+00    3.026023e+00
  8.259455e+00    2.922073e+00
  8.275330e+00    2.908628e+00
  8.291206e+00    2.947172e+00
  8.307081e+00    2.899861e+00
  8.322957e+00    2.885177e+00
  8.338833e+00    2.931267e+00
  8.354708e+00    2.991783e+00
  8.370584e+00    2.958647e+00
  8.386459e+00    2.889008e+00
  8.402335e+00    2.905404e+00
  8.418210e+00    2.919687e+00
  8.434086e+00    2.893070e+00
  8.449962e+00    2.945301e+00
  8.465837e+00    2.942484e+00
  8.481713e+00    2.974506e+00
  8.497588e+00    2.939060e+00
  8.513464e+00    2.908717e+00
  8.529339e+00    2.874999e+00
  8.545215e+00    2.880169e+00
  8.561091e+00    2.919641e+00
  8.576966e+00    2.889510e+00
  8.592842e+00    2.910821e+00
  8.608717e+00    2.911826e+00
  8.624593e+00    2.963618e+00
  8.640468e+00    2.941248e+00
  8.656344e+00    2.897494e+00
  8.672220e+00    2.895899e+00
  8.688095e+00    2.860204e+00
  8.703971e+00    2.928245e+00
  8.719846e+00    2.906315e+00
  8.735722e+00    2.882767e+00
  8.751598e+00    2.855293e+00
  8.767473e+00    2.814473e+00
  8.783349e+00    2.835457e+00
  8.799224e+00    2.872930e+00
  8.815100e+00    2.902864e+00
  8.830975e+00    2.910703e+00
  8.846851e+00    2.870763e+00
  8.862727e+00    2.852068e+00
  8.878602e+00    2.816844e+00
  8.894478e+00    2.805361e+00
  8.910353e+00    2.799757e+00
  8.926229e+00    2.856372e+00
  8.942104e+00    2.895922e+00
  8.957980e+00    2.820933e+00
  8.973856e+00    2.826055e+00
  8.989731e+00    2.863386e+00
  9.005607e+00    2.860760e+00
  9.021482e+00    2.790943e+00
  9.037358e+00    2.833522e+00
  9.053233e+00    2.848891e+00
  9.069109e+00    2.841134e+00
  9.084985e+00    2.840110e+00
  9.100860e+00    2.807520e+00
  9.116736e+00    2.800254e+00
  9.132611e+00    2.828241e+00
  9.148487e+00    2.816008e+00
  9.164362e+00    2.786137e+00
  9.180238e+00    2.773718e+00
  9.196114e+00    2.768868e+00
  9.211989e+00    2.843888e+00
  9.227865e+00    2.815152e+00
  9.243740e+00    2.796314e+00
  9.259616e+00    2.845200e+00
  9.275491e+00    2.754697e+00
  9.291367e+00    2.763069e+00
  9.307243e+00    2.761961e+00
  9.323118e+00    2.780099e+00
  9.338994e+00    2.780349e+00
  9.354869e+00    2.814249e+00
  9.370745e+00    2.806590e+00
  9.386620e+00    2.738147e+00
  9.402496e+00    2.754395e+00
  9.418372e+00    2.768520e+00
  9.434247e+00    2.779751e+00
  9.450123e+00    2.799551e+00
  9.465998e+00    2.782515e+00
  9.481874e+00    2.785077e+00
  9.497749e+00    2.721334e+00
  9.513625e+00    2.764995e+00
  9.529501e+00    2.784997e+00
  9.545376e+00    2.813632e+00
  9.561252e+00    2.822774e+00
  9.577127e+00    2.758782e+00
  9.593003e+00    2.748629e+00
  9.608878e+00    2.756954e+00
  9.624754e+00    2.756181e+00
  9.640630e+00    2.735816e+00
  9.656505e+00    2.686501e+00
  9.672381e+00    2.703032e+00
  9.688256e+00    2.749498e+00
  9.704132e+00    2.722352e+00
  9.720008e+00    2.681082e+00
  9.735883e+00    2.753148e+00
  9.751759e+00    2.800875e+00
  9.767634e+00    2.801127e+00
  9.783510e+00    2.730829e+00
  9.799385e+00    2.714760e+00
  9.815261e+00    2.733166e+00
  9.831137e+00    2.699329e+00
  9.847012e+00    2.718375e+00
  9.862888e+00    2.759984e+00
  9.878763e+00    2.740894e+00
  9.894639e+00    2.772243e+00
  9.910514e+00    2.760992e+00
  9.926390e+00    2.692783e+00
  9.942266e+00    2.649266e+00
  9.958141e+00    2.708918e+00
  9.974017e+00    2.700445e+00
  9.989892e+00    2.673690e+00
  1.000577e+01    2.697792e+00
  1.002164e+01    2.709800e+00
  1.003752e+01    2.708251e+00
  1.005339e+01    2.702947e+00
  1.006927e+01    2.696395e+00
  1.008515e+01    2.660321e+00
  1.010102e+01    2.649853e+00
  1.011690e+01    2.647068e+00
  1.013277e+01    2.649834e+00
  1.014865e+01    2.671010e+00
  1.016452e+01    2.717391e+00
  1.018040e+01    2.710003e+00
  1.019627e+01    2.700010e+00
  1.021215e+01    2.652690e+00
  1.022803e+01    2.707709e+00
  1.024390e+01    2.647342e+00
  1.025978e+01    2.635212e+00
  1.027565e+01    2.615265e+00
  1.029153e+01    2.648245e+00
  1.030740e+01    2.650450e+00
  1.032328e+01    2.654308e+00
  1.033915e+01    2.652627e+00
  1.035503e+01    2.605030e+00
  1.037091e+01    2.626212e+00
  1.038678e+01    2.617009e+00
  1.040266e+01    2.643551e+00
  1.041853e+01    2.644152e+00
  1.043441e+01    2.675305e+00
  1.045028e+01    2.610496e+00
  1.046616e+01    2.650110e+00
  1.048204e+01    2.595111e+00
  1.049791e+01    2.625836e+00
  1.051379e+01    2.635603e+00
  1.052966e+01    2.611298e+00
  1.054554e+01    2.642385e+00
  1.056141e+01    2.674158e+00
  1.057729e+01    2.592211e+00
  1.059316e+01    2.620735e+00
  1.060904e+01    2.564075e+00
  1.062492e+01    2.565472e+00
  1.064079e+01    2.582121e+00
  1.065667e+01    2.567680e+00
  1.067254e+01    2.590691e+00
  1.068842e+01    2.627294e+00
  1.070429e+01    2.573068e+00
  1.072017e+01    2.527953e+00
  1.073604e+01    2.519546e+00
  1.075192e+01    2.533463e+00
  1.076780e+01    2.518344e+00
  1.078367e+01    2.530132e+00
  1.079955e+01    2.574986e+00
  1.081542e+01    2.561692e+00
  1.083130e+01    2.529259e+00
  1.084717e+01    2.537999e+00
  1.086305e+01    2.503534e+00
  1.087892e+01    2.566427e+00
  1.089480e+01    2.534261e+00
  1.091068e+01    2.518996e+00
  1.092655e+01    2.540426e+00
  1.094243e+01    2.531021e+00
  1.095830e+01    2.558543e+00
  1.097418e+01    2.553958e+00
  1.099005e+01    2.508894e+00
  1.100593e+01    2.494953e+00
  1.102180e+01    2.496211e+00
  1.103768e+01    2.491841e+00
  1.105356e+01    2.504462e+00
  1.106943e+01    2.497832e+00
  1.108531e+01    2.507558e+00
  1.110118e+01    2.527158e+00
  1.111706e+01    2.503350e+00
  1.113293e+01    2.473013e+00
  1.114881e+01    2.448164e+00
  1.116468e+01    2.482813e+00
  1.118056e+01    2.511961e+00
  1.119644e+01    2.462523e+00
  1.121231e+01    2.477685e+00
  1.122819e+01    2.482459e+00
  1.124406e+01    2.466035e+00
  1.125994e+01    2.490185e+00
  1.127581e+01    2.491891e+00
  1.129169e+01    2.469066e+00
  1.130756e+01    2.485277e+00
  1.132344e+01    2.453917e+00
  1.133932e+01    2.407606e+00
  1.135519e+01    2.431085e+00
  1.137107e+01    2.440488e+00
  1.138694e+01    2.432094e+00
  1.140282e+01    2.406319e+00
  1.141869e+01    2.376509e+00
  1.143457e+01    2.416147e+00
  1.145045e+01    2.394626e+00
  1.146632e+01    2.422639e+00
  1.148220e+01    2.398230e+00
  1.149807e+01    2.372758e+00
  1.151395e+01    2.419230e+00
  1.152982e+01    2.451425e+00
  1.154570e+01    2.449227e+00
  1.156157e+01    2.424178e+00
  1.157745e+01    2.346302e+00
  1.159333e+01    2.396366e+00
  1.160920e+01    2.397799e+00
  1.162508e+01    2.361032e+00
  1.164095e+01    2.390915e+00
  1.165683e+01    2.397297e+00
  1.167270e+01    2.427629e+00
  1.168858e+01    2.432536e+00
  1.170445e+01    2.379960e+00
  1.172033e+01    2.355463e+00
  1.173621e+01    2.347438e+00
  1.175208e+01    2.387832e+00
  1.176796e+01    2.397073e+00
  1.178383e+01    2.384047e+00
  1.179971e+01    2.376899e+00
  1.181558e+01    2.378191e+00
  1.183146e+01    2.373590e+00
  1.184733e+01    2.351714e+00
  1.186321e+01    2.349341e+00
  1.187909e+01    2.344715e+00
  1.189496e+01    2.383921e+00
  1.191084e+01    2.367857e+00
  1.192671e+01    2.325149e+00
  1.194259e+01    2.357605e+00
  1.195846e+01    2.347485e+00
  1.197434e+01    2.384566e+00
  1.199021e+01    2.354125e+00
  1.200609e+01    2.356063e+00
  1.202197e+01    2.353592e+00
  1.203784e+01    2.362596e+00
  1.205372e+01    2.353567e+00
  1.206959e+01    2.367340e+00
  1.208547e+01    2.341285e+00
  1.210134e+01    2.341703e+00
  1.211722e+01    2.350549e+00
  1.213309e+01    2.337725e+00
  1.214897e+01    2.339301e+00
  1.216485e+01    2.361219e+00
  1.218072e+01    2.370191e+00
  1.219660e+01    2.371531e+00
  1.221247e+01    2.411429e+00
  1.222835e+01    2.387303e+00
  1.224422e+01    2.359911e+00
  1.226010e+01    2.315448e+00
  1.227597e+01    2.315787e+00
  1.229185e+01    2.319797e+00
  1.230773e+01    2.306239e+00
  1.232360e+01    2.301950e+00
  1.233948e+01    2.307884e+00
  1.235535e+01    2.353381e+00
  1.237123e+01    2.347003e+00
  1.238710e+01    2.336279e+00
  1.240298e+01    2.342742e+00
  1.241886e+01    2.351427e+00
  1.243473e+01    2.392507e+00
  1.245061e+01    2.361249e+00
  1.246648e+01    2.340375e+00
  1.248236e+01    2.335969e+00
  1.249823e+01    2.350327e+00
  1.251411e+01    2.343536e+00
  1.252998e+01    2.347796e+00
  1.254586e+01    2.330058e+00
  1.256174e+01    2.366403e+00
  1.257761e+01    2.394612e+00
  1.259349e+01    2.386314e+00
  1.260936e+01    2.411192e+00
  1.262524e+01    2.444098e+00
  1.264111e+01    2.442822e+00
  1.265699e+01    2.436327e+00
  1.267286e+01    2.446752e+00
  1.268874e+01    2.480957e+00
  1.270462e+01    2.514621e+00
  1.272049e+01    2.474318e+00
  1.273637e+01    2.541203e+00
  1.275224e+01    2.585350e+00
  1.276812e+01    2.602807e+00
  1.278399e+01    2.591084e+00
  1.279987e+01    2.659482e+00
  1.281574e+01    2.731127e+00
  1.283162e+01    2.786361e+00
  1.284750e+01    2.830231e+00
  1.286337e+01    2.960433e+00
  1.287925e+01    3.043108e+00
  1.289512e+01    3.154455e+00
  1.291100e+01    3.342515e+00
  1.292687e+01    3.545511e+00
  1.294275e+01    3.769809e+00
  1.295862e+01    4.020687e+00
  1.297450e+01    4.412305e+00
  1.299038e+01    4.913053e+00
  1.300625e+01    5.497427e+00
  1.302213e+01    6.287815e+00
  1.303800e+01    7.225172e+00
  1.305388e+01    8.444600e+00
  1.306975e+01    9.769915e+00
  1.308563e+01    1.106449e+01
  1.310150e+01    1.231558e+01
  1.311738e+01    1.346541e+01
  1.313326e+01    1.456869e+01
  1.314913e+01    1.561933e+01
  1.316501e+01    1.634552e+01
  1.318088e+01    1.675843e+01
  1.319676e+01    1.613073e+01
  1.321263e+01    1.472688e+01
  1.322851e+01    1.296993e+01
  1.324438e+01    1.111875e+01
  1.326026e+01    9.317727e+00
  1.327614e+01    7.860914e+00
  1.329201e+01    6.653481e+00
  1.330789e+01    5.820695e+00
  1.332376e+01    5.225177e+00
  1.333964e+01    4.662680e+00
  1.335551e+01    4.234596e+00
  1.337139e+01    3.862252e+00
  1.338727e+01    3.606329e+00
  1.340314e+01    3.351358e+00
  1.341902e+01    3.187364e+00
  1.343489e+01    3.048556e+00
  1.345077e+01    2.969707e+00
  1.346664e+01    2.820820e+00
  1.348252e+01    2.723666e+00
  1.349839e+01    2.685023e+00
  1.351427e+01    2.656814e+00
  1.353015e+01    2.599998e+00
  1.354602e+01    2.512395e+00
  1.356190e+01    2.473981e+00
  1.357777e+01    2.420140e+00
  1.359365e+01    2.396959e+00
  1.360952e+01    2.393595e+00
  1.362540e+01    2.363280e+00
  1.364127e+01    2.322590e+00
  1.365715e+01    2.255508e+00
  1.367303e+01    2.279311e+00
  1.368890e+01    2.276887e+00
  1.370478e+01    2.277682e+00
  1.372065e+01    2.238498e+00
  1.373653e+01    2.211373e+00
  1.375240e+01    2.169950e+00
  1.376828e+01    2.158324e+00
  1.378415e+01    2.164339e+00
  1.380003e+01    2.191042e+00
  1.381591e+01    2.192935e+00
  1.383178e+01    2.162431e+00
  1.384766e+01    2.151204e+00
  1.386353e+01    2.158806e+00
  1.387941e+01    2.130312e+00
  1.389528e+01    2.101726e+00
  1.391116e+01    2.079915e+00
  1.392703e+01    2.111673e+00
  1.394291e+01    2.093887e+00
  1.395879e+01    2.074048e+00
  1.397466e+01    2.086900e+00
  1.399054e+01    2.050025e+00
  1.400641e+01    2.049489e+00
  1.402229e+01    2.018935e+00
  1.403816e+01    2.055755e+00
  1.405404e+01    2.106363e+00
  1.406991e+01    2.043075e+00
  1.408579e+01    2.013820e+00
  1.410167e+01    2.054967e+00
  1.411754e+01    2.063376e+00
  1.413342e+01    2.013307e+00
  1.414929e+01    2.032502e+00
  1.416517e+01    2.002733e+00
  1.418104e+01    2.002022e+00
  1.419692e+01    2.006550e+00
  1.421279e+01    1.986744e+00
  1.422867e+01    1.978838e+00
  1.424455e+01    2.015276e+00
  1.426042e+01    2.016989e+00
  1.427630e+01    2.011480e+00
  1.429217e+01    1.976455e+00
  1.430805e+01    1.963889e+00
  1.432392e+01    1.952965e+00
  1.433980e+01    1.941895e+00
  1.435568e+01    1.943148e+00
  1.437155e+01    1.977046e+00
  1.438743e+01    1.990159e+00
  1.440330e+01    1.953684e+00
  1.441918e+01    1.938280e+00
  1.443505e+01    1.912917e+00
  1.445093e+01    1.934027e+00
  1.446680e+01    1.988613e+00
  1.448268e+01    1.981610e+00
  1.449856e+01    1.963749e+00
  1.451443e+01    1.981041e+00
  1.453031e+01    1.943396e+00
  1.454618e+01    1.895002e+00
  1.456206e+01    1.927442e+00
  1.457793e+01    1.933831e+00
  1.459381e+01    1.928012e+00
  1.460968e+01    1.923069e+00
  1.462556e+01    1.972835e+00
  1.464144e+01    1.970510e+00
  1.465731e+01    1.943689e+00
  1.467319e+01    1.926591e+00
  1.468906e+01    1.936692e+00
  1.470494e+01    1.909457e+00
  1.472081e+01    1.883411e+00
  1.473669e+01    1.901207e+00
  1.475256e+01    1.954497e+00
  1.476844e+01    1.924628e+00
  1.478432e+01    1.908221e+00
  1.480019e+01    1.903539e+00
  1.481607e+01    1.923959e+00
  1.483194e+01    1.911180e+00
  1.484782e+01    1.927001e+00
  1.486369e+01    1.935561e+00
  1.487957e+01    1.984394e+00
  1.489544e+01    1.994853e+00
  1.491132e+01    1.964563e+00
  1.492720e+01    2.027959e+00
  1.494307e+01    2.034738e+00
  1.495895e+01    2.032852e+00
  1.497482e+01    2.068152e+00
  1.499070e+01    2.153880e+00
  1.500657e+01    2.213372e+00
  1.502245e+01    2.242025e+00
  1.503832e+01    2.332680e+00
  1.505420e+01    2.451519e+00
  1.507008e+01    2.567314e+00
  1.508595e+01    2.714272e+00
  1.510183e+01    2.942287e+00
  1.511770e+01    3.210788e+00
  1.513358e+01    3.502788e+00
  1.514945e+01    3.853414e+00
  1.516533e+01    4.228385e+00
  1.518120e+01    4.608736e+00
  1.519708e+01    4.938197e+00
  1.521296e+01    5.213374e+00
  1.522883e+01    5.448810e+00
  1.524471e+01    5.589967e+00
  1.526058e+01    5.721780e+00
  1.527646e+01    5.743522e+00
  1.529233e+01    5.503926e+00
  1.530821e+01    5.144075e+00
  1.532409e+01    4.620516e+00
  1.533996e+01    4.102864e+00
  1.535584e+01    3.604949e+00
  1.537171e+01    3.248880e+00
  1.538759e+01    3.000864e+00
  1.540346e+01    2.774054e+00
  1.541934e+01    2.557512e+00
  1.543521e+01    2.375466e+00
  1.545109e+01    2.228073e+00
  1.546697e+01    2.179744e+00
  1.548284e+01    2.156135e+00
  1.549872e+01    2.032025e+00
  1.551459e+01    1.990593e+00
  1.553047e+01    1.954700e+00
  1.554634e+01    1.924071e+00
  1.556222e+01    1.930999e+00
  1.557809e+01    1.906294e+00
  1.559397e+01    1.878871e+00
  1.560985e+01    1.825624e+00
  1.562572e+01    1.785351e+00
  1.564160e+01    1.778267e+00
  1.565747e+01    1.766939e+00
  1.567335e+01    1.766100e+00
  1.568922e+01    1.736979e+00
  1.570510e+01    1.730720e+00
  1.572097e+01    1.727553e+00
  1.573685e+01    1.695176e+00
  1.575273e+01    1.714951e+00
  1.576860e+01    1.709378e+00
  1.578448e+01    1.682746e+00
  1.580035e+01    1.685081e+00
  1.581623e+01    1.702939e+00
  1.583210e+01    1.729919e+00
  1.584798e+01    1.677271e+00
  1.586385e+01    1.653247e+00
  1.587973e+01    1.653779e+00
  1.589561e+01    1.669209e+00
  1.591148e+01    1.650543e+00
  1.592736e+01    1.656199e+00
  1.594323e+01    1.648076e+00
  1.595911e+01    1.607649e+00
  1.597498e+01    1.624612e+00
  1.599086e+01    1.602306e+00
  1.600673e+01    1.604129e+00
  1.602261e+01    1.596502e+00
  1.603849e+01    1.655683e+00
  1.605436e+01    1.657313e+00
  1.607024e+01    1.596841e+00
  1.608611e+01    1.601471e+00
  1.610199e+01    1.601650e+00
  1.611786e+01    1.587661e+00
  1.613374e+01    1.611560e+00
  1.614961e+01    1.611879e+00
  1.616549e+01    1.587556e+00
  1.618137e+01    1.563349e+00
  1.619724e+01    1.556153e+00
  1.621312e+01    1.579548e+00
  1.622899e+01    1.607923e+00
  1.624487e+01    1.598814e+00
  1.626074e+01    1.565641e+00
  1.627662e+01    1.561262e+00
  1.629250e+01    1.557925e+00
  1.630837e+01    1.568993e+00
  1.632425e+01    1.577147e+00
  1.634012e+01    1.549629e+00
  1.635600e+01    1.549971e+00
  1.637187e+01    1.583016e+00
  1.638775e+01    1.555284e+00
  1.640362e+01    1.565026e+00
  1.641950e+01    1.568096e+00
  1.643538e+01    1.541098e+00
  1.645125e+01    1.548158e+00
  1.646713e+01    1.555029e+00
  1.648300e+01    1.549538e+00
  1.649888e+01    1.543136e+00
  1.651475e+01    1.530676e+00
  1.653063e+01    1.509491e+00
  1.654650e+01    1.517892e+00
  1.656238e+01    1.523010e+00
  1.657826e+01    1.546892e+00
  1.659413e+01    1.505764e+00
  1.661001e+01    1.494918e+00
  1.662588e+01    1.496293e+00
  1.664176e+01    1.464305e+00
  1.665763e+01    1.466262e+00
  1.667351e+01    1.487530e+00
  1.668938e+01    1.495476e+00
  1.670526e+01    1.476922e+00
  1.672114e+01    1.485823e+00
  1.673701e+01    1.487571e+00
  1.675289e+01    1.481632e+00
  1.676876e+01    1.481717e+00
  1.678464e+01    1.502693e+00
  1.680051e+01    1.510947e+00
  1.681639e+01    1.484570e+00
  1.683226e+01    1.468260e+00
  1.684814e+01    1.470814e+00
  1.686402e+01    1.491240e+00
  1.687989e+01    1.471670e+00
  1.689577e+01    1.442976e+00
  1.691164e+01    1.450967e+00
  1.692752e+01    1.457528e+00
  1.694339e+01    1.446130e+00
  1.695927e+01    1.449834e+00
  1.697514e+01    1.453637e+00
  1.699102e+01    1.463340e+00
  1.700690e+01    1.465661e+00
  1.702277e+01    1.434648e+00
  1.703865e+01    1.441539e+00
  1.705452e+01    1.469626e+00
  1.707040e+01    1.433716e+00
  1.708627e+01    1.401296e+00
  1.710215e+01    1.396151e+00
  1.711802e+01    1.404204e+00
  1.713390e+01    1.394292e+00
  1.714978e+01    1.420158e+00
  1.716565e+01    1.424940e+00
  1.718153e+01    1.400146e+00
  1.719740e+01    1.414652e+00
  1.721328e+01    1.425892e+00
  1.722915e+01    1.399595e+00
  1.724503e+01    1.403355e+00
  1.726091e+01    1.411539e+00
  1.727678e+01    1.390678e+00
  1.729266e+01    1.393946e+00
  1.730853e+01    1.397951e+00
  1.732441e+01    1.373144e+00
  1.734028e+01    1.364478e+00
  1.735616e+01    1.389975e+00
  1.737203e+01    1.418057e+00
  1.738791e+01    1.397849e+00
  1.740379e+01    1.400488e+00
  1.741966e+01    1.395192e+00
  1.743554e+01    1.386779e+00
  1.745141e+01    1.367829e+00
  1.746729e+01    1.372311e+00
  1.748316e+01    1.401915e+00
  1.749904e+01    1.371461e+00
  1.751491e+01    1.353507e+00
  1.753079e+01    1.359494e+00
  1.754667e+01    1.358241e+00
  1.756254e+01    1.373505e+00
  1.757842e+01    1.371805e+00
  1.759429e+01    1.377917e+00
  1.761017e+01    1.419677e+00
  1.762604e+01    1.401239e+00
  1.764192e+01    1.362173e+00
  1.765779e+01    1.332607e+00
  1.767367e+01    1.326353e+00
  1.768955e+01    1.351605e+00
  1.770542e+01    1.343855e+00
  1.772130e+01    1.330652e+00
  1.773717e+01    1.350088e+00
  1.775305e+01    1.343447e+00
  1.776892e+01    1.342447e+00
  1.778480e+01    1.346401e+00
  1.780067e+01    1.348496e+00
  1.781655e+01    1.339235e+00
  1.783243e+01    1.349384e+00
  1.784830e+01    1.353820e+00
  1.786418e+01    1.352632e+00
  1.788005e+01    1.356321e+00
  1.789593e+01    1.314440e+00
  1.791180e+01    1.293172e+00
  1.792768e+01    1.337874e+00
  1.794355e+01    1.316463e+00
  1.795943e+01    1.320515e+00
  1.797531e+01    1.333648e+00
  1.799118e+01    1.321812e+00
  1.800706e+01    1.308255e+00
  1.802293e+01    1.313730e+00
  1.803881e+01    1.343336e+00
  1.805468e+01    1.311321e+00
  1.807056e+01    1.303535e+00
  1.808643e+01    1.317361e+00
  1.810231e+01    1.284885e+00
  1.811819e+01    1.281618e+00
  1.813406e+01    1.280935e+00
  1.814994e+01    1.297136e+00
  1.816581e+01    1.269839e+00
  1.818169e+01    1.269586e+00
  1.819756e+01    1.314734e+00
  1.821344e+01    1.304783e+00
  1.822932e+01    1.269002e+00
  1.824519e+01    1.296819e+00
  1.826107e+01    1.314171e+00
  1.827694e+01    1.283990e+00
  1.829282e+01    1.285817e+00
  1.830869e+01    1.292372e+00
  1.832457e+01    1.282433e+00
  1.834044e+01    1.290385e+00
  1.835632e+01    1.271026e+00
  1.837220e+01    1.275622e+00
  1.838807e+01    1.253299e+00
  1.840395e+01    1.277504e+00
  1.841982e+01    1.279083e+00
  1.843570e+01    1.262205e+00
  1.845157e+01    1.245048e+00
  1.846745e+01    1.228617e+00
  1.848332e+01    1.270983e+00
  1.849920e+01    1.281266e+00
  1.851508e+01    1.250485e+00
  1.853095e+01    1.266782e+00
  1.854683e+01    1.266691e+00
  1.856270e+01    1.248546e+00
  1.857858e+01    1.238537e+00
  1.859445e+01    1.230791e+00
  1.861033e+01    1.264365e+00
  1.862620e+01    1.256030e+00
  1.864208e+01    1.231641e+00
  1.865796e+01    1.220340e+00
  1.867383e+01    1.233856e+00
  1.868971e+01    1.258924e+00
  1.870558e+01    1.252217e+00
  1.872146e+01    1.241538e+00
  1.873733e+01    1.255227e+00
  1.875321e+01    1.236401e+00
  1.876908e+01    1.226064e+00
  1.878496e+01    1.230965e+00
  1.880084e+01    1.229743e+00
  1.881671e+01    1.237897e+00
  1.883259e+01    1.216060e+00
  1.884846e+01    1.227298e+00
  1.886434e+01    1.242125e+00
  1.888021e+01    1.234424e+00
  1.889609e+01    1.204360e+00
  1.891196e+01    1.194165e+00
  1.892784e+01    1.200097e+00
  1.894372e+01    1.232545e+00
  1.895959e+01    1.237026e+00
  1.897547e+01    1.230932e+00
  1.899134e+01    1.220814e+00
  1.900722e+01    1.202393e+00
  1.902309e+01    1.210697e+00
  1.903897e+01    1.182135e+00
  1.905484e+01    1.172650e+00
  1.907072e+01    1.199134e+00
  1.908660e+01    1.179038e+00
  1.910247e+01    1.197877e+00
  1.911835e+01    1.188915e+00
  1.913422e+01    1.189371e+00
  1.915010e+01    1.164899e+00
  1.916597e+01    1.167587e+00
  1.918185e+01    1.176516e+00
  1.919773e+01    1.170280e+00
  1.921360e+01    1.171303e+00
  1.922948e+01    1.202789e+00
  1.924535e+01    1.196185e+00
  1.926123e+01    1.193985e+00
  1.927710e+01    1.187759e+00
  1.929298e+01    1.210254e+00
  1.930885e+01    1.207476e+00
  1.932473e+01    1.225043e+00
  1.934061e+01    1.192059e+00
  1.935648e+01    1.172028e+00
  1.937236e+01    1.165583e+00
  1.938823e+01    1.145182e+00
  1.940411e+01    1.169438e+00
  1.941998e+01    1.145953e+00
  1.943586e+01    1.140730e+00
  1.945173e+01    1.145394e+00
  1.946761e+01    1.173427e+00
  1.948349e+01    1.192582e+00
  1.949936e+01    1.167473e+00
  1.951524e+01    1.151690e+00
  1.953111e+01    1.151068e+00
  1.954699e+01    1.167805e+00
  1.956286e+01    1.161235e+00
  1.957874e+01    1.149926e+00
  1.959461e+01    1.169480e+00
  1.961049e+01    1.178708e+00
  1.962637e+01    1.139813e+00
  1.964224e+01    1.169354e+00
  1.965812e+01    1.159689e+00
  1.967399e+01    1.172065e+00
  1.968987e+01    1.175519e+00
  1.970574e+01    1.149172e+00
  1.972162e+01    1.142882e+00
  1.973749e+01    1.161369e+00
  1.975337e+01    1.127023e+00
  1.976925e+01    1.145319e+00
  1.978512e+01    1.149883e+00
  1.980100e+01    1.139387e+00
  1.981687e+01    1.124234e+00
  1.983275e+01    1.118999e+00
  1.984862e+01    1.096799e+00
  1.986450e+01    1.119775e+00
  1.988037e+01    1.123100e+00
  1.989625e+01    1.100155e+00
  1.991213e+01    1.112959e+00
  1.992800e+01    1.121643e+00
  1.994388e+01    1.108961e+00
  1.995975e+01    1.140419e+00
  1.997563e+01    1.102958e+00
  1.999150e+01    1.112180e+00
  2.000738e+01    1.135829e+00
  2.002325e+01    1.134337e+00
  2.003913e+01    1.107844e+00
  2.005501e+01    1.111314e+00
  2.007088e+01    1.111421e+00
  2.008676e+01    1.118799e+00
  2.010263e+01    1.143665e+00
  2.011851e+01    1.137954e+00
  2.013438e+01    1.131452e+00
  2.015026e+01    1.137098e+00
  2.016614e+01    1.099667e+00
  2.018201e+01    1.103029e+00
  2.019789e+01    1.101922e+00
  2.021376e+01    1.078367e+00
  2.022964e+01    1.105084e+00
  2.024551e+01    1.128942e+00
  2.026139e+01    1.116185e+00
  2.027726e+01    1.098560e+00
  2.029314e+01    1.091611e+00
  2.030902e+01    1.105944e+00
  2.032489e+01    1.129823e+00
  2.034077e+01    1.095809e+00
  2.035664e+01    1.079567e+00
  2.037252e+01    1.091388e+00
  2.038839e+01    1.101904e+00
  2.040427e+01    1.084927e+00
  2.042014e+01    1.086131e+00
  2.043602e+01    1.109632e+00
  2.045190e+01    1.072726e+00
  2.046777e+01    1.079125e+00
  2.048365e+01    1.116606e+00
  2.049952e+01    1.109229e+00
  2.051540e+01    1.103654e+00
  2.053127e+01    1.088457e+00
  2.054715e+01    1.088167e+00
  2.056302e+01    1.078496e+00
  2.057890e+01    1.098471e+00
  2.059478e+01    1.069211e+00
  2.061065e+01    1.073005e+00
  2.062653e+01    1.055439e+00
  2.064240e+01    1.070257e+00
  2.065828e+01    1.081686e+00
  2.067415e+01    1.080576e+00
  2.069003e+01    1.084454e+00
  2.070590e+01    1.076800e+00
  2.072178e+01    1.095907e+00
  2.073766e+01    1.075215e+00
  2.075353e+01    1.083304e+00
  2.076941e+01    1.070860e+00
  2.078528e+01    1.091938e+00
  2.080116e+01    1.100636e+00
  2.081703e+01    1.067167e+00
  2.083291e+01    1.080827e+00
  2.084878e+01    1.098127e+00
  2.086466e+01    1.099026e+00
  2.088054e+01    1.093281e+00
  2.089641e+01    1.067111e+00
  2.091229e+01    1.095007e+00
  2.092816e+01    1.105818e+00
  2.094404e+01    1.093711e+00
  2.095991e+01    1.083037e+00
  2.097579e+01    1.092615e+00
  2.099166e+01    1.091020e+00
  2.100754e+01    1.094514e+00
  2.102342e+01    1.098381e+00
  2.103929e+01    1.063450e+00
  2.105517e+01    1.076937e+00
  2.107104e+01    1.085866e+00
  2.108692e+01    1.079517e+00
  2.110279e+01    1.091781e+00
  2.111867e+01    1.091263e+00
  2.113455e+01    1.096431e+00
  2.115042e+01    1.085775e+00
  2.116630e+01    1.088569e+00
  2.118217e+01    1.089893e+00
  2.119805e+01    1.079331e+00
  2.121392e+01    1.099138e+00
  2.122980e+01    1.093956e+00
  2.124567e+01    1.108273e+00
  2.126155e+01    1.140944e+00
  2.127743e+01    1.139032e+00
  2.129330e+01    1.119642e+00
  2.130918e+01    1.135359e+00
  2.132505e+01    1.164588e+00
  2.134093e+01    1.166855e+00
  2.135680e+01    1.167715e+00
  2.137268e+01    1.168447e+00
  2.138855e+01    1.174253e+00
  2.140443e+01    1.199590e+00
  2.142031e+01    1.222095e+00
  2.143618e+01    1.227551e+00
  2.145206e+01    1.220676e+00
  2.146793e+01    1.222718e+00
  2.148381e+01    1.247009e+00
  2.149968e+01    1.275283e+00
  2.151556e+01    1.304330e+00
  2.153143e+01    1.312886e+00
  2.154731e+01    1.387245e+00
  2.156319e+01    1.459346e+00
  2.157906e+01    1.479507e+00
  2.159494e+01    1.561149e+00
  2.161081e+01    1.642711e+00
  2.162669e+01    1.707955e+00
  2.164256e+01    1.813957e+00
  2.165844e+01    2.003114e+00
  2.167431e+01    2.157989e+00
  2.169019e+01    2.400999e+00
  2.170607e+01    2.636948e+00
  2.172194e+01    2.927935e+00
  2.173782e+01    3.345400e+00
  2.175369e+01    3.848983e+00
  2.176957e+01    4.392455e+00
  2.178544e+01    4.988815e+00
  2.180132e+01    5.675153e+00
  2.181719e+01    6.360132e+00
  2.183307e+01    7.065345e+00
  2.184895e+01    7.795774e+00
  2.186482e+01    8.396088e+00
  2.188070e+01    8.907839e+00
  2.189657e+01    9.142167e+00
  2.191245e+01    8.994098e+00
  2.192832e+01    8.536036e+00
  2.194420e+01    7.843572e+00
  2.196007e+01    6.840189e+00
  2.197595e+01    5.830137e+00
  2.199183e+01    4.979053e+00
  2.200770e+01    4.181873e+00
  2.202358e+01    3.603582e+00
  2.203945e+01    3.124138e+00
  2.205533e+01    2.766470e+00
  2.207120e+01    2.460171e+00
  2.208708e+01    2.246482e+00
  2.210296e+01    2.042192e+00
  2.211883e+01    1.881640e+00
  2.213471e+01    1.736045e+00
  2.215058e+01    1.649629e+00
  2.216646e+01    1.582726e+00
  2.218233e+01    1.462051e+00
  2.219821e+01    1.422088e+00
  2.221408e+01    1.384017e+00
  2.222996e+01    1.333688e+00
  2.224584e+01    1.288627e+00
  2.226171e+01    1.279961e+00
  2.227759e+01    1.222407e+00
  2.229346e+01    1.189194e+00
  2.230934e+01    1.176139e+00
  2.232521e+01    1.137635e+00
  2.234109e+01    1.117593e+00
  2.235696e+01    1.099174e+00
  2.237284e+01    1.098677e+00
  2.238872e+01    1.098500e+00
  2.240459e+01    1.086882e+00
  2.242047e+01    1.060197e+00
  2.243634e+01    1.063349e+00
  2.245222e+01    1.049679e+00
  2.246809e+01    1.055011e+00
  2.248397e+01    1.045021e+00
  2.249984e+01    1.052864e+00
  2.251572e+01    1.014833e+00
  2.253160e+01    1.006340e+00
  2.254747e+01    9.963660e-01
  2.256335e+01    1.022168e+00
  2.257922e+01    1.003886e+00
  2.259510e+01    9.843255e-01
  2.261097e+01    9.689547e-01
  2.262685e+01    9.709269e-01
  2.264272e+01    9.826052e-01
  2.265860e+01    9.870558e-01
  2.267448e+01    9.837380e-01
  2.269035e+01    9.674003e-01
  2.270623e+01    9.744184e-01
  2.272210e+01    9.491863e-01
  2.273798e+01    9.362800e-01
  2.275385e+01    9.342166e-01
  2.276973e+01    9.190081e-01
  2.278560e+01    9.353606e-01
  2.280148e+01    9.320398e-01
  2.281736e+01    9.217615e-01
  2.283323e+01    9.156763e-01
  2.284911e+01    9.373752e-01
  2.286498e+01    9.388401e-01
  2.288086e+01    9.322059e-01
  2.289673e+01    9.240969e-01
  2.291261e+01    9.134635e-01
  2.292848e+01    9.032963e-01
  2.294436e+01    9.126595e-01
  2.296024e+01    9.109906e-01
  2.297611e+01    9.179733e-01
  2.299199e+01    9.112994e-01
  2.300786e+01    9.047971e-01
  2.302374e+01    8.936164e-01
  2.303961e+01    8.915366e-01
  2.305549e+01    9.011970e-01
  2.307137e+01    8.954681e-01
  2.308724e+01    8.990870e-01
  2.310312e+01    8.796406e-01
  2.311899e+01    8.806998e-01
  2.313487e+01    8.668049e-01
  2.315074e+01    8.676829e-01
  2.316662e+01    8.894048e-01
  2.318249e+01    8.900281e-01
  2.319837e+01    8.892164e-01
  2.321425e+01    8.928742e-01
  2.323012e+01    8.914005e-01
  2.324600e+01    9.039899e-01
  2.326187e+01    9.011475e-01
  2.327775e+01    9.051947e-01
  2.329362e+01    8.852462e-01
  2.330950e+01    8.751916e-01
  2.332537e+01    8.665125e-01
  2.334125e+01    8.642414e-01
  2.335713e+01    8.596723e-01
  2.337300e+01    8.627195e-01
  2.338888e+01    8.542738e-01
  2.340475e+01    8.714903e-01
  2.342063e+01    8.586215e-01
  2.343650e+01    8.609180e-01
  2.345238e+01    8.469458e-01
  2.346825e+01    8.554368e-01
  2.348413e+01    8.466080e-01
  2.350001e+01    8.446438e-01
  2.351588e+01    8.473097e-01
  2.353176e+01    8.509184e-01
  2.354763e+01    8.364648e-01
  2.356351e+01    8.436033e-01
  2.357938e+01    8.428130e-01
  2.359526e+01    8.436037e-01
  2.361113e+01    8.361359e-01
  2.362701e+01    8.401413e-01
  2.364289e+01    8.545994e-01
  2.365876e+01    8.622122e-01
  2.367464e+01    8.404647e-01
  2.369051e+01    8.136138e-01
  2.370639e+01    8.272458e-01
  2.372226e+01    8.299531e-01
  2.373814e+01    8.011633e-01
  2.375401e+01    8.149328e-01
  2.376989e+01    8.240854e-01
  2.378577e+01    8.132738e-01
  2.380164e+01    8.321683e-01
  2.381752e+01    8.255907e-01
  2.383339e+01    8.005561e-01
  2.384927e+01    7.892953e-01
  2.386514e+01    8.192741e-01
  2.388102e+01    8.160367e-01
  2.389689e+01    7.955886e-01
  2.391277e+01    7.930084e-01
  2.392865e+01    8.108032e-01
  2.394452e+01    8.218625e-01
  2.396040e+01    8.246693e-01
  2.397627e+01    7.947723e-01
  2.399215e+01    7.864005e-01
  2.400802e+01    7.905453e-01
  2.402390e+01    7.909433e-01
  2.403978e+01    7.882833e-01
  2.405565e+01    8.102031e-01
  2.407153e+01    8.044505e-01
  2.408740e+01    7.961816e-01
  2.410328e+01    7.846639e-01
  2.411915e+01    7.910769e-01
  2.413503e+01    7.782936e-01
  2.415090e+01    7.799755e-01
  2.416678e+01    7.737680e-01
  2.418266e+01    7.874269e-01
  2.419853e+01    7.915351e-01
  2.421441e+01    7.642080e-01
  2.423028e+01    7.652825e-01
  2.424616e+01    7.558436e-01
  2.426203e+01    7.959432e-01
  2.427791e+01    7.915137e-01
  2.429378e+01    7.842110e-01
  2.430966e+01    7.918373e-01
  2.432554e+01    7.762821e-01
  2.434141e+01    7.955638e-01
  2.435729e+01    8.052582e-01
  2.437316e+01    8.053374e-01
  2.438904e+01    7.819937e-01
  2.440491e+01    7.777929e-01
  2.442079e+01    7.846687e-01
  2.443666e+01    7.921569e-01
  2.445254e+01    7.969668e-01
  2.446842e+01    8.073789e-01
  2.448429e+01    7.813850e-01
  2.450017e+01    7.838954e-01
  2.451604e+01    7.796686e-01
  2.453192e+01    7.884002e-01
  2.454779e+01    7.919326e-01
  2.456367e+01    7.896175e-01
  2.457954e+01    7.925395e-01
  2.459542e+01    7.824337e-01
  2.461130e+01    7.876396e-01
  2.462717e+01    8.065014e-01
  2.464305e+01    8.005019e-01
  2.465892e+01    7.819976e-01
  2.467480e+01    7.874286e-01
  2.469067e+01    7.838392e-01
  2.470655e+01    7.740250e-01
  2.472242e+01    7.835042e-01
  2.473830e+01    8.069237e-01
  2.475418e+01    7.940510e-01
  2.477005e+01    7.728357e-01
  2.478593e+01    7.945197e-01
  2.480180e+01    8.070475e-01
  2.481768e+01    8.092051e-01
  2.483355e+01    8.124741e-01
  2.484943e+01    8.122464e-01
  2.486530e+01    8.206706e-01
  2.488118e+01    8.111004e-01
  2.489706e+01    7.935654e-01
  2.491293e+01    7.926053e-01
  2.492881e+01    7.843736e-01
  2.494468e+01    7.992377e-01
  2.496056e+01    7.928891e-01
  2.497643e+01    7.843247e-01
  2.499231e+01    8.047833e-01
  2.500819e+01    8.013328e-01
  2.502406e+01    7.882215e-01
  2.503994e+01    8.147292e-01
  2.505581e+01    8.076943e-01
  2.507169e+01    7.877284e-01
  2.508756e+01    8.067895e-01
  2.510344e+01    8.264323e-01
  2.511931e+01    8.207071e-01
  2.513519e+01    8.175860e-01
  2.515107e+01    8.162886e-01
  2.516694e+01    8.302178e-01
  2.518282e+01    8.338744e-01
  2.519869e+01    8.317230e-01
  2.521457e+01    8.362978e-01
  2.523044e+01    8.396149e-01
  2.524632e+01    8.316650e-01
  2.526219e+01    8.376506e-01
  2.527807e+01    8.557600e-01
  2.529395e+01    8.518276e-01
  2.530982e+01    8.586546e-01
  2.532570e+01    8.970826e-01
  2.534157e+01    8.792440e-01
  2.535745e+01    8.741556e-01
  2.537332e+01    8.922507e-01
  2.538920e+01    8.951238e-01
  2.540507e+01    8.922107e-01
  2.542095e+01    9.130350e-01
  2.543683e+01    9.264362e-01
  2.545270e+01    9.094103e-01
  2.546858e+01    9.324789e-01
  2.548445e+01    9.608823e-01
  2.550033e+01    9.884307e-01
  2.551620e+01    1.010312e+00
  2.553208e+01    1.034710e+00
  2.554795e+01    1.032867e+00
  2.556383e+01    1.035419e+00
  2.557971e+01    1.066908e+00
  2.559558e+01    1.096706e+00
  2.561146e+01    1.153363e+00
  2.562733e+01    1.174615e+00
  2.564321e+01    1.217208e+00
  2.565908e+01    1.288384e+00
  2.567496e+01    1.342795e+00
  2.569083e+01    1.435116e+00
  2.570671e+01    1.538625e+00
  2.572259e+01    1.631874e+00
  2.573846e+01    1.731810e+00
  2.575434e+01    1.932775e+00
  2.577021e+01    2.156780e+00
  2.578609e+01    2.409177e+00
  2.580196e+01    2.710172e+00
  2.581784e+01    3.064617e+00
  2.583371e+01    3.523173e+00
  2.584959e+01    3.988643e+00
  2.586547e+01    4.548539e+00
  2.588134e+01    5.197307e+00
  2.589722e+01    5.829733e+00
  2.591309e+01    6.368264e+00
  2.592897e+01    6.829953e+00
  2.594484e+01    7.189600e+00
  2.596072e+01    7.372007e+00
  2.597660e+01    7.389361e+00
  2.599247e+01    6.998272e+00
  2.600835e+01    6.379142e+00
  2.602422e+01    5.641869e+00
  2.604010e+01    4.866694e+00
  2.605597e+01    4.153389e+00
  2.607185e+01    3.526711e+00
  2.608772e+01    3.060783e+00
  2.610360e+01    2.677932e+00
  2.611948e+01    2.354918e+00
  2.613535e+01    2.145111e+00
  2.615123e+01    1.939202e+00
  2.616710e+01    1.755069e+00
  2.618298e+01    1.628751e+00
  2.619885e+01    1.528452e+00
  2.621473e+01    1.450735e+00
  2.623060e+01    1.339934e+00
  2.624648e+01    1.254464e+00
  2.626236e+01    1.207616e+00
  2.627823e+01    1.190297e+00
  2.629411e+01    1.128674e+00
  2.630998e+01    1.107581e+00
  2.632586e+01    1.089780e+00
  2.634173e+01    1.065601e+00
  2.635761e+01    1.039048e+00
  2.637348e+01    1.011355e+00
  2.638936e+01    9.863189e-01
  2.640524e+01    9.647614e-01
  2.642111e+01    9.653739e-01
  2.643699e+01    9.766715e-01
  2.645286e+01    9.553414e-01
  2.646874e+01    9.499036e-01
  2.648461e+01    9.413137e-01
  2.650049e+01    9.354483e-01
  2.651636e+01    9.005002e-01
  2.653224e+01    9.203740e-01
  2.654812e+01    9.221691e-01
  2.656399e+01    9.130849e-01
  2.657987e+01    9.120770e-01
  2.659574e+01    9.116762e-01
  2.661162e+01    8.947237e-01
  2.662749e+01    8.861347e-01
  2.664337e+01    8.742556e-01
  2.665924e+01    9.028776e-01
  2.667512e+01    8.955063e-01
  2.669100e+01    9.025398e-01
  2.670687e+01    8.941591e-01
  2.672275e+01    8.918179e-01
  2.673862e+01    8.897946e-01
  2.675450e+01    8.918254e-01
  2.677037e+01    9.073827e-01
  2.678625e+01    8.967910e-01
  2.680212e+01    8.941401e-01
  2.681800e+01    8.830565e-01
  2.683388e+01    8.990084e-01
  2.684975e+01    9.034712e-01
  2.686563e+01    9.123209e-01
  2.688150e+01    8.980435e-01
  2.689738e+01    9.184219e-01
  2.691325e+01    9.009504e-01
  2.692913e+01    9.506204e-01
  2.694501e+01    9.609101e-01
  2.696088e+01    9.582523e-01
  2.697676e+01    1.019302e+00
  2.699263e+01    1.022918e+00
  2.700851e+01    1.036203e+00
  2.702438e+01    1.078620e+00
  2.704026e+01    1.106826e+00
  2.705613e+01    1.154561e+00
  2.707201e+01    1.225115e+00
  2.708789e+01    1.322262e+00
  2.710376e+01    1.429416e+00
  2.711964e+01    1.562429e+00
  2.713551e+01    1.673614e+00
  2.715139e+01    1.789782e+00
  2.716726e+01    1.893006e+00
  2.718314e+01    2.053579e+00
  2.719901e+01    2.168181e+00
  2.721489e+01    2.190825e+00
  2.723077e+01    2.209292e+00
  2.724664e+01    2.144698e+00
  2.726252e+01    2.011546e+00
  2.727839e+01    1.874982e+00
  2.729427e+01    1.710790e+00
  2.731014e+01    1.562910e+00
  2.732602e+01    1.421669e+00
  2.734189e+01    1.332900e+00
  2.735777e+01    1.264324e+00
  2.737365e+01    1.164540e+00
  2.738952e+01    1.096236e+00
  2.740540e+01    1.038937e+00
  2.742127e+01    1.036498e+00
  2.743715e+01    1.008277e+00
  2.745302e+01    9.767078e-01
  2.746890e+01    9.350947e-01
  2.748477e+01    9.063862e-01
  2.750065e+01    8.854492e-01
  2.751653e+01    8.959331e-01
  2.753240e+01    8.961027e-01
  2.754828e+01    8.682301e-01
  2.756415e+01    8.743506e-01
  2.758003e+01    8.776941e-01
  2.759590e+01    8.412595e-01
  2.761178e+01    8.278981e-01
  2.762765e+01    8.071746e-01
  2.764353e+01    8.309970e-01
  2.765941e+01    8.379467e-01
  2.767528e+01    8.331154e-01
  2.769116e+01    8.283065e-01
  2.770703e+01    8.323649e-01
  2.772291e+01    8.285478e-01
  2.773878e+01    8.300369e-01
  2.775466e+01    8.229928e-01
  2.777054e+01    8.179756e-01
  2.778641e+01    8.203600e-01
  2.780229e+01    8.126935e-01
  2.781816e+01    7.977778e-01
  2.783404e+01    8.075065e-01
  2.784991e+01    8.100446e-01
  2.786579e+01    7.966483e-01
  2.788166e+01    8.172711e-01
  2.789754e+01    7.997807e-01
  2.791342e+01    7.771319e-01
  2.792929e+01    7.920349e-01
  2.794517e+01    8.022373e-01
  2.796104e+01    8.065315e-01
  2.797692e+01    7.876467e-01
  2.799279e+01    7.941207e-01
  2.800867e+01    7.969354e-01
  2.802454e+01    7.561050e-01
  2.804042e+01    7.747095e-01
  2.805630e+01    7.896878e-01
  2.807217e+01    7.826540e-01
  2.808805e+01    7.964859e-01
  2.810392e+01    7.854345e-01
  2.811980e+01    7.755863e-01
  2.813567e+01    7.765973e-01
  2.815155e+01    7.851117e-01
  2.816742e+01    7.734478e-01
  2.818330e+01    7.754811e-01
  2.819918e+01    7.734218e-01
  2.821505e+01    7.733208e-01
  2.823093e+01    7.683800e-01
  2.824680e+01    7.563577e-01
  2.826268e+01    7.684147e-01
  2.827855e+01    7.677887e-01
  2.829443e+01    7.553211e-01
  2.831030e+01    7.698141e-01
  2.832618e+01    7.617762e-01
  2.834206e+01    7.809682e-01
  2.835793e+01    7.686923e-01
  2.837381e+01    7.510850e-01
  2.838968e+01    7.497804e-01
  2.840556e+01    7.624695e-01
  2.842143e+01    7.703494e-01
  2.843731e+01    7.725205e-01
  2.845318e+01    7.754665e-01
  2.846906e+01    7.700666e-01
  2.848494e+01    7.727211e-01
  2.850081e+01    7.711858e-01
  2.851669e+01    7.595526e-01
  2.853256e+01    7.621139e-01
  2.854844e+01    7.515079e-01
  2.856431e+01    7.620899e-01
  2.858019e+01    7.499575e-01
  2.859606e+01    7.600872e-01
  2.861194e+01    7.387779e-01
  2.862782e+01    7.280725e-01
  2.864369e+01    7.563327e-01
  2.865957e+01    7.551332e-01
  2.867544e+01    7.493339e-01
  2.869132e+01    7.331108e-01
  2.870719e+01    7.446681e-01
  2.872307e+01    7.521231e-01
  2.873895e+01    7.314276e-01
  2.875482e+01    7.421366e-01
  2.877070e+01    7.359434e-01
  2.878657e+01    7.421340e-01
  2.880245e+01    7.509285e-01
  2.881832e+01    7.370723e-01
  2.883420e+01    7.501715e-01
  2.885007e+01    7.494559e-01
  2.886595e+01    7.373052e-01
  2.888183e+01    7.432655e-01
  2.889770e+01    7.535664e-01
  2.891358e+01    7.343329e-01
  2.892945e+01    7.412477e-01
  2.894533e+01    7.487879e-01
  2.896120e+01    7.550683e-01
  2.897708e+01    7.371312e-01
  2.899295e+01    7.327226e-01
  2.900883e+01    7.259662e-01
  2.902471e+01    7.267500e-01
  2.904058e+01    7.296846e-01
  2.905646e+01    7.333179e-01
  2.907233e+01    7.313235e-01
  2.908821e+01    7.405230e-01
  2.910408e+01    7.260248e-01
  2.911996e+01    7.264100e-01
  2.913583e+01    7.490438e-01
  2.915171e+01    7.353151e-01
  2.916759e+01    7.310217e-01
  2.918346e+01    7.297383e-01
  2.919934e+01    7.219460e-01
  2.921521e+01    7.260125e-01
  2.923109e+01    7.202384e-01
  2.924696e+01    7.300198e-01
  2.926284e+01    7.426759e-01
  2.927871e+01    7.487620e-01
  2.929459e+01    7.320832e-01
  2.931047e+01    7.179938e-01
  2.932634e+01    7.184168e-01
  2.934222e+01    7.161942e-01
  2.935809e+01    7.352043e-01
  2.937397e+01    7.556354e-01
  2.938984e+01    7.227626e-01
  2.940572e+01    7.309494e-01
  2.942159e+01    7.447359e-01
  2.943747e+01    7.392363e-01
  2.945335e+01    7.278262e-01
  2.946922e+01    7.300788e-01
  2.948510e+01    7.091294e-01
  2.950097e+01    7.152324e-01
  2.951685e+01    7.235037e-01
  2.953272e+01    7.227107e-01
  2.954860e+01    7.264504e-01
  2.956447e+01    7.346132e-01
  2.958035e+01    7.121235e-01
  2.959623e+01    7.383094e-01
  2.961210e+01    7.195723e-01
  2.962798e+01    7.230896e-01
  2.964385e+01    7.282804e-01
  2.965973e+01    7.195886e-01
  2.967560e+01    7.277539e-01
  2.969148e+01    7.136852e-01
  2.970736e+01    7.157620e-01
  2.972323e+01    7.147563e-01
  2.973911e+01    7.042156e-01
  2.975498e+01    7.135680e-01
  2.977086e+01    7.042163e-01
  2.978673e+01    6.935250e-01
  2.980261e+01    7.222095e-01
  2.981848e+01    7.343605e-01
  2.983436e+01    7.354732e-01
  2.985024e+01    7.239903e-01
  2.986611e+01    7.079968e-01
  2.988199e+01    7.079384e-01
  2.989786e+01    7.039047e-01
  2.991374e+01    7.168010e-01
  2.992961e+01    7.098733e-01
  2.994549e+01    7.225744e-01
  2.996136e+01    7.228218e-01
  2.997724e+01    7.403886e-01
  2.999312e+01    7.233691e-01
  3.000899e+01    7.347555e-01
  3.002487e+01    7.249731e-01
  3.004074e+01    7.247221e-01
  3.005662e+01    7.449406e-01
  3.007249e+01    7.474646e-01
  3.008837e+01    7.429279e-01
  3.010424e+01    7.319630e-01
  3.012012e+01    7.256303e-01
  3.013600e+01    7.198159e-01
  3.015187e+01    7.209010e-01
  3.016775e+01    7.142769e-01
  3.018362e+01    6.991706e-01
  3.019950e+01    7.221556e-01
  3.021537e+01    7.223511e-01
  3.023125e+01    7.170892e-01
  3.024712e+01    7.064528e-01
  3.026300e+01    7.003083e-01
  3.027888e+01    6.985185e-01
  3.029475e+01    7.066783e-01
  3.031063e+01    7.033914e-01
  3.032650e+01    6.994158e-01
  3.034238e+01    7.078159e-01
  3.035825e+01    7.100201e-01
  3.037413e+01    7.107942e-01
  3.039000e+01    7.156147e-01
  3.040588e+01    7.164065e-01
  3.042176e+01    7.254827e-01
  3.043763e+01    7.410181e-01
  3.045351e+01    7.106661e-01
  3.046938e+01    7.115280e-01
  3.048526e+01    7.139468e-01
  3.050113e+01    7.026119e-01
  3.051701e+01    7.056820e-01
  3.053288e+01    7.016834e-01
  3.054876e+01    7.158136e-01
  3.056464e+01    7.204274e-01
  3.058051e+01    7.223587e-01
  3.059639e+01    7.167905e-01
  3.061226e+01    7.166598e-01
  3.062814e+01    7.302705e-01
  3.064401e+01    7.357581e-01
  3.065989e+01    7.349055e-01
  3.067577e+01    7.372279e-01
  3.069164e+01    6.915928e-01
  3.070752e+01    6.803985e-01
  3.072339e+01    7.039040e-01
  3.073927e+01    7.073427e-01
  3.075514e+01    7.136761e-01
  3.077102e+01    7.106378e-01
  3.078689e+01    7.111411e-01
  3.080277e+01    7.228310e-01
  3.081865e+01    6.976779e-01
  3.083452e+01    7.121257e-01
  3.085040e+01    7.275490e-01
  3.086627e+01    7.193823e-01
  3.088215e+01    7.079158e-01
  3.089802e+01    7.271602e-01
  3.091390e+01    7.187796e-01
  3.092977e+01    7.031780e-01
  3.094565e+01    7.278733e-01
  3.096153e+01    7.227259e-01
  3.097740e+01    7.151037e-01
  3.099328e+01    7.164980e-01
  3.100915e+01    7.195802e-01
  3.102503e+01    7.192174e-01
  3.104090e+01    7.406703e-01
  3.105678e+01    7.247641e-01
  3.107265e+01    7.118639e-01
  3.108853e+01    7.157171e-01
  3.110441e+01    7.125113e-01
  3.112028e+01    7.062733e-01
  3.113616e+01    7.011145e-01
  3.115203e+01    7.240670e-01
  3.116791e+01    7.071762e-01
  3.118378e+01    7.293417e-01
  3.119966e+01    7.081101e-01
  3.121553e+01    7.305073e-01
  3.123141e+01    7.532336e-01
  3.124729e+01    7.502033e-01
  3.126316e+01    7.445893e-01
  3.127904e+01    7.312171e-01
  3.129491e+01    7.291843e-01
  3.131079e+01    7.388384e-01
  3.132666e+01    7.383953e-01
  3.134254e+01    7.497774e-01
  3.135841e+01    7.381688e-01
  3.137429e+01    7.418061e-01
  3.139017e+01    7.118125e-01
  3.140604e+01    7.274052e-01
  3.142192e+01    7.685211e-01
  3.143779e+01    7.527035e-01
  3.145367e+01    7.618830e-01
  3.146954e+01    7.447256e-01
  3.148542e+01    7.621149e-01
  3.150129e+01    7.849855e-01
  3.151717e+01    7.695943e-01
  3.153305e+01    7.963668e-01
  3.154892e+01    8.014387e-01
  3.156480e+01    7.990194e-01
  3.158067e+01    8.199738e-01
  3.159655e+01    8.239234e-01
  3.161242e+01    8.264252e-01
  3.162830e+01    8.058683e-01
  3.164418e+01    8.348264e-01
  3.166005e+01    8.950065e-01
  3.167593e+01    9.146783e-01
  3.169180e+01    9.474773e-01
  3.170768e+01    1.003014e+00
  3.172355e+01    1.053966e+00
  3.173943e+01    1.083816e+00
  3.175530e+01    1.137204e+00
  3.177118e+01    1.196020e+00
  3.178706e+01    1.295908e+00
  3.180293e+01    1.429964e+00
  3.181881e+01    1.562177e+00
  3.183468e+01    1.698070e+00
  3.185056e+01    1.829235e+00
  3.186643e+01    1.980354e+00
  3.188231e+01    2.095651e+00
  3.189818e+01    2.188439e+00
  3.191406e+01    2.208931e+00
  3.192994e+01    2.174637e+00
  3.194581e+01    2.054003e+00
  3.196169e+01    1.907045e+00
  3.197756e+01    1.745525e+00
  3.199344e+01    1.580205e+00
  3.200931e+01    1.441198e+00
  3.202519e+01    1.313366e+00
  3.204106e+01    1.221814e+00
  3.205694e+01    1.174217e+00
  3.207282e+01    1.099363e+00
  3.208869e+01    1.009947e+00
  3.210457e+01    9.458788e-01
  3.212044e+01    9.058863e-01
  3.213632e+01    8.810116e-01
  3.215219e+01    8.813932e-01
  3.216807e+01    8.110999e-01
  3.218394e+01    8.178370e-01
  3.219982e+01    8.106129e-01
  3.221570e+01    8.300341e-01
  3.223157e+01    8.094246e-01
  3.224745e+01    7.578313e-01
  3.226332e+01    7.644916e-01
  3.227920e+01    7.876876e-01
  3.229507e+01    7.730897e-01
  3.231095e+01    7.430894e-01
  3.232682e+01    7.557085e-01
  3.234270e+01    7.128609e-01
  3.235858e+01    7.161933e-01
  3.237445e+01    7.530006e-01
  3.239033e+01    7.611272e-01
  3.240620e+01    7.621682e-01
  3.242208e+01    7.289063e-01
  3.243795e+01    7.645007e-01
  3.245383e+01    7.478496e-01
  3.246970e+01    7.342982e-01
  3.248558e+01    7.112734e-01
  3.250146e+01    6.726683e-01
  3.251733e+01    7.145889e-01
  3.253321e+01    7.466041e-01
  3.254908e+01    7.170488e-01
