# == pyFAI calibration ==
# Distance Sample to Detector: 0.3999999939076516 m
# PONI: 9.750e-02, 1.135e-01 m
# Rotations: -0.000175 0.000000 -0.000000 rad
# 
# == Fit2d calibration ==
# Distance Sample-beamCenter: 400.000 mm
# Center: x=1514.000, y=1300.000 pix
# Tilt: 0.010 deg  TiltPlanRot: 0.010 deg
# 
# Detector Detector	 Spline= None	 PixelSize= 7.500e-05, 7.500e-05 m
#    Detector has a mask: False 
#    Detector has a dark current: False 
#    detector has a flat field: False 
# 
# Wavelength: 6.888e-11 m
# Mask applied: user provided
# Dark current applied: False
# Flat field applied: False
# Polarization factor: 0.99
# Normalization factor: 1.0
# --> /home/myspot/data/2024_07_Rosario/Ru-CGO-ex/2024-07-27_002_Ru-CGO-ex_Activtation_ramp_000002_data_000112.dat
#       q_nm^-1             I 
  2.003187e-02    9.939744e-02
  3.590745e-02    2.276886e-01
  5.178302e-02    1.161017e-01
  6.765859e-02    1.099796e-01
  8.353417e-02    1.729611e-01
  9.940974e-02    8.130342e-02
  1.152853e-01    4.398035e-03
  1.311609e-01    2.308495e-03
  1.470365e-01    2.606039e-02
  1.629120e-01    4.284490e-02
  1.787876e-01    4.551537e-02
  1.946632e-01    3.904471e-02
  2.105388e-01    1.039867e-02
  2.264143e-01    4.826560e-02
  2.422899e-01    4.299632e-02
  2.581655e-01    2.225235e-02
  2.740411e-01    4.942555e-02
  2.899166e-01    1.609792e-02
  3.057922e-01    7.226754e-03
  3.216678e-01    2.875692e-02
  3.375433e-01    2.954456e-02
  3.534189e-01    1.610771e-02
  3.692945e-01    4.386901e-02
  3.851701e-01    2.463123e-02
  4.010456e-01    3.108934e-02
  4.169212e-01    4.864651e-02
  4.327968e-01    3.085552e-02
  4.486724e-01    1.615051e-02
  4.645479e-01    1.699816e-02
  4.804235e-01    3.188610e-02
  4.962991e-01    9.637572e-03
  5.121747e-01    1.726375e-02
  5.280502e-01    3.212026e-02
  5.439258e-01    2.730208e-02
  5.598014e-01    7.627946e-02
  5.756770e-01    6.942725e-02
  5.915525e-01    6.863012e-02
  6.074281e-01    4.349190e-02
  6.233037e-01    2.321314e-02
  6.391793e-01    4.773867e-02
  6.550548e-01    2.836208e-02
  6.709304e-01    2.055932e-02
  6.868060e-01    2.689925e-02
  7.026815e-01    2.851539e-02
  7.185571e-01    2.453023e-02
  7.344327e-01    2.805185e-02
  7.503083e-01    4.307344e-02
  7.661838e-01    8.501873e-02
  7.820594e-01    1.383776e-01
  7.979350e-01    1.470896e-01
  8.138106e-01    1.901673e-01
  8.296861e-01    2.495108e-01
  8.455617e-01    3.028675e-01
  8.614373e-01    3.454817e-01
  8.773129e-01    3.854670e-01
  8.931884e-01    4.278665e-01
  9.090640e-01    5.853785e-01
  9.249396e-01    6.197434e-01
  9.408152e-01    6.399558e-01
  9.566907e-01    6.998348e-01
  9.725663e-01    8.734860e-01
  9.884419e-01    9.514040e-01
  1.004317e+00    1.064075e+00
  1.020193e+00    1.180485e+00
  1.036069e+00    1.160119e+00
  1.051944e+00    1.169715e+00
  1.067820e+00    1.284073e+00
  1.083695e+00    1.357328e+00
  1.099571e+00    1.382505e+00
  1.115446e+00    1.417380e+00
  1.131322e+00    1.376507e+00
  1.147198e+00    1.337762e+00
  1.163073e+00    1.428875e+00
  1.178949e+00    1.499293e+00
  1.194824e+00    1.526427e+00
  1.210700e+00    1.726458e+00
  1.226575e+00    2.110385e+00
  1.242451e+00    2.230211e+00
  1.258327e+00    2.237390e+00
  1.274202e+00    2.383546e+00
  1.290078e+00    2.415787e+00
  1.305953e+00    2.417308e+00
  1.321829e+00    2.452351e+00
  1.337705e+00    2.418784e+00
  1.353580e+00    2.579565e+00
  1.369456e+00    2.542072e+00
  1.385331e+00    2.505653e+00
  1.401207e+00    2.616899e+00
  1.417082e+00    2.608063e+00
  1.432958e+00    2.527260e+00
  1.448834e+00    2.657526e+00
  1.464709e+00    2.617219e+00
  1.480585e+00    2.666332e+00
  1.496460e+00    2.826155e+00
  1.512336e+00    2.889625e+00
  1.528211e+00    2.998904e+00
  1.544087e+00    3.034321e+00
  1.559963e+00    2.900803e+00
  1.575838e+00    2.975484e+00
  1.591714e+00    2.891806e+00
  1.607589e+00    2.822274e+00
  1.623465e+00    2.743726e+00
  1.639340e+00    2.713434e+00
  1.655216e+00    2.747479e+00
  1.671092e+00    2.927079e+00
  1.686967e+00    2.965433e+00
  1.702843e+00    2.925509e+00
  1.718718e+00    2.820626e+00
  1.734594e+00    2.835224e+00
  1.750469e+00    2.746334e+00
  1.766345e+00    2.736728e+00
  1.782221e+00    2.665836e+00
  1.798096e+00    2.665294e+00
  1.813972e+00    2.700090e+00
  1.829847e+00    2.647501e+00
  1.845723e+00    2.578027e+00
  1.861598e+00    2.733715e+00
  1.877474e+00    2.720423e+00
  1.893350e+00    2.713508e+00
  1.909225e+00    2.684082e+00
  1.925101e+00    2.640723e+00
  1.940976e+00    2.610605e+00
  1.956852e+00    2.650095e+00
  1.972727e+00    2.681715e+00
  1.988603e+00    2.680672e+00
  2.004479e+00    2.669450e+00
  2.020354e+00    2.637022e+00
  2.036230e+00    2.658338e+00
  2.052105e+00    2.637211e+00
  2.067981e+00    2.608708e+00
  2.083856e+00    2.616381e+00
  2.099732e+00    2.750280e+00
  2.115608e+00    2.706253e+00
  2.131483e+00    2.701943e+00
  2.147359e+00    2.605500e+00
  2.163234e+00    2.644926e+00
  2.179110e+00    2.733123e+00
  2.194985e+00    2.702790e+00
  2.210861e+00    2.753690e+00
  2.226737e+00    2.646307e+00
  2.242612e+00    2.689740e+00
  2.258488e+00    2.654540e+00
  2.274363e+00    2.620219e+00
  2.290239e+00    2.699031e+00
  2.306115e+00    2.718294e+00
  2.321990e+00    2.582218e+00
  2.337866e+00    2.535967e+00
  2.353741e+00    2.698676e+00
  2.369617e+00    2.703559e+00
  2.385492e+00    2.668014e+00
  2.401368e+00    2.760936e+00
  2.417244e+00    2.730012e+00
  2.433119e+00    2.698181e+00
  2.448995e+00    2.646849e+00
  2.464870e+00    2.690688e+00
  2.480746e+00    2.735172e+00
  2.496621e+00    2.693643e+00
  2.512497e+00    2.733266e+00
  2.528373e+00    2.671500e+00
  2.544248e+00    2.695491e+00
  2.560124e+00    2.650971e+00
  2.575999e+00    2.778118e+00
  2.591875e+00    2.663431e+00
  2.607750e+00    2.939133e+00
  2.623626e+00    2.909258e+00
  2.639502e+00    2.747946e+00
  2.655377e+00    2.721535e+00
  2.671253e+00    2.779899e+00
  2.687128e+00    2.755936e+00
  2.703004e+00    2.651525e+00
  2.718879e+00    2.811245e+00
  2.734755e+00    2.779429e+00
  2.750631e+00    2.754508e+00
  2.766506e+00    2.718882e+00
  2.782382e+00    2.743237e+00
  2.798257e+00    2.778100e+00
  2.814133e+00    2.848529e+00
  2.830008e+00    2.817122e+00
  2.845884e+00    2.904008e+00
  2.861760e+00    2.756886e+00
  2.877635e+00    2.788619e+00
  2.893511e+00    2.876789e+00
  2.909386e+00    2.873401e+00
  2.925262e+00    2.811050e+00
  2.941137e+00    2.711063e+00
  2.957013e+00    2.730949e+00
  2.972889e+00    2.827484e+00
  2.988764e+00    2.892358e+00
  3.004640e+00    2.890401e+00
  3.020515e+00    2.963550e+00
  3.036391e+00    2.979037e+00
  3.052266e+00    2.868481e+00
  3.068142e+00    2.758621e+00
  3.084018e+00    2.685070e+00
  3.099893e+00    2.810419e+00
  3.115769e+00    2.881357e+00
  3.131644e+00    2.826085e+00
  3.147520e+00    2.813735e+00
  3.163395e+00    2.856241e+00
  3.179271e+00    2.921158e+00
  3.195147e+00    2.915344e+00
  3.211022e+00    3.017025e+00
  3.226898e+00    2.966042e+00
  3.242773e+00    2.830453e+00
  3.258649e+00    2.816835e+00
  3.274525e+00    2.926013e+00
  3.290400e+00    2.846450e+00
  3.306276e+00    2.848219e+00
  3.322151e+00    2.873535e+00
  3.338027e+00    2.875541e+00
  3.353902e+00    2.871373e+00
  3.369778e+00    2.861417e+00
  3.385654e+00    2.850421e+00
  3.401529e+00    2.800202e+00
  3.417405e+00    2.812341e+00
  3.433280e+00    2.864080e+00
  3.449156e+00    2.936301e+00
  3.465031e+00    2.964779e+00
  3.480907e+00    2.870777e+00
  3.496783e+00    2.850271e+00
  3.512658e+00    2.896603e+00
  3.528534e+00    2.937841e+00
  3.544409e+00    2.897708e+00
  3.560285e+00    2.858330e+00
  3.576160e+00    3.023258e+00
  3.592036e+00    2.947216e+00
  3.607912e+00    2.864356e+00
  3.623787e+00    2.819968e+00
  3.639663e+00    2.877725e+00
  3.655538e+00    3.001229e+00
  3.671414e+00    3.039386e+00
  3.687289e+00    2.908325e+00
  3.703165e+00    2.894957e+00
  3.719041e+00    2.919579e+00
  3.734916e+00    2.901388e+00
  3.750792e+00    2.925974e+00
  3.766667e+00    3.020782e+00
  3.782543e+00    2.954648e+00
  3.798418e+00    2.942843e+00
  3.814294e+00    3.022997e+00
  3.830170e+00    2.974674e+00
  3.846045e+00    2.895279e+00
  3.861921e+00    2.923694e+00
  3.877796e+00    2.934335e+00
  3.893672e+00    2.937537e+00
  3.909547e+00    2.920356e+00
  3.925423e+00    2.839244e+00
  3.941299e+00    2.880200e+00
  3.957174e+00    2.955613e+00
  3.973050e+00    3.035983e+00
  3.988925e+00    2.959864e+00
  4.004801e+00    2.965776e+00
  4.020676e+00    2.999386e+00
  4.036552e+00    3.017596e+00
  4.052428e+00    2.993920e+00
  4.068303e+00    2.981220e+00
  4.084179e+00    3.020725e+00
  4.100054e+00    3.009908e+00
  4.115930e+00    2.949730e+00
  4.131806e+00    2.886749e+00
  4.147681e+00    2.938554e+00
  4.163557e+00    2.974681e+00
  4.179432e+00    2.977733e+00
  4.195308e+00    2.959821e+00
  4.211183e+00    2.976126e+00
  4.227059e+00    3.000057e+00
  4.242935e+00    2.889559e+00
  4.258810e+00    2.907808e+00
  4.274686e+00    2.961462e+00
  4.290561e+00    2.977108e+00
  4.306437e+00    2.978224e+00
  4.322312e+00    3.058850e+00
  4.338188e+00    3.051084e+00
  4.354064e+00    2.942451e+00
  4.369939e+00    2.863371e+00
  4.385815e+00    2.968575e+00
  4.401690e+00    3.025169e+00
  4.417566e+00    3.048176e+00
  4.433441e+00    2.997063e+00
  4.449317e+00    2.988906e+00
  4.465193e+00    3.054465e+00
  4.481068e+00    3.090931e+00
  4.496944e+00    3.013777e+00
  4.512819e+00    3.003425e+00
  4.528695e+00    3.076003e+00
  4.544570e+00    3.089302e+00
  4.560446e+00    3.011202e+00
  4.576322e+00    2.968358e+00
  4.592197e+00    3.001764e+00
  4.608073e+00    2.990667e+00
  4.623948e+00    2.976093e+00
  4.639824e+00    2.982990e+00
  4.655699e+00    3.055982e+00
  4.671575e+00    3.049985e+00
  4.687451e+00    3.005968e+00
  4.703326e+00    3.055394e+00
  4.719202e+00    3.018932e+00
  4.735077e+00    3.061719e+00
  4.750953e+00    3.062282e+00
  4.766828e+00    3.054783e+00
  4.782704e+00    3.136589e+00
  4.798580e+00    3.109886e+00
  4.814455e+00    3.081972e+00
  4.830331e+00    3.090444e+00
  4.846206e+00    3.054410e+00
  4.862082e+00    2.983303e+00
  4.877957e+00    3.002434e+00
  4.893833e+00    3.030012e+00
  4.909709e+00    3.011200e+00
  4.925584e+00    3.065565e+00
  4.941460e+00    3.088112e+00
  4.957335e+00    3.061000e+00
  4.973211e+00    3.050343e+00
  4.989086e+00    3.092474e+00
  5.004962e+00    3.049740e+00
  5.020838e+00    3.097265e+00
  5.036713e+00    3.065300e+00
  5.052589e+00    3.071874e+00
  5.068464e+00    3.081503e+00
  5.084340e+00    3.067270e+00
  5.100216e+00    3.111422e+00
  5.116091e+00    3.065693e+00
  5.131967e+00    3.008618e+00
  5.147842e+00    3.048859e+00
  5.163718e+00    3.064138e+00
  5.179593e+00    3.096046e+00
  5.195469e+00    3.056846e+00
  5.211345e+00    3.086590e+00
  5.227220e+00    3.172010e+00
  5.243096e+00    3.176504e+00
  5.258971e+00    3.090040e+00
  5.274847e+00    3.136353e+00
  5.290722e+00    3.049432e+00
  5.306598e+00    3.028315e+00
  5.322474e+00    3.049348e+00
  5.338349e+00    3.098443e+00
  5.354225e+00    3.056736e+00
  5.370100e+00    3.097782e+00
  5.385976e+00    3.112758e+00
  5.401851e+00    3.109160e+00
  5.417727e+00    3.056601e+00
  5.433603e+00    3.027849e+00
  5.449478e+00    2.957568e+00
  5.465354e+00    2.965915e+00
  5.481229e+00    2.967845e+00
  5.497105e+00    3.015490e+00
  5.512980e+00    2.987336e+00
  5.528856e+00    2.972353e+00
  5.544732e+00    3.049616e+00
  5.560607e+00    3.015175e+00
  5.576483e+00    3.065678e+00
  5.592358e+00    3.053264e+00
  5.608234e+00    3.017138e+00
  5.624109e+00    3.071188e+00
  5.639985e+00    3.100787e+00
  5.655861e+00    3.005025e+00
  5.671736e+00    3.017102e+00
  5.687612e+00    3.058106e+00
  5.703487e+00    2.978905e+00
  5.719363e+00    2.985891e+00
  5.735238e+00    2.960878e+00
  5.751114e+00    2.988288e+00
  5.766990e+00    2.994357e+00
  5.782865e+00    2.993304e+00
  5.798741e+00    2.997683e+00
  5.814616e+00    2.971485e+00
  5.830492e+00    2.967231e+00
  5.846367e+00    3.006012e+00
  5.862243e+00    2.951077e+00
  5.878119e+00    3.000232e+00
  5.893994e+00    3.030388e+00
  5.909870e+00    3.002874e+00
  5.925745e+00    2.959043e+00
  5.941621e+00    2.948401e+00
  5.957497e+00    3.029923e+00
  5.973372e+00    2.925868e+00
  5.989248e+00    3.051675e+00
  6.005123e+00    2.993884e+00
  6.020999e+00    2.918903e+00
  6.036874e+00    2.897924e+00
  6.052750e+00    2.903363e+00
  6.068626e+00    2.967475e+00
  6.084501e+00    2.984387e+00
  6.100377e+00    3.015267e+00
  6.116252e+00    3.051051e+00
  6.132128e+00    2.957191e+00
  6.148003e+00    2.990910e+00
  6.163879e+00    2.959059e+00
  6.179755e+00    3.049877e+00
  6.195630e+00    3.043034e+00
  6.211506e+00    2.976520e+00
  6.227381e+00    2.937190e+00
  6.243257e+00    2.933143e+00
  6.259132e+00    3.013340e+00
  6.275008e+00    3.081699e+00
  6.290884e+00    3.059918e+00
  6.306759e+00    2.965486e+00
  6.322635e+00    3.057825e+00
  6.338510e+00    2.972555e+00
  6.354386e+00    3.000747e+00
  6.370261e+00    3.033928e+00
  6.386137e+00    2.991943e+00
  6.402013e+00    2.973037e+00
  6.417888e+00    2.952861e+00
  6.433764e+00    2.930278e+00
  6.449639e+00    2.928001e+00
  6.465515e+00    2.923458e+00
  6.481390e+00    3.002261e+00
  6.497266e+00    2.954594e+00
  6.513142e+00    3.030502e+00
  6.529017e+00    3.066166e+00
  6.544893e+00    2.995690e+00
  6.560768e+00    2.973064e+00
  6.576644e+00    3.000570e+00
  6.592519e+00    2.979778e+00
  6.608395e+00    2.966583e+00
  6.624271e+00    2.977076e+00
  6.640146e+00    2.983611e+00
  6.656022e+00    3.033892e+00
  6.671897e+00    2.983609e+00
  6.687773e+00    3.009970e+00
  6.703648e+00    2.996371e+00
  6.719524e+00    2.947584e+00
  6.735400e+00    2.906774e+00
  6.751275e+00    2.944375e+00
  6.767151e+00    2.929538e+00
  6.783026e+00    2.907947e+00
  6.798902e+00    2.930470e+00
  6.814777e+00    2.896288e+00
  6.830653e+00    2.892725e+00
  6.846529e+00    2.970024e+00
  6.862404e+00    3.040342e+00
  6.878280e+00    3.018154e+00
  6.894155e+00    2.936241e+00
  6.910031e+00    2.996916e+00
  6.925907e+00    2.960549e+00
  6.941782e+00    2.892411e+00
  6.957658e+00    2.916667e+00
  6.973533e+00    2.928105e+00
  6.989409e+00    2.934105e+00
  7.005284e+00    2.953869e+00
  7.021160e+00    2.984972e+00
  7.037036e+00    2.945646e+00
  7.052911e+00    2.959171e+00
  7.068787e+00    2.980970e+00
  7.084662e+00    2.897934e+00
  7.100538e+00    2.944155e+00
  7.116413e+00    2.961472e+00
  7.132289e+00    2.951809e+00
  7.148165e+00    2.985624e+00
  7.164040e+00    3.000037e+00
  7.179916e+00    2.965267e+00
  7.195791e+00    2.945827e+00
  7.211667e+00    2.950217e+00
  7.227542e+00    2.967147e+00
  7.243418e+00    2.993388e+00
  7.259294e+00    2.955661e+00
  7.275169e+00    2.919820e+00
  7.291045e+00    2.895571e+00
  7.306920e+00    2.960087e+00
  7.322796e+00    2.930668e+00
  7.338671e+00    2.956736e+00
  7.354547e+00    2.997017e+00
  7.370423e+00    2.912463e+00
  7.386298e+00    2.940806e+00
  7.402174e+00    2.938143e+00
  7.418049e+00    2.938193e+00
  7.433925e+00    2.965277e+00
  7.449800e+00    2.974660e+00
  7.465676e+00    3.006498e+00
  7.481552e+00    2.964522e+00
  7.497427e+00    2.888478e+00
  7.513303e+00    2.873765e+00
  7.529178e+00    2.882693e+00
  7.545054e+00    2.938294e+00
  7.560929e+00    2.918484e+00
  7.576805e+00    2.896597e+00
  7.592681e+00    2.926085e+00
  7.608556e+00    2.897302e+00
  7.624432e+00    2.921161e+00
  7.640307e+00    2.855893e+00
  7.656183e+00    2.912636e+00
  7.672058e+00    2.944984e+00
  7.687934e+00    2.872884e+00
  7.703810e+00    2.879149e+00
  7.719685e+00    2.881241e+00
  7.735561e+00    2.858254e+00
  7.751436e+00    2.826938e+00
  7.767312e+00    2.870419e+00
  7.783187e+00    2.906750e+00
  7.799063e+00    2.927990e+00
  7.814939e+00    2.873640e+00
  7.830814e+00    2.919487e+00
  7.846690e+00    2.866783e+00
  7.862565e+00    2.873104e+00
  7.878441e+00    2.853571e+00
  7.894317e+00    2.881639e+00
  7.910192e+00    2.864842e+00
  7.926068e+00    2.882987e+00
  7.941943e+00    2.925252e+00
  7.957819e+00    2.908339e+00
  7.973694e+00    2.888947e+00
  7.989570e+00    2.824611e+00
  8.005446e+00    2.897104e+00
  8.021321e+00    2.947773e+00
  8.037197e+00    2.944443e+00
  8.053072e+00    2.878849e+00
  8.068948e+00    2.847899e+00
  8.084823e+00    2.840457e+00
  8.100699e+00    2.836331e+00
  8.116575e+00    2.877688e+00
  8.132450e+00    2.854359e+00
  8.148326e+00    2.844988e+00
  8.164201e+00    2.852549e+00
  8.180077e+00    2.825619e+00
  8.195952e+00    2.853189e+00
  8.211828e+00    2.909097e+00
  8.227704e+00    2.976199e+00
  8.243579e+00    2.964294e+00
  8.259455e+00    2.888615e+00
  8.275330e+00    2.882869e+00
  8.291206e+00    2.878211e+00
  8.307081e+00    2.892539e+00
  8.322957e+00    2.866434e+00
  8.338833e+00    2.827601e+00
  8.354708e+00    2.836157e+00
  8.370584e+00    2.919214e+00
  8.386459e+00    2.881406e+00
  8.402335e+00    2.838501e+00
  8.418210e+00    2.830926e+00
  8.434086e+00    2.875374e+00
  8.449962e+00    2.863926e+00
  8.465837e+00    2.775931e+00
  8.481713e+00    2.821164e+00
  8.497588e+00    2.873237e+00
  8.513464e+00    2.884586e+00
  8.529339e+00    2.857092e+00
  8.545215e+00    2.796547e+00
  8.561091e+00    2.858602e+00
  8.576966e+00    2.855423e+00
  8.592842e+00    2.813262e+00
  8.608717e+00    2.835972e+00
  8.624593e+00    2.847357e+00
  8.640468e+00    2.827107e+00
  8.656344e+00    2.836585e+00
  8.672220e+00    2.812369e+00
  8.688095e+00    2.761437e+00
  8.703971e+00    2.775791e+00
  8.719846e+00    2.821604e+00
  8.735722e+00    2.849127e+00
  8.751598e+00    2.769454e+00
  8.767473e+00    2.770063e+00
  8.783349e+00    2.720616e+00
  8.799224e+00    2.768214e+00
  8.815100e+00    2.772002e+00
  8.830975e+00    2.791623e+00
  8.846851e+00    2.768851e+00
  8.862727e+00    2.758851e+00
  8.878602e+00    2.825928e+00
  8.894478e+00    2.765091e+00
  8.910353e+00    2.796679e+00
  8.926229e+00    2.763883e+00
  8.942104e+00    2.784257e+00
  8.957980e+00    2.825666e+00
  8.973856e+00    2.757535e+00
  8.989731e+00    2.718418e+00
  9.005607e+00    2.732646e+00
  9.021482e+00    2.724940e+00
  9.037358e+00    2.722901e+00
  9.053233e+00    2.733573e+00
  9.069109e+00    2.716419e+00
  9.084985e+00    2.728563e+00
  9.100860e+00    2.723000e+00
  9.116736e+00    2.735733e+00
  9.132611e+00    2.727171e+00
  9.148487e+00    2.699549e+00
  9.164362e+00    2.687555e+00
  9.180238e+00    2.746176e+00
  9.196114e+00    2.674091e+00
  9.211989e+00    2.700907e+00
  9.227865e+00    2.751798e+00
  9.243740e+00    2.746176e+00
  9.259616e+00    2.765592e+00
  9.275491e+00    2.718578e+00
  9.291367e+00    2.733653e+00
  9.307243e+00    2.720134e+00
  9.323118e+00    2.725809e+00
  9.338994e+00    2.690269e+00
  9.354869e+00    2.748405e+00
  9.370745e+00    2.734634e+00
  9.386620e+00    2.726593e+00
  9.402496e+00    2.726911e+00
  9.418372e+00    2.745304e+00
  9.434247e+00    2.728341e+00
  9.450123e+00    2.742261e+00
  9.465998e+00    2.712912e+00
  9.481874e+00    2.705328e+00
  9.497749e+00    2.727999e+00
  9.513625e+00    2.759703e+00
  9.529501e+00    2.751000e+00
  9.545376e+00    2.745149e+00
  9.561252e+00    2.787293e+00
  9.577127e+00    2.743686e+00
  9.593003e+00    2.731947e+00
  9.608878e+00    2.778628e+00
  9.624754e+00    2.733536e+00
  9.640630e+00    2.696811e+00
  9.656505e+00    2.667642e+00
  9.672381e+00    2.651265e+00
  9.688256e+00    2.655197e+00
  9.704132e+00    2.704817e+00
  9.720008e+00    2.696729e+00
  9.735883e+00    2.689115e+00
  9.751759e+00    2.693604e+00
  9.767634e+00    2.732137e+00
  9.783510e+00    2.697242e+00
  9.799385e+00    2.651707e+00
  9.815261e+00    2.644102e+00
  9.831137e+00    2.689121e+00
  9.847012e+00    2.636120e+00
  9.862888e+00    2.717221e+00
  9.878763e+00    2.723702e+00
  9.894639e+00    2.654163e+00
  9.910514e+00    2.665489e+00
  9.926390e+00    2.678325e+00
  9.942266e+00    2.595985e+00
  9.958141e+00    2.590817e+00
  9.974017e+00    2.628947e+00
  9.989892e+00    2.641436e+00
  1.000577e+01    2.617687e+00
  1.002164e+01    2.672255e+00
  1.003752e+01    2.619994e+00
  1.005339e+01    2.572357e+00
  1.006927e+01    2.639919e+00
  1.008515e+01    2.645977e+00
  1.010102e+01    2.660465e+00
  1.011690e+01    2.625514e+00
  1.013277e+01    2.635015e+00
  1.014865e+01    2.635606e+00
  1.016452e+01    2.580897e+00
  1.018040e+01    2.605403e+00
  1.019627e+01    2.557066e+00
  1.021215e+01    2.542222e+00
  1.022803e+01    2.564124e+00
  1.024390e+01    2.613779e+00
  1.025978e+01    2.592941e+00
  1.027565e+01    2.560805e+00
  1.029153e+01    2.554239e+00
  1.030740e+01    2.610093e+00
  1.032328e+01    2.604231e+00
  1.033915e+01    2.582994e+00
  1.035503e+01    2.580256e+00
  1.037091e+01    2.593646e+00
  1.038678e+01    2.535862e+00
  1.040266e+01    2.608917e+00
  1.041853e+01    2.608279e+00
  1.043441e+01    2.523968e+00
  1.045028e+01    2.482027e+00
  1.046616e+01    2.554243e+00
  1.048204e+01    2.576021e+00
  1.049791e+01    2.518079e+00
  1.051379e+01    2.526676e+00
  1.052966e+01    2.488590e+00
  1.054554e+01    2.521516e+00
  1.056141e+01    2.526365e+00
  1.057729e+01    2.518764e+00
  1.059316e+01    2.502365e+00
  1.060904e+01    2.527858e+00
  1.062492e+01    2.522957e+00
  1.064079e+01    2.522770e+00
  1.065667e+01    2.538627e+00
  1.067254e+01    2.481876e+00
  1.068842e+01    2.488168e+00
  1.070429e+01    2.505018e+00
  1.072017e+01    2.506375e+00
  1.073604e+01    2.527021e+00
  1.075192e+01    2.479163e+00
  1.076780e+01    2.463978e+00
  1.078367e+01    2.490234e+00
  1.079955e+01    2.494776e+00
  1.081542e+01    2.473610e+00
  1.083130e+01    2.519106e+00
  1.084717e+01    2.463613e+00
  1.086305e+01    2.472030e+00
  1.087892e+01    2.477919e+00
  1.089480e+01    2.447887e+00
  1.091068e+01    2.492077e+00
  1.092655e+01    2.527714e+00
  1.094243e+01    2.502850e+00
  1.095830e+01    2.437957e+00
  1.097418e+01    2.447548e+00
  1.099005e+01    2.429874e+00
  1.100593e+01    2.458267e+00
  1.102180e+01    2.492370e+00
  1.103768e+01    2.466395e+00
  1.105356e+01    2.450701e+00
  1.106943e+01    2.428891e+00
  1.108531e+01    2.425894e+00
  1.110118e+01    2.421956e+00
  1.111706e+01    2.447583e+00
  1.113293e+01    2.411194e+00
  1.114881e+01    2.379252e+00
  1.116468e+01    2.411211e+00
  1.118056e+01    2.448686e+00
  1.119644e+01    2.423108e+00
  1.121231e+01    2.397352e+00
  1.122819e+01    2.451384e+00
  1.124406e+01    2.437992e+00
  1.125994e+01    2.399497e+00
  1.127581e+01    2.356534e+00
  1.129169e+01    2.375160e+00
  1.130756e+01    2.337579e+00
  1.132344e+01    2.354434e+00
  1.133932e+01    2.390729e+00
  1.135519e+01    2.369406e+00
  1.137107e+01    2.354912e+00
  1.138694e+01    2.421278e+00
  1.140282e+01    2.399269e+00
  1.141869e+01    2.395165e+00
  1.143457e+01    2.385933e+00
  1.145045e+01    2.375978e+00
  1.146632e+01    2.357937e+00
  1.148220e+01    2.393748e+00
  1.149807e+01    2.362868e+00
  1.151395e+01    2.349044e+00
  1.152982e+01    2.312478e+00
  1.154570e+01    2.317051e+00
  1.156157e+01    2.318857e+00
  1.157745e+01    2.330830e+00
  1.159333e+01    2.324946e+00
  1.160920e+01    2.312555e+00
  1.162508e+01    2.299144e+00
  1.164095e+01    2.374318e+00
  1.165683e+01    2.381207e+00
  1.167270e+01    2.369228e+00
  1.168858e+01    2.336891e+00
  1.170445e+01    2.334003e+00
  1.172033e+01    2.318246e+00
  1.173621e+01    2.296304e+00
  1.175208e+01    2.285830e+00
  1.176796e+01    2.322976e+00
  1.178383e+01    2.275064e+00
  1.179971e+01    2.279775e+00
  1.181558e+01    2.298852e+00
  1.183146e+01    2.279283e+00
  1.184733e+01    2.290575e+00
  1.186321e+01    2.304212e+00
  1.187909e+01    2.335508e+00
  1.189496e+01    2.317848e+00
  1.191084e+01    2.313691e+00
  1.192671e+01    2.311804e+00
  1.194259e+01    2.244627e+00
  1.195846e+01    2.230963e+00
  1.197434e+01    2.279197e+00
  1.199021e+01    2.296478e+00
  1.200609e+01    2.284205e+00
  1.202197e+01    2.292645e+00
  1.203784e+01    2.267896e+00
  1.205372e+01    2.312589e+00
  1.206959e+01    2.320900e+00
  1.208547e+01    2.289643e+00
  1.210134e+01    2.276386e+00
  1.211722e+01    2.302359e+00
  1.213309e+01    2.320248e+00
  1.214897e+01    2.276379e+00
  1.216485e+01    2.287174e+00
  1.218072e+01    2.282693e+00
  1.219660e+01    2.297996e+00
  1.221247e+01    2.303418e+00
  1.222835e+01    2.276626e+00
  1.224422e+01    2.242017e+00
  1.226010e+01    2.279119e+00
  1.227597e+01    2.296839e+00
  1.229185e+01    2.296347e+00
  1.230773e+01    2.293402e+00
  1.232360e+01    2.294415e+00
  1.233948e+01    2.294981e+00
  1.235535e+01    2.287904e+00
  1.237123e+01    2.267118e+00
  1.238710e+01    2.268679e+00
  1.240298e+01    2.265550e+00
  1.241886e+01    2.288646e+00
  1.243473e+01    2.325234e+00
  1.245061e+01    2.309268e+00
  1.246648e+01    2.289384e+00
  1.248236e+01    2.292849e+00
  1.249823e+01    2.277756e+00
  1.251411e+01    2.291898e+00
  1.252998e+01    2.330532e+00
  1.254586e+01    2.343359e+00
  1.256174e+01    2.313516e+00
  1.257761e+01    2.287801e+00
  1.259349e+01    2.322238e+00
  1.260936e+01    2.379930e+00
  1.262524e+01    2.359912e+00
  1.264111e+01    2.378304e+00
  1.265699e+01    2.371532e+00
  1.267286e+01    2.365521e+00
  1.268874e+01    2.359570e+00
  1.270462e+01    2.435805e+00
  1.272049e+01    2.427492e+00
  1.273637e+01    2.441005e+00
  1.275224e+01    2.531288e+00
  1.276812e+01    2.575386e+00
  1.278399e+01    2.584158e+00
  1.279987e+01    2.617025e+00
  1.281574e+01    2.683574e+00
  1.283162e+01    2.753175e+00
  1.284750e+01    2.799948e+00
  1.286337e+01    2.883761e+00
  1.287925e+01    3.002724e+00
  1.289512e+01    3.169613e+00
  1.291100e+01    3.296134e+00
  1.292687e+01    3.464556e+00
  1.294275e+01    3.628684e+00
  1.295862e+01    3.874846e+00
  1.297450e+01    4.276682e+00
  1.299038e+01    4.739400e+00
  1.300625e+01    5.266348e+00
  1.302213e+01    5.964919e+00
  1.303800e+01    6.979786e+00
  1.305388e+01    8.077316e+00
  1.306975e+01    9.395110e+00
  1.308563e+01    1.072577e+01
  1.310150e+01    1.212045e+01
  1.311738e+01    1.336654e+01
  1.313326e+01    1.461080e+01
  1.314913e+01    1.584191e+01
  1.316501e+01    1.690459e+01
  1.318088e+01    1.747186e+01
  1.319676e+01    1.731119e+01
  1.321263e+01    1.625108e+01
  1.322851e+01    1.448982e+01
  1.324438e+01    1.240205e+01
  1.326026e+01    1.041642e+01
  1.327614e+01    8.826854e+00
  1.329201e+01    7.453266e+00
  1.330789e+01    6.459658e+00
  1.332376e+01    5.636011e+00
  1.333964e+01    4.939270e+00
  1.335551e+01    4.432107e+00
  1.337139e+01    4.061938e+00
  1.338727e+01    3.798719e+00
  1.340314e+01    3.540728e+00
  1.341902e+01    3.329848e+00
  1.343489e+01    3.125534e+00
  1.345077e+01    3.003001e+00
  1.346664e+01    2.871851e+00
  1.348252e+01    2.773030e+00
  1.349839e+01    2.705332e+00
  1.351427e+01    2.622358e+00
  1.353015e+01    2.537298e+00
  1.354602e+01    2.500060e+00
  1.356190e+01    2.453348e+00
  1.357777e+01    2.391281e+00
  1.359365e+01    2.411992e+00
  1.360952e+01    2.368791e+00
  1.362540e+01    2.345277e+00
  1.364127e+01    2.304064e+00
  1.365715e+01    2.292312e+00
  1.367303e+01    2.287986e+00
  1.368890e+01    2.266183e+00
  1.370478e+01    2.265944e+00
  1.372065e+01    2.181845e+00
  1.373653e+01    2.151431e+00
  1.375240e+01    2.144246e+00
  1.376828e+01    2.136368e+00
  1.378415e+01    2.113205e+00
  1.380003e+01    2.125293e+00
  1.381591e+01    2.104807e+00
  1.383178e+01    2.126307e+00
  1.384766e+01    2.114817e+00
  1.386353e+01    2.100145e+00
  1.387941e+01    2.026627e+00
  1.389528e+01    2.044991e+00
  1.391116e+01    2.087068e+00
  1.392703e+01    2.067589e+00
  1.394291e+01    2.058781e+00
  1.395879e+01    2.075274e+00
  1.397466e+01    2.049850e+00
  1.399054e+01    2.049620e+00
  1.400641e+01    2.023984e+00
  1.402229e+01    2.033268e+00
  1.403816e+01    1.959387e+00
  1.405404e+01    2.014655e+00
  1.406991e+01    2.009781e+00
  1.408579e+01    1.990431e+00
  1.410167e+01    1.979354e+00
  1.411754e+01    2.005850e+00
  1.413342e+01    1.938336e+00
  1.414929e+01    1.961877e+00
  1.416517e+01    1.978627e+00
  1.418104e+01    1.976682e+00
  1.419692e+01    1.966280e+00
  1.421279e+01    1.984728e+00
  1.422867e+01    1.959508e+00
  1.424455e+01    1.946720e+00
  1.426042e+01    1.962689e+00
  1.427630e+01    1.923702e+00
  1.429217e+01    1.892269e+00
  1.430805e+01    1.912453e+00
  1.432392e+01    1.909922e+00
  1.433980e+01    1.939114e+00
  1.435568e+01    1.926904e+00
  1.437155e+01    1.943736e+00
  1.438743e+01    1.915233e+00
  1.440330e+01    1.867906e+00
  1.441918e+01    1.871660e+00
  1.443505e+01    1.914985e+00
  1.445093e+01    1.913907e+00
  1.446680e+01    1.904089e+00
  1.448268e+01    1.887682e+00
  1.449856e+01    1.887048e+00
  1.451443e+01    1.913899e+00
  1.453031e+01    1.936388e+00
  1.454618e+01    1.926816e+00
  1.456206e+01    1.896608e+00
  1.457793e+01    1.892875e+00
  1.459381e+01    1.883473e+00
  1.460968e+01    1.898406e+00
  1.462556e+01    1.882274e+00
  1.464144e+01    1.922259e+00
  1.465731e+01    1.870178e+00
  1.467319e+01    1.892297e+00
  1.468906e+01    1.889166e+00
  1.470494e+01    1.883216e+00
  1.472081e+01    1.930117e+00
  1.473669e+01    1.914131e+00
  1.475256e+01    1.884553e+00
  1.476844e+01    1.849020e+00
  1.478432e+01    1.891041e+00
  1.480019e+01    1.920818e+00
  1.481607e+01    1.899174e+00
  1.483194e+01    1.883471e+00
  1.484782e+01    1.897483e+00
  1.486369e+01    1.894426e+00
  1.487957e+01    1.909978e+00
  1.489544e+01    1.919523e+00
  1.491132e+01    1.937791e+00
  1.492720e+01    1.936567e+00
  1.494307e+01    1.969252e+00
  1.495895e+01    1.993854e+00
  1.497482e+01    2.035793e+00
  1.499070e+01    2.070726e+00
  1.500657e+01    2.124712e+00
  1.502245e+01    2.158246e+00
  1.503832e+01    2.261764e+00
  1.505420e+01    2.361310e+00
  1.507008e+01    2.418141e+00
  1.508595e+01    2.584362e+00
  1.510183e+01    2.812978e+00
  1.511770e+01    3.013489e+00
  1.513358e+01    3.320157e+00
  1.514945e+01    3.724233e+00
  1.516533e+01    4.035650e+00
  1.518120e+01    4.453882e+00
  1.519708e+01    4.808155e+00
  1.521296e+01    5.105330e+00
  1.522883e+01    5.480601e+00
  1.524471e+01    5.759326e+00
  1.526058e+01    5.882497e+00
  1.527646e+01    5.948931e+00
  1.529233e+01    5.816334e+00
  1.530821e+01    5.510750e+00
  1.532409e+01    5.031006e+00
  1.533996e+01    4.453927e+00
  1.535584e+01    3.923166e+00
  1.537171e+01    3.475641e+00
  1.538759e+01    3.162117e+00
  1.540346e+01    2.889158e+00
  1.541934e+01    2.638161e+00
  1.543521e+01    2.451164e+00
  1.545109e+01    2.300320e+00
  1.546697e+01    2.239330e+00
  1.548284e+01    2.133956e+00
  1.549872e+01    2.034720e+00
  1.551459e+01    2.009629e+00
  1.553047e+01    1.926141e+00
  1.554634e+01    1.879487e+00
  1.556222e+01    1.877887e+00
  1.557809e+01    1.876808e+00
  1.559397e+01    1.819676e+00
  1.560985e+01    1.797985e+00
  1.562572e+01    1.781283e+00
  1.564160e+01    1.761346e+00
  1.565747e+01    1.730578e+00
  1.567335e+01    1.730879e+00
  1.568922e+01    1.721422e+00
  1.570510e+01    1.735645e+00
  1.572097e+01    1.689515e+00
  1.573685e+01    1.676253e+00
  1.575273e+01    1.686347e+00
  1.576860e+01    1.686676e+00
  1.578448e+01    1.686877e+00
  1.580035e+01    1.659229e+00
  1.581623e+01    1.651899e+00
  1.583210e+01    1.672862e+00
  1.584798e+01    1.658751e+00
  1.586385e+01    1.619658e+00
  1.587973e+01    1.615980e+00
  1.589561e+01    1.628795e+00
  1.591148e+01    1.624173e+00
  1.592736e+01    1.624930e+00
  1.594323e+01    1.577353e+00
  1.595911e+01    1.556213e+00
  1.597498e+01    1.576376e+00
  1.599086e+01    1.600846e+00
  1.600673e+01    1.588687e+00
  1.602261e+01    1.572600e+00
  1.603849e+01    1.572054e+00
  1.605436e+01    1.590065e+00
  1.607024e+01    1.552693e+00
  1.608611e+01    1.564946e+00
  1.610199e+01    1.544784e+00
  1.611786e+01    1.556668e+00
  1.613374e+01    1.543406e+00
  1.614961e+01    1.545005e+00
  1.616549e+01    1.557937e+00
  1.618137e+01    1.565029e+00
  1.619724e+01    1.557412e+00
  1.621312e+01    1.550582e+00
  1.622899e+01    1.558560e+00
  1.624487e+01    1.559849e+00
  1.626074e+01    1.511501e+00
  1.627662e+01    1.502685e+00
  1.629250e+01    1.536605e+00
  1.630837e+01    1.512503e+00
  1.632425e+01    1.515445e+00
  1.634012e+01    1.494486e+00
  1.635600e+01    1.501371e+00
  1.637187e+01    1.528872e+00
  1.638775e+01    1.504356e+00
  1.640362e+01    1.513561e+00
  1.641950e+01    1.507994e+00
  1.643538e+01    1.534167e+00
  1.645125e+01    1.531012e+00
  1.646713e+01    1.536729e+00
  1.648300e+01    1.527752e+00
  1.649888e+01    1.483048e+00
  1.651475e+01    1.462817e+00
  1.653063e+01    1.463194e+00
  1.654650e+01    1.512306e+00
  1.656238e+01    1.504184e+00
  1.657826e+01    1.490752e+00
  1.659413e+01    1.442378e+00
  1.661001e+01    1.455249e+00
  1.662588e+01    1.438661e+00
  1.664176e+01    1.451740e+00
  1.665763e+01    1.441982e+00
  1.667351e+01    1.444525e+00
  1.668938e+01    1.423697e+00
  1.670526e+01    1.437361e+00
  1.672114e+01    1.444103e+00
  1.673701e+01    1.408801e+00
  1.675289e+01    1.414777e+00
  1.676876e+01    1.432289e+00
  1.678464e+01    1.465184e+00
  1.680051e+01    1.451911e+00
  1.681639e+01    1.434394e+00
  1.683226e+01    1.456339e+00
  1.684814e+01    1.430221e+00
  1.686402e+01    1.421947e+00
  1.687989e+01    1.427515e+00
  1.689577e+01    1.443667e+00
  1.691164e+01    1.427853e+00
  1.692752e+01    1.438594e+00
  1.694339e+01    1.444280e+00
  1.695927e+01    1.421309e+00
  1.697514e+01    1.423425e+00
  1.699102e+01    1.444722e+00
  1.700690e+01    1.420353e+00
  1.702277e+01    1.392287e+00
  1.703865e+01    1.408450e+00
  1.705452e+01    1.401932e+00
  1.707040e+01    1.403992e+00
  1.708627e+01    1.379767e+00
  1.710215e+01    1.379801e+00
  1.711802e+01    1.393619e+00
  1.713390e+01    1.367925e+00
  1.714978e+01    1.386468e+00
  1.716565e+01    1.392588e+00
  1.718153e+01    1.387154e+00
  1.719740e+01    1.395048e+00
  1.721328e+01    1.419173e+00
  1.722915e+01    1.377984e+00
  1.724503e+01    1.354023e+00
  1.726091e+01    1.373776e+00
  1.727678e+01    1.414723e+00
  1.729266e+01    1.388402e+00
  1.730853e+01    1.345108e+00
  1.732441e+01    1.352147e+00
  1.734028e+01    1.351186e+00
  1.735616e+01    1.371529e+00
  1.737203e+01    1.400180e+00
  1.738791e+01    1.373289e+00
  1.740379e+01    1.348189e+00
  1.741966e+01    1.343850e+00
  1.743554e+01    1.370738e+00
  1.745141e+01    1.355297e+00
  1.746729e+01    1.337335e+00
  1.748316e+01    1.318927e+00
  1.749904e+01    1.322324e+00
  1.751491e+01    1.306854e+00
  1.753079e+01    1.329788e+00
  1.754667e+01    1.367215e+00
  1.756254e+01    1.353530e+00
  1.757842e+01    1.328441e+00
  1.759429e+01    1.303073e+00
  1.761017e+01    1.311426e+00
  1.762604e+01    1.317166e+00
  1.764192e+01    1.316277e+00
  1.765779e+01    1.345057e+00
  1.767367e+01    1.312821e+00
  1.768955e+01    1.316064e+00
  1.770542e+01    1.294969e+00
  1.772130e+01    1.290879e+00
  1.773717e+01    1.310300e+00
  1.775305e+01    1.317897e+00
  1.776892e+01    1.300588e+00
  1.778480e+01    1.297293e+00
  1.780067e+01    1.290122e+00
  1.781655e+01    1.296696e+00
  1.783243e+01    1.294819e+00
  1.784830e+01    1.280959e+00
  1.786418e+01    1.290482e+00
  1.788005e+01    1.315724e+00
  1.789593e+01    1.268479e+00
  1.791180e+01    1.261640e+00
  1.792768e+01    1.277709e+00
  1.794355e+01    1.301644e+00
  1.795943e+01    1.281105e+00
  1.797531e+01    1.291037e+00
  1.799118e+01    1.301771e+00
  1.800706e+01    1.294699e+00
  1.802293e+01    1.283160e+00
  1.803881e+01    1.277024e+00
  1.805468e+01    1.285208e+00
  1.807056e+01    1.289734e+00
  1.808643e+01    1.282161e+00
  1.810231e+01    1.281064e+00
  1.811819e+01    1.253445e+00
  1.813406e+01    1.251564e+00
  1.814994e+01    1.270907e+00
  1.816581e+01    1.261230e+00
  1.818169e+01    1.267083e+00
  1.819756e+01    1.275257e+00
  1.821344e+01    1.240038e+00
  1.822932e+01    1.249011e+00
  1.824519e+01    1.281788e+00
  1.826107e+01    1.264048e+00
  1.827694e+01    1.279012e+00
  1.829282e+01    1.265598e+00
  1.830869e+01    1.224230e+00
  1.832457e+01    1.234611e+00
  1.834044e+01    1.257896e+00
  1.835632e+01    1.239218e+00
  1.837220e+01    1.232964e+00
  1.838807e+01    1.201454e+00
  1.840395e+01    1.234034e+00
  1.841982e+01    1.260569e+00
  1.843570e+01    1.228862e+00
  1.845157e+01    1.242864e+00
  1.846745e+01    1.225182e+00
  1.848332e+01    1.244986e+00
  1.849920e+01    1.216373e+00
  1.851508e+01    1.210527e+00
  1.853095e+01    1.230757e+00
  1.854683e+01    1.222794e+00
  1.856270e+01    1.222768e+00
  1.857858e+01    1.241394e+00
  1.859445e+01    1.225612e+00
  1.861033e+01    1.221882e+00
  1.862620e+01    1.211793e+00
  1.864208e+01    1.227832e+00
  1.865796e+01    1.206246e+00
  1.867383e+01    1.202170e+00
  1.868971e+01    1.202013e+00
  1.870558e+01    1.182385e+00
  1.872146e+01    1.205241e+00
  1.873733e+01    1.190157e+00
  1.875321e+01    1.186363e+00
  1.876908e+01    1.192954e+00
  1.878496e+01    1.225984e+00
  1.880084e+01    1.230979e+00
  1.881671e+01    1.194732e+00
  1.883259e+01    1.212498e+00
  1.884846e+01    1.207846e+00
  1.886434e+01    1.186483e+00
  1.888021e+01    1.167199e+00
  1.889609e+01    1.181963e+00
  1.891196e+01    1.193583e+00
  1.892784e+01    1.204429e+00
  1.894372e+01    1.193630e+00
  1.895959e+01    1.168427e+00
  1.897547e+01    1.159320e+00
  1.899134e+01    1.154002e+00
  1.900722e+01    1.177726e+00
  1.902309e+01    1.196868e+00
  1.903897e+01    1.193988e+00
  1.905484e+01    1.173900e+00
  1.907072e+01    1.178729e+00
  1.908660e+01    1.153728e+00
  1.910247e+01    1.159219e+00
  1.911835e+01    1.192883e+00
  1.913422e+01    1.190752e+00
  1.915010e+01    1.173206e+00
  1.916597e+01    1.179460e+00
  1.918185e+01    1.179016e+00
  1.919773e+01    1.181146e+00
  1.921360e+01    1.174171e+00
  1.922948e+01    1.181731e+00
  1.924535e+01    1.180866e+00
  1.926123e+01    1.181142e+00
  1.927710e+01    1.176614e+00
  1.929298e+01    1.168357e+00
  1.930885e+01    1.160710e+00
  1.932473e+01    1.145617e+00
  1.934061e+01    1.167063e+00
  1.935648e+01    1.142618e+00
  1.937236e+01    1.143741e+00
  1.938823e+01    1.149440e+00
  1.940411e+01    1.168003e+00
  1.941998e+01    1.165250e+00
  1.943586e+01    1.132665e+00
  1.945173e+01    1.139129e+00
  1.946761e+01    1.158424e+00
  1.948349e+01    1.134676e+00
  1.949936e+01    1.146919e+00
  1.951524e+01    1.152014e+00
  1.953111e+01    1.161337e+00
  1.954699e+01    1.155036e+00
  1.956286e+01    1.143173e+00
  1.957874e+01    1.132071e+00
  1.959461e+01    1.118898e+00
  1.961049e+01    1.121350e+00
  1.962637e+01    1.124817e+00
  1.964224e+01    1.135008e+00
  1.965812e+01    1.143796e+00
  1.967399e+01    1.107094e+00
  1.968987e+01    1.102216e+00
  1.970574e+01    1.156096e+00
  1.972162e+01    1.153407e+00
  1.973749e+01    1.116666e+00
  1.975337e+01    1.113198e+00
  1.976925e+01    1.091998e+00
  1.978512e+01    1.116480e+00
  1.980100e+01    1.091379e+00
  1.981687e+01    1.100800e+00
  1.983275e+01    1.096248e+00
  1.984862e+01    1.116199e+00
  1.986450e+01    1.133114e+00
  1.988037e+01    1.108526e+00
  1.989625e+01    1.095426e+00
  1.991213e+01    1.112034e+00
  1.992800e+01    1.121479e+00
  1.994388e+01    1.105946e+00
  1.995975e+01    1.119814e+00
  1.997563e+01    1.118697e+00
  1.999150e+01    1.097902e+00
  2.000738e+01    1.078989e+00
  2.002325e+01    1.088144e+00
  2.003913e+01    1.120349e+00
  2.005501e+01    1.106393e+00
  2.007088e+01    1.087992e+00
  2.008676e+01    1.099232e+00
  2.010263e+01    1.122556e+00
  2.011851e+01    1.110105e+00
  2.013438e+01    1.105674e+00
  2.015026e+01    1.097778e+00
  2.016614e+01    1.104315e+00
  2.018201e+01    1.119289e+00
  2.019789e+01    1.109442e+00
  2.021376e+01    1.079207e+00
  2.022964e+01    1.091720e+00
  2.024551e+01    1.114487e+00
  2.026139e+01    1.088460e+00
  2.027726e+01    1.089011e+00
  2.029314e+01    1.092083e+00
  2.030902e+01    1.095230e+00
  2.032489e+01    1.080295e+00
  2.034077e+01    1.089653e+00
  2.035664e+01    1.070121e+00
  2.037252e+01    1.072525e+00
  2.038839e+01    1.093544e+00
  2.040427e+01    1.087689e+00
  2.042014e+01    1.094465e+00
  2.043602e+01    1.103284e+00
  2.045190e+01    1.074540e+00
  2.046777e+01    1.090401e+00
  2.048365e+01    1.082581e+00
  2.049952e+01    1.076724e+00
  2.051540e+01    1.081733e+00
  2.053127e+01    1.060456e+00
  2.054715e+01    1.058390e+00
  2.056302e+01    1.066211e+00
  2.057890e+01    1.064278e+00
  2.059478e+01    1.064781e+00
  2.061065e+01    1.062990e+00
  2.062653e+01    1.070967e+00
  2.064240e+01    1.073702e+00
  2.065828e+01    1.066336e+00
  2.067415e+01    1.064220e+00
  2.069003e+01    1.048244e+00
  2.070590e+01    1.050457e+00
  2.072178e+01    1.059127e+00
  2.073766e+01    1.058122e+00
  2.075353e+01    1.044715e+00
  2.076941e+01    1.055106e+00
  2.078528e+01    1.073750e+00
  2.080116e+01    1.069564e+00
  2.081703e+01    1.056203e+00
  2.083291e+01    1.045805e+00
  2.084878e+01    1.046548e+00
  2.086466e+01    1.055603e+00
  2.088054e+01    1.067657e+00
  2.089641e+01    1.037402e+00
  2.091229e+01    1.044880e+00
  2.092816e+01    1.064890e+00
  2.094404e+01    1.076383e+00
  2.095991e+01    1.054007e+00
  2.097579e+01    1.063219e+00
  2.099166e+01    1.075564e+00
  2.100754e+01    1.059074e+00
  2.102342e+01    1.040392e+00
  2.103929e+01    1.046327e+00
  2.105517e+01    1.042151e+00
  2.107104e+01    1.058484e+00
  2.108692e+01    1.077569e+00
  2.110279e+01    1.075631e+00
  2.111867e+01    1.075645e+00
  2.113455e+01    1.067657e+00
  2.115042e+01    1.069533e+00
  2.116630e+01    1.058390e+00
  2.118217e+01    1.059142e+00
  2.119805e+01    1.044382e+00
  2.121392e+01    1.042126e+00
  2.122980e+01    1.059534e+00
  2.124567e+01    1.088073e+00
  2.126155e+01    1.107515e+00
  2.127743e+01    1.109708e+00
  2.129330e+01    1.121361e+00
  2.130918e+01    1.122924e+00
  2.132505e+01    1.118779e+00
  2.134093e+01    1.115575e+00
  2.135680e+01    1.138938e+00
  2.137268e+01    1.135412e+00
  2.138855e+01    1.150557e+00
  2.140443e+01    1.159217e+00
  2.142031e+01    1.174238e+00
  2.143618e+01    1.186689e+00
  2.145206e+01    1.193616e+00
  2.146793e+01    1.205789e+00
  2.148381e+01    1.227835e+00
  2.149968e+01    1.252110e+00
  2.151556e+01    1.286648e+00
  2.153143e+01    1.321535e+00
  2.154731e+01    1.382334e+00
  2.156319e+01    1.418083e+00
  2.157906e+01    1.467893e+00
  2.159494e+01    1.517364e+00
  2.161081e+01    1.564842e+00
  2.162669e+01    1.646793e+00
  2.164256e+01    1.795218e+00
  2.165844e+01    1.908060e+00
  2.167431e+01    2.074349e+00
  2.169019e+01    2.249008e+00
  2.170607e+01    2.480582e+00
  2.172194e+01    2.770099e+00
  2.173782e+01    3.140282e+00
  2.175369e+01    3.562927e+00
  2.176957e+01    4.079940e+00
  2.178544e+01    4.705124e+00
  2.180132e+01    5.350905e+00
  2.181719e+01    6.054284e+00
  2.183307e+01    6.762891e+00
  2.184895e+01    7.504299e+00
  2.186482e+01    8.246971e+00
  2.188070e+01    8.874882e+00
  2.189657e+01    9.362498e+00
  2.191245e+01    9.600029e+00
  2.192832e+01    9.477433e+00
  2.194420e+01    8.772536e+00
  2.196007e+01    7.822690e+00
  2.197595e+01    6.772635e+00
  2.199183e+01    5.740346e+00
  2.200770e+01    4.854135e+00
  2.202358e+01    4.108104e+00
  2.203945e+01    3.553153e+00
  2.205533e+01    3.081665e+00
  2.207120e+01    2.726960e+00
  2.208708e+01    2.441059e+00
  2.210296e+01    2.247700e+00
  2.211883e+01    2.014881e+00
  2.213471e+01    1.880348e+00
  2.215058e+01    1.747083e+00
  2.216646e+01    1.664954e+00
  2.218233e+01    1.582711e+00
  2.219821e+01    1.467569e+00
  2.221408e+01    1.407334e+00
  2.222996e+01    1.365081e+00
  2.224584e+01    1.319981e+00
  2.226171e+01    1.275473e+00
  2.227759e+01    1.232785e+00
  2.229346e+01    1.212916e+00
  2.230934e+01    1.192547e+00
  2.232521e+01    1.176079e+00
  2.234109e+01    1.143396e+00
  2.235696e+01    1.139063e+00
  2.237284e+01    1.103843e+00
  2.238872e+01    1.089100e+00
  2.240459e+01    1.068966e+00
  2.242047e+01    1.053120e+00
  2.243634e+01    1.044839e+00
  2.245222e+01    1.059922e+00
  2.246809e+01    1.033473e+00
  2.248397e+01    1.017530e+00
  2.249984e+01    1.020624e+00
  2.251572e+01    9.991096e-01
  2.253160e+01    1.007090e+00
  2.254747e+01    9.918602e-01
  2.256335e+01    9.800535e-01
  2.257922e+01    9.798953e-01
  2.259510e+01    9.589285e-01
  2.261097e+01    9.662125e-01
  2.262685e+01    9.642485e-01
  2.264272e+01    9.627224e-01
  2.265860e+01    9.588007e-01
  2.267448e+01    9.560844e-01
  2.269035e+01    9.509237e-01
  2.270623e+01    9.622719e-01
  2.272210e+01    9.626886e-01
  2.273798e+01    9.319485e-01
  2.275385e+01    9.190976e-01
  2.276973e+01    8.992757e-01
  2.278560e+01    9.075784e-01
  2.280148e+01    9.162093e-01
  2.281736e+01    9.367772e-01
  2.283323e+01    9.221112e-01
  2.284911e+01    9.046365e-01
  2.286498e+01    9.246254e-01
  2.288086e+01    9.216309e-01
  2.289673e+01    8.955902e-01
  2.291261e+01    9.086778e-01
  2.292848e+01    8.958830e-01
  2.294436e+01    8.987319e-01
  2.296024e+01    8.963994e-01
  2.297611e+01    8.827380e-01
  2.299199e+01    8.903733e-01
  2.300786e+01    8.903166e-01
  2.302374e+01    8.920315e-01
  2.303961e+01    8.733039e-01
  2.305549e+01    8.777553e-01
  2.307137e+01    8.953844e-01
  2.308724e+01    8.772716e-01
  2.310312e+01    8.510837e-01
  2.311899e+01    8.685771e-01
  2.313487e+01    8.771863e-01
  2.315074e+01    8.664770e-01
  2.316662e+01    8.710085e-01
  2.318249e+01    8.594544e-01
  2.319837e+01    8.653833e-01
  2.321425e+01    8.670368e-01
  2.323012e+01    8.611442e-01
  2.324600e+01    8.523772e-01
  2.326187e+01    8.359283e-01
  2.327775e+01    8.551910e-01
  2.329362e+01    8.754234e-01
  2.330950e+01    8.627374e-01
  2.332537e+01    8.708752e-01
  2.334125e+01    8.717682e-01
  2.335713e+01    8.577636e-01
  2.337300e+01    8.450506e-01
  2.338888e+01    8.333080e-01
  2.340475e+01    8.435588e-01
  2.342063e+01    8.313603e-01
  2.343650e+01    8.245804e-01
  2.345238e+01    8.349273e-01
  2.346825e+01    8.409809e-01
  2.348413e+01    8.349051e-01
  2.350001e+01    8.075742e-01
  2.351588e+01    8.308275e-01
  2.353176e+01    8.467980e-01
  2.354763e+01    8.262864e-01
  2.356351e+01    8.315958e-01
  2.357938e+01    8.482134e-01
  2.359526e+01    8.232817e-01
  2.361113e+01    8.412204e-01
  2.362701e+01    8.174778e-01
  2.364289e+01    8.096352e-01
  2.365876e+01    8.130463e-01
  2.367464e+01    8.325558e-01
  2.369051e+01    8.236904e-01
  2.370639e+01    8.107976e-01
  2.372226e+01    8.263940e-01
  2.373814e+01    8.052323e-01
  2.375401e+01    7.926021e-01
  2.376989e+01    8.088060e-01
  2.378577e+01    7.973062e-01
  2.380164e+01    7.847749e-01
  2.381752e+01    7.897514e-01
  2.383339e+01    7.889469e-01
  2.384927e+01    8.127269e-01
  2.386514e+01    8.192650e-01
  2.388102e+01    8.141049e-01
  2.389689e+01    8.004445e-01
  2.391277e+01    7.952099e-01
  2.392865e+01    7.858472e-01
  2.394452e+01    7.879719e-01
  2.396040e+01    7.958635e-01
  2.397627e+01    7.936347e-01
  2.399215e+01    7.881365e-01
  2.400802e+01    7.766441e-01
  2.402390e+01    7.701362e-01
  2.403978e+01    7.982827e-01
  2.405565e+01    8.001100e-01
  2.407153e+01    7.849889e-01
  2.408740e+01    7.736048e-01
  2.410328e+01    7.668927e-01
  2.411915e+01    7.572461e-01
  2.413503e+01    7.730892e-01
  2.415090e+01    7.821428e-01
  2.416678e+01    7.989797e-01
  2.418266e+01    7.909244e-01
  2.419853e+01    7.765415e-01
  2.421441e+01    7.447172e-01
  2.423028e+01    7.628750e-01
  2.424616e+01    7.608600e-01
  2.426203e+01    7.743804e-01
  2.427791e+01    7.766051e-01
  2.429378e+01    7.721863e-01
  2.430966e+01    7.745957e-01
  2.432554e+01    7.918465e-01
  2.434141e+01    7.720962e-01
  2.435729e+01    7.763987e-01
  2.437316e+01    7.903211e-01
  2.438904e+01    7.682783e-01
  2.440491e+01    7.633883e-01
  2.442079e+01    7.827010e-01
  2.443666e+01    7.855888e-01
  2.445254e+01    7.778401e-01
  2.446842e+01    7.750534e-01
  2.448429e+01    7.833256e-01
  2.450017e+01    8.058679e-01
  2.451604e+01    7.827021e-01
  2.453192e+01    7.966069e-01
  2.454779e+01    7.842702e-01
  2.456367e+01    7.700466e-01
  2.457954e+01    7.723689e-01
  2.459542e+01    7.580854e-01
  2.461130e+01    7.824776e-01
  2.462717e+01    7.936916e-01
  2.464305e+01    7.816184e-01
  2.465892e+01    7.692286e-01
  2.467480e+01    7.867627e-01
  2.469067e+01    8.007129e-01
  2.470655e+01    7.829584e-01
  2.472242e+01    7.870681e-01
  2.473830e+01    7.843089e-01
  2.475418e+01    7.953754e-01
  2.477005e+01    7.869139e-01
  2.478593e+01    7.785954e-01
  2.480180e+01    7.896523e-01
  2.481768e+01    7.884179e-01
  2.483355e+01    7.866135e-01
  2.484943e+01    7.871540e-01
  2.486530e+01    7.876264e-01
  2.488118e+01    7.866293e-01
  2.489706e+01    7.915035e-01
  2.491293e+01    7.890596e-01
  2.492881e+01    7.771857e-01
  2.494468e+01    7.970988e-01
  2.496056e+01    8.060934e-01
  2.497643e+01    7.878417e-01
  2.499231e+01    7.858227e-01
  2.500819e+01    7.872760e-01
  2.502406e+01    7.991065e-01
  2.503994e+01    7.896925e-01
  2.505581e+01    7.880887e-01
  2.507169e+01    7.841040e-01
  2.508756e+01    7.887348e-01
  2.510344e+01    8.026081e-01
  2.511931e+01    8.022947e-01
  2.513519e+01    7.946817e-01
  2.515107e+01    7.973003e-01
  2.516694e+01    8.173516e-01
  2.518282e+01    8.080150e-01
  2.519869e+01    8.316829e-01
  2.521457e+01    8.322854e-01
  2.523044e+01    8.499352e-01
  2.524632e+01    8.450673e-01
  2.526219e+01    8.415323e-01
  2.527807e+01    8.372487e-01
  2.529395e+01    8.476326e-01
  2.530982e+01    8.468140e-01
  2.532570e+01    8.509381e-01
  2.534157e+01    8.743962e-01
  2.535745e+01    8.831764e-01
  2.537332e+01    8.621006e-01
  2.538920e+01    8.844332e-01
  2.540507e+01    8.963479e-01
  2.542095e+01    9.152222e-01
  2.543683e+01    9.226980e-01
  2.545270e+01    9.349351e-01
  2.546858e+01    9.231645e-01
  2.548445e+01    9.375247e-01
  2.550033e+01    9.515827e-01
  2.551620e+01    9.700318e-01
  2.553208e+01    9.869877e-01
  2.554795e+01    1.016190e+00
  2.556383e+01    1.033937e+00
  2.557971e+01    1.035619e+00
  2.559558e+01    1.096281e+00
  2.561146e+01    1.109782e+00
  2.562733e+01    1.132187e+00
  2.564321e+01    1.208745e+00
  2.565908e+01    1.271702e+00
  2.567496e+01    1.285793e+00
  2.569083e+01    1.355958e+00
  2.570671e+01    1.433720e+00
  2.572259e+01    1.530761e+00
  2.573846e+01    1.652785e+00
  2.575434e+01    1.813625e+00
  2.577021e+01    1.993233e+00
  2.578609e+01    2.199957e+00
  2.580196e+01    2.466300e+00
  2.581784e+01    2.819696e+00
  2.583371e+01    3.197576e+00
  2.584959e+01    3.661617e+00
  2.586547e+01    4.224813e+00
  2.588134e+01    4.837922e+00
  2.589722e+01    5.527024e+00
  2.591309e+01    6.159799e+00
  2.592897e+01    6.713331e+00
  2.594484e+01    7.339219e+00
  2.596072e+01    7.759133e+00
  2.597660e+01    7.870187e+00
  2.599247e+01    7.724243e+00
  2.600835e+01    7.329772e+00
  2.602422e+01    6.668226e+00
  2.604010e+01    5.899805e+00
  2.605597e+01    4.986257e+00
  2.607185e+01    4.266057e+00
  2.608772e+01    3.670790e+00
  2.610360e+01    3.171562e+00
  2.611948e+01    2.780060e+00
  2.613535e+01    2.415020e+00
  2.615123e+01    2.145077e+00
  2.616710e+01    1.940545e+00
  2.618298e+01    1.786918e+00
  2.619885e+01    1.680031e+00
  2.621473e+01    1.575941e+00
  2.623060e+01    1.458032e+00
  2.624648e+01    1.320848e+00
  2.626236e+01    1.275678e+00
  2.627823e+01    1.264034e+00
  2.629411e+01    1.195968e+00
  2.630998e+01    1.170899e+00
  2.632586e+01    1.139761e+00
  2.634173e+01    1.091320e+00
  2.635761e+01    1.054017e+00
  2.637348e+01    1.041967e+00
  2.638936e+01    1.002397e+00
  2.640524e+01    9.890031e-01
  2.642111e+01    9.694400e-01
  2.643699e+01    9.400094e-01
  2.645286e+01    9.427147e-01
  2.646874e+01    9.645832e-01
  2.648461e+01    9.390849e-01
  2.650049e+01    9.321682e-01
  2.651636e+01    9.375894e-01
  2.653224e+01    9.257887e-01
  2.654812e+01    9.180029e-01
  2.656399e+01    9.158903e-01
  2.657987e+01    9.243084e-01
  2.659574e+01    9.125952e-01
  2.661162e+01    8.971555e-01
  2.662749e+01    8.893836e-01
  2.664337e+01    8.831100e-01
  2.665924e+01    8.946691e-01
  2.667512e+01    8.946100e-01
  2.669100e+01    8.820194e-01
  2.670687e+01    8.946601e-01
  2.672275e+01    8.824016e-01
  2.673862e+01    8.892602e-01
  2.675450e+01    8.960220e-01
  2.677037e+01    8.950359e-01
  2.678625e+01    8.895985e-01
  2.680212e+01    9.048865e-01
  2.681800e+01    8.869616e-01
  2.683388e+01    9.045486e-01
  2.684975e+01    9.004681e-01
  2.686563e+01    8.860730e-01
  2.688150e+01    8.885754e-01
  2.689738e+01    9.111655e-01
  2.691325e+01    9.170723e-01
  2.692913e+01    9.387328e-01
  2.694501e+01    9.436700e-01
  2.696088e+01    9.343064e-01
  2.697676e+01    9.486084e-01
  2.699263e+01    1.006904e+00
  2.700851e+01    1.031524e+00
  2.702438e+01    1.051541e+00
  2.704026e+01    1.095074e+00
  2.705613e+01    1.125504e+00
  2.707201e+01    1.177568e+00
  2.708789e+01    1.264308e+00
  2.710376e+01    1.348911e+00
  2.711964e+01    1.462830e+00
  2.713551e+01    1.592352e+00
  2.715139e+01    1.693014e+00
  2.716726e+01    1.857447e+00
  2.718314e+01    2.019193e+00
  2.719901e+01    2.143560e+00
  2.721489e+01    2.272325e+00
  2.723077e+01    2.317374e+00
  2.724664e+01    2.300819e+00
  2.726252e+01    2.250456e+00
  2.727839e+01    2.113559e+00
  2.729427e+01    1.947142e+00
  2.731014e+01    1.768969e+00
  2.732602e+01    1.595338e+00
  2.734189e+01    1.472440e+00
  2.735777e+01    1.367560e+00
  2.737365e+01    1.259964e+00
  2.738952e+01    1.178836e+00
  2.740540e+01    1.127718e+00
  2.742127e+01    1.066497e+00
  2.743715e+01    1.026713e+00
  2.745302e+01    1.012308e+00
  2.746890e+01    1.013074e+00
  2.748477e+01    9.782196e-01
  2.750065e+01    9.282224e-01
  2.751653e+01    9.139823e-01
  2.753240e+01    9.105737e-01
  2.754828e+01    8.990743e-01
  2.756415e+01    8.709583e-01
  2.758003e+01    8.433512e-01
  2.759590e+01    8.314571e-01
  2.761178e+01    8.438488e-01
  2.762765e+01    8.520314e-01
  2.764353e+01    8.293874e-01
  2.765941e+01    8.239974e-01
  2.767528e+01    8.039755e-01
  2.769116e+01    8.088897e-01
  2.770703e+01    8.026107e-01
  2.772291e+01    8.050501e-01
  2.773878e+01    8.029129e-01
  2.775466e+01    8.089966e-01
  2.777054e+01    8.023511e-01
  2.778641e+01    7.939430e-01
  2.780229e+01    7.950900e-01
  2.781816e+01    8.116820e-01
  2.783404e+01    8.201941e-01
  2.784991e+01    8.108339e-01
  2.786579e+01    7.811477e-01
  2.788166e+01    7.770221e-01
  2.789754e+01    7.849345e-01
  2.791342e+01    8.050073e-01
  2.792929e+01    8.122370e-01
  2.794517e+01    7.787306e-01
  2.796104e+01    8.011470e-01
  2.797692e+01    7.923867e-01
  2.799279e+01    7.671632e-01
  2.800867e+01    7.744114e-01
  2.802454e+01    8.059219e-01
  2.804042e+01    7.855144e-01
  2.805630e+01    7.914642e-01
  2.807217e+01    7.922312e-01
  2.808805e+01    7.758662e-01
  2.810392e+01    7.892657e-01
  2.811980e+01    7.765574e-01
  2.813567e+01    7.694374e-01
  2.815155e+01    7.622306e-01
  2.816742e+01    7.553144e-01
  2.818330e+01    7.686710e-01
  2.819918e+01    7.488273e-01
  2.821505e+01    7.429442e-01
  2.823093e+01    7.509802e-01
  2.824680e+01    7.679368e-01
  2.826268e+01    7.514800e-01
  2.827855e+01    7.529041e-01
  2.829443e+01    7.510505e-01
  2.831030e+01    7.631097e-01
  2.832618e+01    7.644888e-01
  2.834206e+01    7.693961e-01
  2.835793e+01    7.677221e-01
  2.837381e+01    7.537927e-01
  2.838968e+01    7.403020e-01
  2.840556e+01    7.482974e-01
  2.842143e+01    7.622014e-01
  2.843731e+01    7.513439e-01
  2.845318e+01    7.734891e-01
  2.846906e+01    7.663690e-01
  2.848494e+01    7.483340e-01
  2.850081e+01    7.647441e-01
  2.851669e+01    7.318705e-01
  2.853256e+01    7.200757e-01
  2.854844e+01    7.392803e-01
  2.856431e+01    7.596313e-01
  2.858019e+01    7.517406e-01
  2.859606e+01    7.521330e-01
  2.861194e+01    7.468961e-01
  2.862782e+01    7.502342e-01
  2.864369e+01    7.453936e-01
  2.865957e+01    7.713535e-01
  2.867544e+01    7.635100e-01
  2.869132e+01    7.621500e-01
  2.870719e+01    7.337733e-01
  2.872307e+01    7.517264e-01
  2.873895e+01    7.458667e-01
  2.875482e+01    7.363722e-01
  2.877070e+01    7.240697e-01
  2.878657e+01    7.380971e-01
  2.880245e+01    7.312411e-01
  2.881832e+01    7.239625e-01
  2.883420e+01    7.322548e-01
  2.885007e+01    7.466358e-01
  2.886595e+01    7.529817e-01
  2.888183e+01    7.473125e-01
  2.889770e+01    7.305749e-01
  2.891358e+01    7.278948e-01
  2.892945e+01    7.390698e-01
  2.894533e+01    7.239931e-01
  2.896120e+01    7.277142e-01
  2.897708e+01    7.280219e-01
  2.899295e+01    7.305032e-01
  2.900883e+01    7.357435e-01
  2.902471e+01    7.425133e-01
  2.904058e+01    7.408087e-01
  2.905646e+01    7.322323e-01
  2.907233e+01    7.258444e-01
  2.908821e+01    7.334701e-01
  2.910408e+01    7.308123e-01
  2.911996e+01    7.273060e-01
  2.913583e+01    7.307890e-01
  2.915171e+01    7.295755e-01
  2.916759e+01    7.217269e-01
  2.918346e+01    7.285756e-01
  2.919934e+01    7.186744e-01
  2.921521e+01    7.317057e-01
  2.923109e+01    7.388214e-01
  2.924696e+01    7.187702e-01
  2.926284e+01    7.334455e-01
  2.927871e+01    7.158623e-01
  2.929459e+01    7.257349e-01
  2.931047e+01    7.309315e-01
  2.932634e+01    7.174622e-01
  2.934222e+01    7.215376e-01
  2.935809e+01    7.135581e-01
  2.937397e+01    7.032544e-01
  2.938984e+01    7.176133e-01
  2.940572e+01    7.230608e-01
  2.942159e+01    7.188529e-01
  2.943747e+01    7.232879e-01
  2.945335e+01    7.309531e-01
  2.946922e+01    7.300161e-01
  2.948510e+01    7.158657e-01
  2.950097e+01    7.235184e-01
  2.951685e+01    7.252212e-01
  2.953272e+01    7.376758e-01
  2.954860e+01    7.136486e-01
  2.956447e+01    7.182329e-01
  2.958035e+01    7.425774e-01
  2.959623e+01    7.144801e-01
  2.961210e+01    7.082699e-01
  2.962798e+01    7.020670e-01
  2.964385e+01    7.285134e-01
  2.965973e+01    7.138662e-01
  2.967560e+01    7.045989e-01
  2.969148e+01    7.057378e-01
  2.970736e+01    7.271517e-01
  2.972323e+01    7.313982e-01
  2.973911e+01    7.028322e-01
  2.975498e+01    6.979963e-01
  2.977086e+01    6.990552e-01
  2.978673e+01    7.126143e-01
  2.980261e+01    7.064150e-01
  2.981848e+01    6.957955e-01
  2.983436e+01    7.126765e-01
  2.985024e+01    7.052528e-01
  2.986611e+01    7.010062e-01
  2.988199e+01    7.083195e-01
  2.989786e+01    6.966938e-01
  2.991374e+01    6.975920e-01
  2.992961e+01    6.820092e-01
  2.994549e+01    7.015210e-01
  2.996136e+01    7.226768e-01
  2.997724e+01    7.117507e-01
  2.999312e+01    7.180754e-01
  3.000899e+01    7.085322e-01
  3.002487e+01    7.220910e-01
  3.004074e+01    7.240560e-01
  3.005662e+01    7.226716e-01
  3.007249e+01    7.217885e-01
  3.008837e+01    7.300631e-01
  3.010424e+01    7.197611e-01
  3.012012e+01    6.999277e-01
  3.013600e+01    7.197405e-01
  3.015187e+01    7.161161e-01
  3.016775e+01    7.224142e-01
  3.018362e+01    7.230937e-01
  3.019950e+01    7.262923e-01
  3.021537e+01    6.968568e-01
  3.023125e+01    7.062876e-01
  3.024712e+01    6.994903e-01
  3.026300e+01    7.045493e-01
  3.027888e+01    7.096446e-01
  3.029475e+01    6.981289e-01
  3.031063e+01    7.131209e-01
  3.032650e+01    7.097179e-01
  3.034238e+01    6.878160e-01
  3.035825e+01    7.091378e-01
  3.037413e+01    6.943915e-01
  3.039000e+01    6.849507e-01
  3.040588e+01    7.019886e-01
  3.042176e+01    6.841865e-01
  3.043763e+01    6.923985e-01
  3.045351e+01    7.044064e-01
  3.046938e+01    7.041217e-01
  3.048526e+01    6.866691e-01
  3.050113e+01    6.969344e-01
  3.051701e+01    6.852536e-01
  3.053288e+01    6.819307e-01
  3.054876e+01    6.827744e-01
  3.056464e+01    7.006937e-01
  3.058051e+01    7.130421e-01
  3.059639e+01    7.090136e-01
  3.061226e+01    6.906636e-01
  3.062814e+01    7.132038e-01
  3.064401e+01    7.230504e-01
  3.065989e+01    7.071311e-01
  3.067577e+01    6.988117e-01
  3.069164e+01    6.878353e-01
  3.070752e+01    6.941296e-01
  3.072339e+01    7.139448e-01
  3.073927e+01    7.035431e-01
  3.075514e+01    7.192339e-01
  3.077102e+01    7.065474e-01
  3.078689e+01    7.089640e-01
  3.080277e+01    7.026001e-01
  3.081865e+01    6.903079e-01
  3.083452e+01    7.000720e-01
  3.085040e+01    7.154737e-01
  3.086627e+01    7.104245e-01
  3.088215e+01    7.263826e-01
  3.089802e+01    7.036731e-01
  3.091390e+01    7.024046e-01
  3.092977e+01    6.895616e-01
  3.094565e+01    7.011690e-01
  3.096153e+01    7.006019e-01
  3.097740e+01    6.891557e-01
  3.099328e+01    7.215400e-01
  3.100915e+01    6.999310e-01
  3.102503e+01    6.945019e-01
  3.104090e+01    7.082059e-01
  3.105678e+01    7.290639e-01
  3.107265e+01    7.085260e-01
  3.108853e+01    7.065277e-01
  3.110441e+01    7.175316e-01
  3.112028e+01    7.161821e-01
  3.113616e+01    7.177998e-01
  3.115203e+01    7.320428e-01
  3.116791e+01    7.187132e-01
  3.118378e+01    6.981323e-01
  3.119966e+01    7.182221e-01
  3.121553e+01    7.413430e-01
  3.123141e+01    7.246536e-01
  3.124729e+01    7.161608e-01
  3.126316e+01    7.330800e-01
  3.127904e+01    7.201235e-01
  3.129491e+01    7.199300e-01
  3.131079e+01    7.348133e-01
  3.132666e+01    7.280755e-01
  3.134254e+01    7.371557e-01
  3.135841e+01    7.322139e-01
  3.137429e+01    7.391794e-01
  3.139017e+01    7.345328e-01
  3.140604e+01    7.388328e-01
  3.142192e+01    7.297359e-01
  3.143779e+01    7.452890e-01
  3.145367e+01    7.547693e-01
  3.146954e+01    7.397496e-01
  3.148542e+01    7.430458e-01
  3.150129e+01    7.334260e-01
  3.151717e+01    7.472243e-01
  3.153305e+01    7.530592e-01
  3.154892e+01    7.603396e-01
  3.156480e+01    7.792511e-01
  3.158067e+01    7.762022e-01
  3.159655e+01    8.105645e-01
  3.161242e+01    8.351921e-01
  3.162830e+01    8.528578e-01
  3.164418e+01    8.513842e-01
  3.166005e+01    8.623933e-01
  3.167593e+01    9.076304e-01
  3.169180e+01    9.398201e-01
  3.170768e+01    9.580434e-01
  3.172355e+01    9.906322e-01
  3.173943e+01    1.027614e+00
  3.175530e+01    1.085471e+00
  3.177118e+01    1.128928e+00
  3.178706e+01    1.230923e+00
  3.180293e+01    1.313638e+00
  3.181881e+01    1.441672e+00
  3.183468e+01    1.617764e+00
  3.185056e+01    1.767432e+00
  3.186643e+01    1.897590e+00
  3.188231e+01    2.047741e+00
  3.189818e+01    2.194713e+00
  3.191406e+01    2.269325e+00
  3.192994e+01    2.292285e+00
  3.194581e+01    2.258338e+00
  3.196169e+01    2.155080e+00
  3.197756e+01    2.018381e+00
  3.199344e+01    1.841894e+00
  3.200931e+01    1.643087e+00
  3.202519e+01    1.480981e+00
  3.204106e+01    1.365662e+00
  3.205694e+01    1.256088e+00
  3.207282e+01    1.162435e+00
  3.208869e+01    1.084022e+00
  3.210457e+01    1.026380e+00
  3.212044e+01    9.889443e-01
  3.213632e+01    9.341096e-01
  3.215219e+01    8.885937e-01
  3.216807e+01    8.747601e-01
  3.218394e+01    8.630390e-01
  3.219982e+01    8.532256e-01
  3.221570e+01    8.511782e-01
  3.223157e+01    8.110644e-01
  3.224745e+01    7.836940e-01
  3.226332e+01    7.980269e-01
  3.227920e+01    7.928171e-01
  3.229507e+01    7.582300e-01
  3.231095e+01    7.600403e-01
  3.232682e+01    7.812853e-01
  3.234270e+01    7.454703e-01
  3.235858e+01    7.355397e-01
  3.237445e+01    7.201185e-01
  3.239033e+01    7.268234e-01
  3.240620e+01    7.177090e-01
  3.242208e+01    7.198062e-01
  3.243795e+01    7.220868e-01
  3.245383e+01    7.317404e-01
  3.246970e+01    7.131684e-01
  3.248558e+01    6.928202e-01
  3.250146e+01    7.175237e-01
  3.251733e+01    7.048938e-01
  3.253321e+01    7.195436e-01
  3.254908e+01    7.003898e-01
