# == pyFAI calibration ==
# Distance Sample to Detector: 0.3999999939076516 m
# PONI: 9.750e-02, 1.135e-01 m
# Rotations: -0.000175 0.000000 -0.000000 rad
# 
# == Fit2d calibration ==
# Distance Sample-beamCenter: 400.000 mm
# Center: x=1514.000, y=1300.000 pix
# Tilt: 0.010 deg  TiltPlanRot: 0.010 deg
# 
# Detector Detector	 Spline= None	 PixelSize= 7.500e-05, 7.500e-05 m
#    Detector has a mask: False 
#    Detector has a dark current: False 
#    detector has a flat field: False 
# 
# Wavelength: 6.888e-11 m
# Mask applied: user provided
# Dark current applied: False
# Flat field applied: False
# Polarization factor: 0.99
# Normalization factor: 1.0
# --> /home/myspot/data/2024_07_Rosario/Ru-CGO-ex/2024-07-27_002_Ru-CGO-ex_Activtation_ramp_000002_data_000144.dat
#       q_nm^-1             I 
  2.003187e-02    2.227120e-02
  3.590745e-02    9.188656e-02
  5.178302e-02    1.910478e-02
  6.765859e-02    1.985621e-02
  8.353417e-02    7.038116e-02
  9.940974e-02    5.654086e-02
  1.152853e-01    6.042369e-02
  1.311609e-01    7.646564e-02
  1.470365e-01    2.926806e-02
  1.629120e-01    5.883308e-02
  1.787876e-01    3.746767e-02
  1.946632e-01    4.397577e-02
  2.105388e-01    4.669147e-02
  2.264143e-01    5.136079e-02
  2.422899e-01    2.862192e-02
  2.581655e-01    2.468825e-02
  2.740411e-01    9.678265e-03
  2.899166e-01    2.995796e-03
  3.057922e-01    2.660605e-02
  3.216678e-01    3.733768e-02
  3.375433e-01    1.412453e-02
  3.534189e-01    3.134416e-02
  3.692945e-01    4.601934e-02
  3.851701e-01    4.967061e-02
  4.010456e-01    8.264744e-02
  4.169212e-01    6.986319e-02
  4.327968e-01    4.453358e-02
  4.486724e-01    4.216194e-02
  4.645479e-01    4.190840e-02
  4.804235e-01    2.102003e-02
  4.962991e-01    1.741861e-02
  5.121747e-01    2.572114e-02
  5.280502e-01    3.743634e-02
  5.439258e-01    2.426537e-02
  5.598014e-01    4.078782e-02
  5.756770e-01    5.714002e-02
  5.915525e-01    4.164786e-02
  6.074281e-01    3.576765e-02
  6.233037e-01    2.716084e-02
  6.391793e-01    2.760387e-02
  6.550548e-01    2.210034e-02
  6.709304e-01    5.181386e-02
  6.868060e-01    4.662642e-02
  7.026815e-01    4.286807e-02
  7.185571e-01    4.877463e-02
  7.344327e-01    5.244982e-02
  7.503083e-01    7.584956e-02
  7.661838e-01    1.025385e-01
  7.820594e-01    8.029121e-02
  7.979350e-01    1.121211e-01
  8.138106e-01    2.126424e-01
  8.296861e-01    2.679098e-01
  8.455617e-01    3.444248e-01
  8.614373e-01    4.237350e-01
  8.773129e-01    5.311261e-01
  8.931884e-01    5.247648e-01
  9.090640e-01    5.332336e-01
  9.249396e-01    6.582905e-01
  9.408152e-01    6.805910e-01
  9.566907e-01    7.484068e-01
  9.725663e-01    8.728693e-01
  9.884419e-01    9.639725e-01
  1.004317e+00    1.070513e+00
  1.020193e+00    1.106902e+00
  1.036069e+00    1.158053e+00
  1.051944e+00    1.273884e+00
  1.067820e+00    1.347366e+00
  1.083695e+00    1.423306e+00
  1.099571e+00    1.407639e+00
  1.115446e+00    1.310446e+00
  1.131322e+00    1.385660e+00
  1.147198e+00    1.385765e+00
  1.163073e+00    1.491016e+00
  1.178949e+00    1.467543e+00
  1.194824e+00    1.594797e+00
  1.210700e+00    1.882884e+00
  1.226575e+00    1.990460e+00
  1.242451e+00    2.142323e+00
  1.258327e+00    2.053610e+00
  1.274202e+00    2.281563e+00
  1.290078e+00    2.507824e+00
  1.305953e+00    2.503160e+00
  1.321829e+00    2.396893e+00
  1.337705e+00    2.620564e+00
  1.353580e+00    2.665226e+00
  1.369456e+00    2.617045e+00
  1.385331e+00    2.620934e+00
  1.401207e+00    2.672321e+00
  1.417082e+00    2.604241e+00
  1.432958e+00    2.625154e+00
  1.448834e+00    2.771368e+00
  1.464709e+00    2.753197e+00
  1.480585e+00    2.649649e+00
  1.496460e+00    2.704301e+00
  1.512336e+00    2.755486e+00
  1.528211e+00    2.770544e+00
  1.544087e+00    2.831828e+00
  1.559963e+00    2.894545e+00
  1.575838e+00    2.867708e+00
  1.591714e+00    2.806458e+00
  1.607589e+00    2.775370e+00
  1.623465e+00    2.802956e+00
  1.639340e+00    2.891617e+00
  1.655216e+00    2.884583e+00
  1.671092e+00    2.779642e+00
  1.686967e+00    2.736140e+00
  1.702843e+00    2.747055e+00
  1.718718e+00    2.732100e+00
  1.734594e+00    2.621258e+00
  1.750469e+00    2.826647e+00
  1.766345e+00    2.806681e+00
  1.782221e+00    2.752872e+00
  1.798096e+00    2.790645e+00
  1.813972e+00    2.724293e+00
  1.829847e+00    2.691388e+00
  1.845723e+00    2.662122e+00
  1.861598e+00    2.711381e+00
  1.877474e+00    2.783877e+00
  1.893350e+00    2.731310e+00
  1.909225e+00    2.772820e+00
  1.925101e+00    2.777130e+00
  1.940976e+00    2.697245e+00
  1.956852e+00    2.644676e+00
  1.972727e+00    2.719446e+00
  1.988603e+00    2.643333e+00
  2.004479e+00    2.614094e+00
  2.020354e+00    2.767296e+00
  2.036230e+00    2.792419e+00
  2.052105e+00    2.672960e+00
  2.067981e+00    2.857222e+00
  2.083856e+00    2.763709e+00
  2.099732e+00    2.803764e+00
  2.115608e+00    2.694498e+00
  2.131483e+00    2.656815e+00
  2.147359e+00    2.726671e+00
  2.163234e+00    2.876861e+00
  2.179110e+00    2.738082e+00
  2.194985e+00    2.632500e+00
  2.210861e+00    2.725041e+00
  2.226737e+00    2.645430e+00
  2.242612e+00    2.687231e+00
  2.258488e+00    2.693029e+00
  2.274363e+00    2.713665e+00
  2.290239e+00    2.732424e+00
  2.306115e+00    2.636101e+00
  2.321990e+00    2.683109e+00
  2.337866e+00    2.767743e+00
  2.353741e+00    2.759862e+00
  2.369617e+00    2.788917e+00
  2.385492e+00    2.759763e+00
  2.401368e+00    2.675044e+00
  2.417244e+00    2.667719e+00
  2.433119e+00    2.801083e+00
  2.448995e+00    2.698082e+00
  2.464870e+00    2.625147e+00
  2.480746e+00    2.733843e+00
  2.496621e+00    2.717131e+00
  2.512497e+00    2.742485e+00
  2.528373e+00    2.739057e+00
  2.544248e+00    2.799404e+00
  2.560124e+00    2.796279e+00
  2.575999e+00    2.762620e+00
  2.591875e+00    2.778003e+00
  2.607750e+00    2.729643e+00
  2.623626e+00    2.784449e+00
  2.639502e+00    2.811984e+00
  2.655377e+00    2.707366e+00
  2.671253e+00    2.744230e+00
  2.687128e+00    2.835387e+00
  2.703004e+00    2.817210e+00
  2.718879e+00    2.787992e+00
  2.734755e+00    2.756866e+00
  2.750631e+00    2.851277e+00
  2.766506e+00    2.883668e+00
  2.782382e+00    2.810637e+00
  2.798257e+00    2.739018e+00
  2.814133e+00    2.757093e+00
  2.830008e+00    2.851968e+00
  2.845884e+00    2.949740e+00
  2.861760e+00    2.914525e+00
  2.877635e+00    2.781201e+00
  2.893511e+00    2.791477e+00
  2.909386e+00    2.807481e+00
  2.925262e+00    2.778758e+00
  2.941137e+00    2.737930e+00
  2.957013e+00    2.898200e+00
  2.972889e+00    2.921997e+00
  2.988764e+00    2.954999e+00
  3.004640e+00    2.879507e+00
  3.020515e+00    2.877566e+00
  3.036391e+00    2.753116e+00
  3.052266e+00    2.876825e+00
  3.068142e+00    2.977140e+00
  3.084018e+00    2.863631e+00
  3.099893e+00    2.801522e+00
  3.115769e+00    2.949608e+00
  3.131644e+00    2.964953e+00
  3.147520e+00    2.892426e+00
  3.163395e+00    2.826004e+00
  3.179271e+00    2.819500e+00
  3.195147e+00    2.925891e+00
  3.211022e+00    2.962754e+00
  3.226898e+00    2.942179e+00
  3.242773e+00    2.902818e+00
  3.258649e+00    2.866804e+00
  3.274525e+00    2.826117e+00
  3.290400e+00    2.900378e+00
  3.306276e+00    2.953759e+00
  3.322151e+00    2.825316e+00
  3.338027e+00    2.836305e+00
  3.353902e+00    2.893790e+00
  3.369778e+00    2.953640e+00
  3.385654e+00    2.945767e+00
  3.401529e+00    2.989365e+00
  3.417405e+00    2.974463e+00
  3.433280e+00    2.898805e+00
  3.449156e+00    2.872970e+00
  3.465031e+00    2.932635e+00
  3.480907e+00    2.905251e+00
  3.496783e+00    2.808940e+00
  3.512658e+00    2.885018e+00
  3.528534e+00    2.967873e+00
  3.544409e+00    2.985597e+00
  3.560285e+00    2.949203e+00
  3.576160e+00    2.861298e+00
  3.592036e+00    2.883612e+00
  3.607912e+00    2.964009e+00
  3.623787e+00    2.971502e+00
  3.639663e+00    2.969424e+00
  3.655538e+00    3.009242e+00
  3.671414e+00    2.925025e+00
  3.687289e+00    2.881251e+00
  3.703165e+00    2.932667e+00
  3.719041e+00    2.957431e+00
  3.734916e+00    3.018036e+00
  3.750792e+00    2.968479e+00
  3.766667e+00    2.995611e+00
  3.782543e+00    2.977647e+00
  3.798418e+00    2.948917e+00
  3.814294e+00    3.017310e+00
  3.830170e+00    2.947870e+00
  3.846045e+00    2.932015e+00
  3.861921e+00    3.020361e+00
  3.877796e+00    3.099273e+00
  3.893672e+00    3.087829e+00
  3.909547e+00    2.981995e+00
  3.925423e+00    3.016314e+00
  3.941299e+00    3.079467e+00
  3.957174e+00    3.055843e+00
  3.973050e+00    3.045696e+00
  3.988925e+00    2.953882e+00
  4.004801e+00    2.899516e+00
  4.020676e+00    2.977891e+00
  4.036552e+00    3.049296e+00
  4.052428e+00    3.008848e+00
  4.068303e+00    2.993173e+00
  4.084179e+00    3.087627e+00
  4.100054e+00    3.077312e+00
  4.115930e+00    3.114451e+00
  4.131806e+00    3.043039e+00
  4.147681e+00    2.972022e+00
  4.163557e+00    2.975167e+00
  4.179432e+00    3.000132e+00
  4.195308e+00    2.999205e+00
  4.211183e+00    3.022093e+00
  4.227059e+00    2.989525e+00
  4.242935e+00    3.057892e+00
  4.258810e+00    3.079353e+00
  4.274686e+00    3.038129e+00
  4.290561e+00    3.031617e+00
  4.306437e+00    3.044543e+00
  4.322312e+00    2.989837e+00
  4.338188e+00    2.929711e+00
  4.354064e+00    2.977249e+00
  4.369939e+00    3.057545e+00
  4.385815e+00    3.076426e+00
  4.401690e+00    3.061832e+00
  4.417566e+00    3.072456e+00
  4.433441e+00    3.078811e+00
  4.449317e+00    3.057698e+00
  4.465193e+00    3.010047e+00
  4.481068e+00    2.982043e+00
  4.496944e+00    3.072635e+00
  4.512819e+00    3.103808e+00
  4.528695e+00    3.049533e+00
  4.544570e+00    3.101115e+00
  4.560446e+00    3.039489e+00
  4.576322e+00    3.054784e+00
  4.592197e+00    3.063767e+00
  4.608073e+00    3.106881e+00
  4.623948e+00    3.078777e+00
  4.639824e+00    3.086129e+00
  4.655699e+00    3.137737e+00
  4.671575e+00    3.150670e+00
  4.687451e+00    3.122478e+00
  4.703326e+00    3.080203e+00
  4.719202e+00    3.135672e+00
  4.735077e+00    3.315701e+00
  4.750953e+00    3.266427e+00
  4.766828e+00    3.092960e+00
  4.782704e+00    3.016492e+00
  4.798580e+00    3.121275e+00
  4.814455e+00    3.083199e+00
  4.830331e+00    3.059324e+00
  4.846206e+00    3.090985e+00
  4.862082e+00    3.099499e+00
  4.877957e+00    3.119680e+00
  4.893833e+00    3.077652e+00
  4.909709e+00    3.118093e+00
  4.925584e+00    3.090747e+00
  4.941460e+00    3.046883e+00
  4.957335e+00    3.086968e+00
  4.973211e+00    3.127871e+00
  4.989086e+00    3.164814e+00
  5.004962e+00    3.099192e+00
  5.020838e+00    3.031592e+00
  5.036713e+00    3.009596e+00
  5.052589e+00    3.130641e+00
  5.068464e+00    3.058434e+00
  5.084340e+00    3.076520e+00
  5.100216e+00    3.100060e+00
  5.116091e+00    3.130533e+00
  5.131967e+00    3.134050e+00
  5.147842e+00    3.156659e+00
  5.163718e+00    3.144257e+00
  5.179593e+00    3.174126e+00
  5.195469e+00    3.135479e+00
  5.211345e+00    3.134682e+00
  5.227220e+00    3.129111e+00
  5.243096e+00    3.117169e+00
  5.258971e+00    3.173333e+00
  5.274847e+00    3.208408e+00
  5.290722e+00    3.161192e+00
  5.306598e+00    3.104922e+00
  5.322474e+00    3.102053e+00
  5.338349e+00    3.102888e+00
  5.354225e+00    3.086318e+00
  5.370100e+00    3.136522e+00
  5.385976e+00    3.062634e+00
  5.401851e+00    3.041152e+00
  5.417727e+00    3.070728e+00
  5.433603e+00    3.039914e+00
  5.449478e+00    3.093860e+00
  5.465354e+00    3.119318e+00
  5.481229e+00    3.097889e+00
  5.497105e+00    3.077606e+00
  5.512980e+00    3.067207e+00
  5.528856e+00    3.025957e+00
  5.544732e+00    2.984582e+00
  5.560607e+00    3.026298e+00
  5.576483e+00    3.125755e+00
  5.592358e+00    3.107774e+00
  5.608234e+00    3.032590e+00
  5.624109e+00    3.058658e+00
  5.639985e+00    3.044960e+00
  5.655861e+00    3.025880e+00
  5.671736e+00    3.064409e+00
  5.687612e+00    3.097005e+00
  5.703487e+00    2.979576e+00
  5.719363e+00    2.929332e+00
  5.735238e+00    3.031557e+00
  5.751114e+00    3.030266e+00
  5.766990e+00    2.970055e+00
  5.782865e+00    3.014935e+00
  5.798741e+00    3.052217e+00
  5.814616e+00    3.066894e+00
  5.830492e+00    2.965348e+00
  5.846367e+00    2.974977e+00
  5.862243e+00    2.938242e+00
  5.878119e+00    2.966835e+00
  5.893994e+00    3.031022e+00
  5.909870e+00    2.984225e+00
  5.925745e+00    3.046538e+00
  5.941621e+00    3.051508e+00
  5.957497e+00    2.980849e+00
  5.973372e+00    2.944045e+00
  5.989248e+00    3.029371e+00
  6.005123e+00    2.924164e+00
  6.020999e+00    2.911358e+00
  6.036874e+00    3.098408e+00
  6.052750e+00    3.088782e+00
  6.068626e+00    3.082139e+00
  6.084501e+00    3.063242e+00
  6.100377e+00    3.058067e+00
  6.116252e+00    3.043065e+00
  6.132128e+00    3.038955e+00
  6.148003e+00    3.084047e+00
  6.163879e+00    3.089160e+00
  6.179755e+00    3.088160e+00
  6.195630e+00    3.067300e+00
  6.211506e+00    3.016199e+00
  6.227381e+00    3.010356e+00
  6.243257e+00    3.004421e+00
  6.259132e+00    3.011868e+00
  6.275008e+00    3.070057e+00
  6.290884e+00    3.026293e+00
  6.306759e+00    2.970884e+00
  6.322635e+00    2.979557e+00
  6.338510e+00    3.025576e+00
  6.354386e+00    3.008427e+00
  6.370261e+00    3.007766e+00
  6.386137e+00    3.004212e+00
  6.402013e+00    2.986137e+00
  6.417888e+00    3.014718e+00
  6.433764e+00    3.012701e+00
  6.449639e+00    3.042012e+00
  6.465515e+00    3.108724e+00
  6.481390e+00    3.024431e+00
  6.497266e+00    2.967779e+00
  6.513142e+00    2.968999e+00
  6.529017e+00    2.953188e+00
  6.544893e+00    3.031275e+00
  6.560768e+00    2.966336e+00
  6.576644e+00    3.015556e+00
  6.592519e+00    3.027851e+00
  6.608395e+00    3.028758e+00
  6.624271e+00    3.011649e+00
  6.640146e+00    3.015528e+00
  6.656022e+00    3.069754e+00
  6.671897e+00    3.099126e+00
  6.687773e+00    3.022651e+00
  6.703648e+00    3.008715e+00
  6.719524e+00    2.991141e+00
  6.735400e+00    3.060198e+00
  6.751275e+00    3.088984e+00
  6.767151e+00    3.077904e+00
  6.783026e+00    3.054071e+00
  6.798902e+00    3.155437e+00
  6.814777e+00    3.105282e+00
  6.830653e+00    3.075061e+00
  6.846529e+00    3.074651e+00
  6.862404e+00    3.002646e+00
  6.878280e+00    3.012929e+00
  6.894155e+00    3.050287e+00
  6.910031e+00    3.035969e+00
  6.925907e+00    2.992801e+00
  6.941782e+00    3.024317e+00
  6.957658e+00    3.027933e+00
  6.973533e+00    3.008108e+00
  6.989409e+00    3.007698e+00
  7.005284e+00    2.999484e+00
  7.021160e+00    2.993123e+00
  7.037036e+00    2.949785e+00
  7.052911e+00    2.983541e+00
  7.068787e+00    3.011760e+00
  7.084662e+00    3.012821e+00
  7.100538e+00    3.067374e+00
  7.116413e+00    3.049358e+00
  7.132289e+00    2.928622e+00
  7.148165e+00    2.980083e+00
  7.164040e+00    2.959529e+00
  7.179916e+00    2.924352e+00
  7.195791e+00    3.007798e+00
  7.211667e+00    3.006472e+00
  7.227542e+00    3.018118e+00
  7.243418e+00    2.933558e+00
  7.259294e+00    2.939142e+00
  7.275169e+00    2.971515e+00
  7.291045e+00    2.986514e+00
  7.306920e+00    2.876904e+00
  7.322796e+00    2.895904e+00
  7.338671e+00    2.948100e+00
  7.354547e+00    2.966600e+00
  7.370423e+00    2.979912e+00
  7.386298e+00    2.998727e+00
  7.402174e+00    2.996311e+00
  7.418049e+00    2.950063e+00
  7.433925e+00    2.916387e+00
  7.449800e+00    3.008167e+00
  7.465676e+00    2.959778e+00
  7.481552e+00    2.937460e+00
  7.497427e+00    2.961432e+00
  7.513303e+00    2.994688e+00
  7.529178e+00    2.964954e+00
  7.545054e+00    2.907793e+00
  7.560929e+00    2.954118e+00
  7.576805e+00    2.975098e+00
  7.592681e+00    2.928231e+00
  7.608556e+00    2.972347e+00
  7.624432e+00    2.947066e+00
  7.640307e+00    2.958624e+00
  7.656183e+00    2.943605e+00
  7.672058e+00    2.942226e+00
  7.687934e+00    2.877474e+00
  7.703810e+00    2.924976e+00
  7.719685e+00    3.001709e+00
  7.735561e+00    2.960450e+00
  7.751436e+00    2.967865e+00
  7.767312e+00    3.010003e+00
  7.783187e+00    2.921616e+00
  7.799063e+00    2.934651e+00
  7.814939e+00    2.955314e+00
  7.830814e+00    3.003426e+00
  7.846690e+00    2.940732e+00
  7.862565e+00    2.960296e+00
  7.878441e+00    2.927404e+00
  7.894317e+00    2.875499e+00
  7.910192e+00    2.907515e+00
  7.926068e+00    2.991133e+00
  7.941943e+00    2.878212e+00
  7.957819e+00    2.876410e+00
  7.973694e+00    2.927637e+00
  7.989570e+00    2.961221e+00
  8.005446e+00    2.922814e+00
  8.021321e+00    2.895288e+00
  8.037197e+00    2.909723e+00
  8.053072e+00    2.881614e+00
  8.068948e+00    2.890147e+00
  8.084823e+00    2.926783e+00
  8.100699e+00    2.923276e+00
  8.116575e+00    2.952276e+00
  8.132450e+00    2.971296e+00
  8.148326e+00    2.993538e+00
  8.164201e+00    2.978864e+00
  8.180077e+00    2.954456e+00
  8.195952e+00    2.934486e+00
  8.211828e+00    3.017547e+00
  8.227704e+00    3.030183e+00
  8.243579e+00    2.999910e+00
  8.259455e+00    2.946911e+00
  8.275330e+00    2.929063e+00
  8.291206e+00    2.914011e+00
  8.307081e+00    2.910747e+00
  8.322957e+00    2.901628e+00
  8.338833e+00    2.841084e+00
  8.354708e+00    2.857804e+00
  8.370584e+00    2.873808e+00
  8.386459e+00    2.877281e+00
  8.402335e+00    2.876750e+00
  8.418210e+00    2.861691e+00
  8.434086e+00    2.864258e+00
  8.449962e+00    2.845963e+00
  8.465837e+00    2.866747e+00
  8.481713e+00    2.865502e+00
  8.497588e+00    2.858917e+00
  8.513464e+00    2.887489e+00
  8.529339e+00    2.851645e+00
  8.545215e+00    2.924820e+00
  8.561091e+00    2.898139e+00
  8.576966e+00    2.879431e+00
  8.592842e+00    2.854811e+00
  8.608717e+00    2.844599e+00
  8.624593e+00    2.858409e+00
  8.640468e+00    2.915186e+00
  8.656344e+00    2.854241e+00
  8.672220e+00    2.850651e+00
  8.688095e+00    2.858144e+00
  8.703971e+00    2.891995e+00
  8.719846e+00    2.871562e+00
  8.735722e+00    2.853963e+00
  8.751598e+00    2.822658e+00
  8.767473e+00    2.846449e+00
  8.783349e+00    2.843220e+00
  8.799224e+00    2.834550e+00
  8.815100e+00    2.863166e+00
  8.830975e+00    2.793047e+00
  8.846851e+00    2.875543e+00
  8.862727e+00    2.862659e+00
  8.878602e+00    2.791974e+00
  8.894478e+00    2.806719e+00
  8.910353e+00    2.863288e+00
  8.926229e+00    2.824837e+00
  8.942104e+00    2.784593e+00
  8.957980e+00    2.827360e+00
  8.973856e+00    2.846235e+00
  8.989731e+00    2.797308e+00
  9.005607e+00    2.807812e+00
  9.021482e+00    2.841992e+00
  9.037358e+00    2.808409e+00
  9.053233e+00    2.820652e+00
  9.069109e+00    2.816747e+00
  9.084985e+00    2.763455e+00
  9.100860e+00    2.820223e+00
  9.116736e+00    2.744009e+00
  9.132611e+00    2.742054e+00
  9.148487e+00    2.754039e+00
  9.164362e+00    2.801558e+00
  9.180238e+00    2.770465e+00
  9.196114e+00    2.776065e+00
  9.211989e+00    2.758129e+00
  9.227865e+00    2.796534e+00
  9.243740e+00    2.777632e+00
  9.259616e+00    2.733337e+00
  9.275491e+00    2.752314e+00
  9.291367e+00    2.785580e+00
  9.307243e+00    2.784955e+00
  9.323118e+00    2.745622e+00
  9.338994e+00    2.758761e+00
  9.354869e+00    2.757495e+00
  9.370745e+00    2.762187e+00
  9.386620e+00    2.743339e+00
  9.402496e+00    2.769744e+00
  9.418372e+00    2.790880e+00
  9.434247e+00    2.778284e+00
  9.450123e+00    2.732833e+00
  9.465998e+00    2.773755e+00
  9.481874e+00    2.731051e+00
  9.497749e+00    2.713326e+00
  9.513625e+00    2.741094e+00
  9.529501e+00    2.729449e+00
  9.545376e+00    2.747947e+00
  9.561252e+00    2.757165e+00
  9.577127e+00    2.691210e+00
  9.593003e+00    2.694286e+00
  9.608878e+00    2.748432e+00
  9.624754e+00    2.789259e+00
  9.640630e+00    2.772194e+00
  9.656505e+00    2.718547e+00
  9.672381e+00    2.722684e+00
  9.688256e+00    2.766277e+00
  9.704132e+00    2.759490e+00
  9.720008e+00    2.713456e+00
  9.735883e+00    2.740710e+00
  9.751759e+00    2.740553e+00
  9.767634e+00    2.707741e+00
  9.783510e+00    2.633513e+00
  9.799385e+00    2.712500e+00
  9.815261e+00    2.706506e+00
  9.831137e+00    2.729373e+00
  9.847012e+00    2.721000e+00
  9.862888e+00    2.719284e+00
  9.878763e+00    2.676794e+00
  9.894639e+00    2.657803e+00
  9.910514e+00    2.696266e+00
  9.926390e+00    2.720456e+00
  9.942266e+00    2.710311e+00
  9.958141e+00    2.714361e+00
  9.974017e+00    2.693175e+00
  9.989892e+00    2.694638e+00
  1.000577e+01    2.689739e+00
  1.002164e+01    2.680390e+00
  1.003752e+01    2.653931e+00
  1.005339e+01    2.648773e+00
  1.006927e+01    2.659531e+00
  1.008515e+01    2.635308e+00
  1.010102e+01    2.644086e+00
  1.011690e+01    2.643825e+00
  1.013277e+01    2.641040e+00
  1.014865e+01    2.643126e+00
  1.016452e+01    2.621302e+00
  1.018040e+01    2.636182e+00
  1.019627e+01    2.621104e+00
  1.021215e+01    2.654089e+00
  1.022803e+01    2.652729e+00
  1.024390e+01    2.586297e+00
  1.025978e+01    2.593583e+00
  1.027565e+01    2.659919e+00
  1.029153e+01    2.659434e+00
  1.030740e+01    2.665803e+00
  1.032328e+01    2.691857e+00
  1.033915e+01    2.623161e+00
  1.035503e+01    2.568532e+00
  1.037091e+01    2.621542e+00
  1.038678e+01    2.585507e+00
  1.040266e+01    2.570688e+00
  1.041853e+01    2.621428e+00
  1.043441e+01    2.603666e+00
  1.045028e+01    2.608671e+00
  1.046616e+01    2.588002e+00
  1.048204e+01    2.584224e+00
  1.049791e+01    2.522955e+00
  1.051379e+01    2.576099e+00
  1.052966e+01    2.554581e+00
  1.054554e+01    2.561953e+00
  1.056141e+01    2.591436e+00
  1.057729e+01    2.583161e+00
  1.059316e+01    2.534564e+00
  1.060904e+01    2.546449e+00
  1.062492e+01    2.567769e+00
  1.064079e+01    2.563568e+00
  1.065667e+01    2.541685e+00
  1.067254e+01    2.526707e+00
  1.068842e+01    2.571510e+00
  1.070429e+01    2.550662e+00
  1.072017e+01    2.513153e+00
  1.073604e+01    2.486280e+00
  1.075192e+01    2.554489e+00
  1.076780e+01    2.540371e+00
  1.078367e+01    2.530788e+00
  1.079955e+01    2.537801e+00
  1.081542e+01    2.559136e+00
  1.083130e+01    2.519550e+00
  1.084717e+01    2.526863e+00
  1.086305e+01    2.528997e+00
  1.087892e+01    2.530529e+00
  1.089480e+01    2.496971e+00
  1.091068e+01    2.477288e+00
  1.092655e+01    2.491256e+00
  1.094243e+01    2.509275e+00
  1.095830e+01    2.488260e+00
  1.097418e+01    2.458049e+00
  1.099005e+01    2.480990e+00
  1.100593e+01    2.454210e+00
  1.102180e+01    2.480381e+00
  1.103768e+01    2.463748e+00
  1.105356e+01    2.488662e+00
  1.106943e+01    2.444010e+00
  1.108531e+01    2.416047e+00
  1.110118e+01    2.427156e+00
  1.111706e+01    2.442581e+00
  1.113293e+01    2.461268e+00
  1.114881e+01    2.447598e+00
  1.116468e+01    2.459461e+00
  1.118056e+01    2.502285e+00
  1.119644e+01    2.449358e+00
  1.121231e+01    2.436963e+00
  1.122819e+01    2.428963e+00
  1.124406e+01    2.456936e+00
  1.125994e+01    2.436069e+00
  1.127581e+01    2.438372e+00
  1.129169e+01    2.454132e+00
  1.130756e+01    2.439225e+00
  1.132344e+01    2.429078e+00
  1.133932e+01    2.431740e+00
  1.135519e+01    2.387224e+00
  1.137107e+01    2.428836e+00
  1.138694e+01    2.440045e+00
  1.140282e+01    2.442926e+00
  1.141869e+01    2.459723e+00
  1.143457e+01    2.421650e+00
  1.145045e+01    2.352984e+00
  1.146632e+01    2.366951e+00
  1.148220e+01    2.377262e+00
  1.149807e+01    2.423786e+00
  1.151395e+01    2.408281e+00
  1.152982e+01    2.365816e+00
  1.154570e+01    2.373123e+00
  1.156157e+01    2.405584e+00
  1.157745e+01    2.367424e+00
  1.159333e+01    2.361387e+00
  1.160920e+01    2.363321e+00
  1.162508e+01    2.339021e+00
  1.164095e+01    2.338703e+00
  1.165683e+01    2.359138e+00
  1.167270e+01    2.389569e+00
  1.168858e+01    2.348946e+00
  1.170445e+01    2.345445e+00
  1.172033e+01    2.346309e+00
  1.173621e+01    2.388838e+00
  1.175208e+01    2.373475e+00
  1.176796e+01    2.341381e+00
  1.178383e+01    2.323479e+00
  1.179971e+01    2.340117e+00
  1.181558e+01    2.311113e+00
  1.183146e+01    2.350375e+00
  1.184733e+01    2.310416e+00
  1.186321e+01    2.323314e+00
  1.187909e+01    2.361719e+00
  1.189496e+01    2.377523e+00
  1.191084e+01    2.376553e+00
  1.192671e+01    2.359757e+00
  1.194259e+01    2.335902e+00
  1.195846e+01    2.352774e+00
  1.197434e+01    2.336040e+00
  1.199021e+01    2.317118e+00
  1.200609e+01    2.314566e+00
  1.202197e+01    2.321384e+00
  1.203784e+01    2.314511e+00
  1.205372e+01    2.282519e+00
  1.206959e+01    2.293582e+00
  1.208547e+01    2.317615e+00
  1.210134e+01    2.305372e+00
  1.211722e+01    2.331838e+00
  1.213309e+01    2.350791e+00
  1.214897e+01    2.320597e+00
  1.216485e+01    2.329195e+00
  1.218072e+01    2.340901e+00
  1.219660e+01    2.302653e+00
  1.221247e+01    2.352491e+00
  1.222835e+01    2.307447e+00
  1.224422e+01    2.331769e+00
  1.226010e+01    2.333076e+00
  1.227597e+01    2.304633e+00
  1.229185e+01    2.281550e+00
  1.230773e+01    2.272533e+00
  1.232360e+01    2.300611e+00
  1.233948e+01    2.329626e+00
  1.235535e+01    2.316278e+00
  1.237123e+01    2.339737e+00
  1.238710e+01    2.309641e+00
  1.240298e+01    2.318151e+00
  1.241886e+01    2.322705e+00
  1.243473e+01    2.315248e+00
  1.245061e+01    2.328217e+00
  1.246648e+01    2.352220e+00
  1.248236e+01    2.346153e+00
  1.249823e+01    2.336504e+00
  1.251411e+01    2.345125e+00
  1.252998e+01    2.337409e+00
  1.254586e+01    2.358979e+00
  1.256174e+01    2.355289e+00
  1.257761e+01    2.376147e+00
  1.259349e+01    2.364207e+00
  1.260936e+01    2.356870e+00
  1.262524e+01    2.372516e+00
  1.264111e+01    2.384900e+00
  1.265699e+01    2.421820e+00
  1.267286e+01    2.417836e+00
  1.268874e+01    2.450808e+00
  1.270462e+01    2.438686e+00
  1.272049e+01    2.431654e+00
  1.273637e+01    2.504805e+00
  1.275224e+01    2.525511e+00
  1.276812e+01    2.524477e+00
  1.278399e+01    2.581055e+00
  1.279987e+01    2.608854e+00
  1.281574e+01    2.678005e+00
  1.283162e+01    2.736362e+00
  1.284750e+01    2.798871e+00
  1.286337e+01    2.903596e+00
  1.287925e+01    3.043568e+00
  1.289512e+01    3.138108e+00
  1.291100e+01    3.270283e+00
  1.292687e+01    3.477619e+00
  1.294275e+01    3.663561e+00
  1.295862e+01    3.942325e+00
  1.297450e+01    4.299508e+00
  1.299038e+01    4.803159e+00
  1.300625e+01    5.474441e+00
  1.302213e+01    6.167492e+00
  1.303800e+01    7.117107e+00
  1.305388e+01    8.339972e+00
  1.306975e+01    9.541862e+00
  1.308563e+01    1.087655e+01
  1.310150e+01    1.211286e+01
  1.311738e+01    1.331368e+01
  1.313326e+01    1.455853e+01
  1.314913e+01    1.566030e+01
  1.316501e+01    1.652457e+01
  1.318088e+01    1.682710e+01
  1.319676e+01    1.646179e+01
  1.321263e+01    1.529331e+01
  1.322851e+01    1.339966e+01
  1.324438e+01    1.133913e+01
  1.326026e+01    9.510950e+00
  1.327614e+01    8.138788e+00
  1.329201e+01    6.985143e+00
  1.330789e+01    5.973405e+00
  1.332376e+01    5.216091e+00
  1.333964e+01    4.686877e+00
  1.335551e+01    4.222185e+00
  1.337139e+01    3.866191e+00
  1.338727e+01    3.660305e+00
  1.340314e+01    3.433299e+00
  1.341902e+01    3.225314e+00
  1.343489e+01    3.067980e+00
  1.345077e+01    2.966495e+00
  1.346664e+01    2.805879e+00
  1.348252e+01    2.732427e+00
  1.349839e+01    2.663505e+00
  1.351427e+01    2.561910e+00
  1.353015e+01    2.526192e+00
  1.354602e+01    2.518737e+00
  1.356190e+01    2.476018e+00
  1.357777e+01    2.427149e+00
  1.359365e+01    2.388089e+00
  1.360952e+01    2.360801e+00
  1.362540e+01    2.317033e+00
  1.364127e+01    2.274871e+00
  1.365715e+01    2.218399e+00
  1.367303e+01    2.191684e+00
  1.368890e+01    2.255642e+00
  1.370478e+01    2.246876e+00
  1.372065e+01    2.227280e+00
  1.373653e+01    2.199517e+00
  1.375240e+01    2.173315e+00
  1.376828e+01    2.157480e+00
  1.378415e+01    2.160590e+00
  1.380003e+01    2.134001e+00
  1.381591e+01    2.119882e+00
  1.383178e+01    2.133204e+00
  1.384766e+01    2.100649e+00
  1.386353e+01    2.113588e+00
  1.387941e+01    2.089317e+00
  1.389528e+01    2.084120e+00
  1.391116e+01    2.102002e+00
  1.392703e+01    2.126586e+00
  1.394291e+01    2.096093e+00
  1.395879e+01    2.050553e+00
  1.397466e+01    2.048220e+00
  1.399054e+01    2.059710e+00
  1.400641e+01    2.093220e+00
  1.402229e+01    2.064202e+00
  1.403816e+01    2.028370e+00
  1.405404e+01    2.031997e+00
  1.406991e+01    1.993957e+00
  1.408579e+01    1.999556e+00
  1.410167e+01    2.011718e+00
  1.411754e+01    1.986480e+00
  1.413342e+01    1.963352e+00
  1.414929e+01    2.002918e+00
  1.416517e+01    2.031192e+00
  1.418104e+01    2.006991e+00
  1.419692e+01    1.958551e+00
  1.421279e+01    1.936299e+00
  1.422867e+01    1.965093e+00
  1.424455e+01    1.977765e+00
  1.426042e+01    1.981169e+00
  1.427630e+01    1.967677e+00
  1.429217e+01    1.970386e+00
  1.430805e+01    1.950724e+00
  1.432392e+01    1.963002e+00
  1.433980e+01    1.946714e+00
  1.435568e+01    1.942768e+00
  1.437155e+01    1.929310e+00
  1.438743e+01    1.942998e+00
  1.440330e+01    1.957420e+00
  1.441918e+01    1.950781e+00
  1.443505e+01    1.930589e+00
  1.445093e+01    1.914351e+00
  1.446680e+01    1.900404e+00
  1.448268e+01    1.911275e+00
  1.449856e+01    1.953340e+00
  1.451443e+01    1.957177e+00
  1.453031e+01    1.927172e+00
  1.454618e+01    1.895497e+00
  1.456206e+01    1.906371e+00
  1.457793e+01    1.907581e+00
  1.459381e+01    1.889670e+00
  1.460968e+01    1.887708e+00
  1.462556e+01    1.908397e+00
  1.464144e+01    1.911612e+00
  1.465731e+01    1.919109e+00
  1.467319e+01    1.912920e+00
  1.468906e+01    1.900071e+00
  1.470494e+01    1.903117e+00
  1.472081e+01    1.854037e+00
  1.473669e+01    1.878119e+00
  1.475256e+01    1.922081e+00
  1.476844e+01    1.894871e+00
  1.478432e+01    1.927941e+00
  1.480019e+01    1.927109e+00
  1.481607e+01    1.954128e+00
  1.483194e+01    1.938368e+00
  1.484782e+01    1.892681e+00
  1.486369e+01    1.931094e+00
  1.487957e+01    1.974464e+00
  1.489544e+01    1.944757e+00
  1.491132e+01    1.974233e+00
  1.492720e+01    1.970262e+00
  1.494307e+01    1.982838e+00
  1.495895e+01    2.001287e+00
  1.497482e+01    2.010703e+00
  1.499070e+01    2.094864e+00
  1.500657e+01    2.150111e+00
  1.502245e+01    2.199644e+00
  1.503832e+01    2.264959e+00
  1.505420e+01    2.361961e+00
  1.507008e+01    2.509667e+00
  1.508595e+01    2.658223e+00
  1.510183e+01    2.835937e+00
  1.511770e+01    3.158743e+00
  1.513358e+01    3.431747e+00
  1.514945e+01    3.803972e+00
  1.516533e+01    4.186577e+00
  1.518120e+01    4.564050e+00
  1.519708e+01    4.893678e+00
  1.521296e+01    5.182297e+00
  1.522883e+01    5.421197e+00
  1.524471e+01    5.634410e+00
  1.526058e+01    5.713348e+00
  1.527646e+01    5.711257e+00
  1.529233e+01    5.579582e+00
  1.530821e+01    5.223643e+00
  1.532409e+01    4.761680e+00
  1.533996e+01    4.220812e+00
  1.535584e+01    3.693991e+00
  1.537171e+01    3.314949e+00
  1.538759e+01    3.009795e+00
  1.540346e+01    2.832669e+00
  1.541934e+01    2.625959e+00
  1.543521e+01    2.446143e+00
  1.545109e+01    2.288703e+00
  1.546697e+01    2.207016e+00
  1.548284e+01    2.103653e+00
  1.549872e+01    2.080875e+00
  1.551459e+01    1.994873e+00
  1.553047e+01    1.939280e+00
  1.554634e+01    1.923170e+00
  1.556222e+01    1.894823e+00
  1.557809e+01    1.833681e+00
  1.559397e+01    1.823725e+00
  1.560985e+01    1.820158e+00
  1.562572e+01    1.800986e+00
  1.564160e+01    1.793282e+00
  1.565747e+01    1.778356e+00
  1.567335e+01    1.735569e+00
  1.568922e+01    1.755182e+00
  1.570510e+01    1.745203e+00
  1.572097e+01    1.742476e+00
  1.573685e+01    1.753187e+00
  1.575273e+01    1.734458e+00
  1.576860e+01    1.679451e+00
  1.578448e+01    1.686831e+00
  1.580035e+01    1.678925e+00
  1.581623e+01    1.666236e+00
  1.583210e+01    1.663737e+00
  1.584798e+01    1.670432e+00
  1.586385e+01    1.651549e+00
  1.587973e+01    1.634333e+00
  1.589561e+01    1.636245e+00
  1.591148e+01    1.605206e+00
  1.592736e+01    1.617726e+00
  1.594323e+01    1.601120e+00
  1.595911e+01    1.623446e+00
  1.597498e+01    1.594617e+00
  1.599086e+01    1.585503e+00
  1.600673e+01    1.616965e+00
  1.602261e+01    1.594544e+00
  1.603849e+01    1.600790e+00
  1.605436e+01    1.594114e+00
  1.607024e+01    1.612068e+00
  1.608611e+01    1.573385e+00
  1.610199e+01    1.590573e+00
  1.611786e+01    1.560868e+00
  1.613374e+01    1.577251e+00
  1.614961e+01    1.570105e+00
  1.616549e+01    1.572544e+00
  1.618137e+01    1.578820e+00
  1.619724e+01    1.554867e+00
  1.621312e+01    1.564879e+00
  1.622899e+01    1.545782e+00
  1.624487e+01    1.557657e+00
  1.626074e+01    1.561271e+00
  1.627662e+01    1.539738e+00
  1.629250e+01    1.529465e+00
  1.630837e+01    1.539405e+00
  1.632425e+01    1.558119e+00
  1.634012e+01    1.528272e+00
  1.635600e+01    1.496299e+00
  1.637187e+01    1.490221e+00
  1.638775e+01    1.516204e+00
  1.640362e+01    1.499520e+00
  1.641950e+01    1.517607e+00
  1.643538e+01    1.547614e+00
  1.645125e+01    1.530246e+00
  1.646713e+01    1.551340e+00
  1.648300e+01    1.523943e+00
  1.649888e+01    1.486882e+00
  1.651475e+01    1.485549e+00
  1.653063e+01    1.501297e+00
  1.654650e+01    1.487502e+00
  1.656238e+01    1.471945e+00
  1.657826e+01    1.506772e+00
  1.659413e+01    1.482236e+00
  1.661001e+01    1.488452e+00
  1.662588e+01    1.503022e+00
  1.664176e+01    1.485269e+00
  1.665763e+01    1.482148e+00
  1.667351e+01    1.484552e+00
  1.668938e+01    1.465850e+00
  1.670526e+01    1.475576e+00
  1.672114e+01    1.484207e+00
  1.673701e+01    1.464310e+00
  1.675289e+01    1.454924e+00
  1.676876e+01    1.499108e+00
  1.678464e+01    1.461311e+00
  1.680051e+01    1.473150e+00
  1.681639e+01    1.472216e+00
  1.683226e+01    1.477656e+00
  1.684814e+01    1.435185e+00
  1.686402e+01    1.446557e+00
  1.687989e+01    1.441317e+00
  1.689577e+01    1.445195e+00
  1.691164e+01    1.443417e+00
  1.692752e+01    1.406552e+00
  1.694339e+01    1.427373e+00
  1.695927e+01    1.456051e+00
  1.697514e+01    1.437865e+00
  1.699102e+01    1.403526e+00
  1.700690e+01    1.419800e+00
  1.702277e+01    1.410776e+00
  1.703865e+01    1.396888e+00
  1.705452e+01    1.436187e+00
  1.707040e+01    1.405525e+00
  1.708627e+01    1.396167e+00
  1.710215e+01    1.407553e+00
  1.711802e+01    1.423303e+00
  1.713390e+01    1.419287e+00
  1.714978e+01    1.402788e+00
  1.716565e+01    1.401395e+00
  1.718153e+01    1.385765e+00
  1.719740e+01    1.395324e+00
  1.721328e+01    1.415388e+00
  1.722915e+01    1.408154e+00
  1.724503e+01    1.408124e+00
  1.726091e+01    1.410105e+00
  1.727678e+01    1.397671e+00
  1.729266e+01    1.388261e+00
  1.730853e+01    1.378605e+00
  1.732441e+01    1.391542e+00
  1.734028e+01    1.351756e+00
  1.735616e+01    1.381412e+00
  1.737203e+01    1.409404e+00
  1.738791e+01    1.378560e+00
  1.740379e+01    1.365427e+00
  1.741966e+01    1.355254e+00
  1.743554e+01    1.337412e+00
  1.745141e+01    1.315255e+00
  1.746729e+01    1.357082e+00
  1.748316e+01    1.365400e+00
  1.749904e+01    1.367570e+00
  1.751491e+01    1.347808e+00
  1.753079e+01    1.358912e+00
  1.754667e+01    1.359090e+00
  1.756254e+01    1.358926e+00
  1.757842e+01    1.325949e+00
  1.759429e+01    1.345303e+00
  1.761017e+01    1.346833e+00
  1.762604e+01    1.369604e+00
  1.764192e+01    1.330455e+00
  1.765779e+01    1.332489e+00
  1.767367e+01    1.351149e+00
  1.768955e+01    1.340934e+00
  1.770542e+01    1.338086e+00
  1.772130e+01    1.336513e+00
  1.773717e+01    1.317700e+00
  1.775305e+01    1.308104e+00
  1.776892e+01    1.290849e+00
  1.778480e+01    1.311782e+00
  1.780067e+01    1.355066e+00
  1.781655e+01    1.326670e+00
  1.783243e+01    1.294648e+00
  1.784830e+01    1.322294e+00
  1.786418e+01    1.330453e+00
  1.788005e+01    1.320899e+00
  1.789593e+01    1.337156e+00
  1.791180e+01    1.291833e+00
  1.792768e+01    1.334311e+00
  1.794355e+01    1.322480e+00
  1.795943e+01    1.292894e+00
  1.797531e+01    1.311904e+00
  1.799118e+01    1.315594e+00
  1.800706e+01    1.287141e+00
  1.802293e+01    1.306587e+00
  1.803881e+01    1.314655e+00
  1.805468e+01    1.288616e+00
  1.807056e+01    1.263508e+00
  1.808643e+01    1.279149e+00
  1.810231e+01    1.270935e+00
  1.811819e+01    1.270120e+00
  1.813406e+01    1.280597e+00
  1.814994e+01    1.308849e+00
  1.816581e+01    1.302768e+00
  1.818169e+01    1.276192e+00
  1.819756e+01    1.282158e+00
  1.821344e+01    1.268535e+00
  1.822932e+01    1.270907e+00
  1.824519e+01    1.274598e+00
  1.826107e+01    1.251272e+00
  1.827694e+01    1.268938e+00
  1.829282e+01    1.257275e+00
  1.830869e+01    1.285977e+00
  1.832457e+01    1.262265e+00
  1.834044e+01    1.258725e+00
  1.835632e+01    1.255739e+00
  1.837220e+01    1.265525e+00
  1.838807e+01    1.270236e+00
  1.840395e+01    1.247494e+00
  1.841982e+01    1.242925e+00
  1.843570e+01    1.255151e+00
  1.845157e+01    1.234118e+00
  1.846745e+01    1.262284e+00
  1.848332e+01    1.248264e+00
  1.849920e+01    1.221028e+00
  1.851508e+01    1.235716e+00
  1.853095e+01    1.245286e+00
  1.854683e+01    1.231534e+00
  1.856270e+01    1.220754e+00
  1.857858e+01    1.222749e+00
  1.859445e+01    1.222778e+00
  1.861033e+01    1.229346e+00
  1.862620e+01    1.206705e+00
  1.864208e+01    1.241831e+00
  1.865796e+01    1.241604e+00
  1.867383e+01    1.223476e+00
  1.868971e+01    1.203483e+00
  1.870558e+01    1.217888e+00
  1.872146e+01    1.227599e+00
  1.873733e+01    1.221487e+00
  1.875321e+01    1.206536e+00
  1.876908e+01    1.218931e+00
  1.878496e+01    1.245615e+00
  1.880084e+01    1.238590e+00
  1.881671e+01    1.198776e+00
  1.883259e+01    1.202573e+00
  1.884846e+01    1.207910e+00
  1.886434e+01    1.202653e+00
  1.888021e+01    1.187299e+00
  1.889609e+01    1.190138e+00
  1.891196e+01    1.205167e+00
  1.892784e+01    1.212942e+00
  1.894372e+01    1.199281e+00
  1.895959e+01    1.182194e+00
  1.897547e+01    1.189209e+00
  1.899134e+01    1.191367e+00
  1.900722e+01    1.185551e+00
  1.902309e+01    1.188096e+00
  1.903897e+01    1.203599e+00
  1.905484e+01    1.204671e+00
  1.907072e+01    1.190459e+00
  1.908660e+01    1.202522e+00
  1.910247e+01    1.184141e+00
  1.911835e+01    1.194758e+00
  1.913422e+01    1.188437e+00
  1.915010e+01    1.166294e+00
  1.916597e+01    1.187186e+00
  1.918185e+01    1.169545e+00
  1.919773e+01    1.158657e+00
  1.921360e+01    1.172468e+00
  1.922948e+01    1.177312e+00
  1.924535e+01    1.178415e+00
  1.926123e+01    1.175453e+00
  1.927710e+01    1.168351e+00
  1.929298e+01    1.165650e+00
  1.930885e+01    1.163155e+00
  1.932473e+01    1.168736e+00
  1.934061e+01    1.172482e+00
  1.935648e+01    1.174594e+00
  1.937236e+01    1.182516e+00
  1.938823e+01    1.172250e+00
  1.940411e+01    1.166092e+00
  1.941998e+01    1.174704e+00
  1.943586e+01    1.146957e+00
  1.945173e+01    1.145894e+00
  1.946761e+01    1.170327e+00
  1.948349e+01    1.172169e+00
  1.949936e+01    1.150995e+00
  1.951524e+01    1.145317e+00
  1.953111e+01    1.159829e+00
  1.954699e+01    1.149404e+00
  1.956286e+01    1.135272e+00
  1.957874e+01    1.134694e+00
  1.959461e+01    1.131182e+00
  1.961049e+01    1.134643e+00
  1.962637e+01    1.149720e+00
  1.964224e+01    1.157241e+00
  1.965812e+01    1.157113e+00
  1.967399e+01    1.143280e+00
  1.968987e+01    1.135071e+00
  1.970574e+01    1.125127e+00
  1.972162e+01    1.127104e+00
  1.973749e+01    1.138729e+00
  1.975337e+01    1.116619e+00
  1.976925e+01    1.121288e+00
  1.978512e+01    1.109545e+00
  1.980100e+01    1.134136e+00
  1.981687e+01    1.132190e+00
  1.983275e+01    1.123561e+00
  1.984862e+01    1.129190e+00
  1.986450e+01    1.138230e+00
  1.988037e+01    1.125834e+00
  1.989625e+01    1.107614e+00
  1.991213e+01    1.114584e+00
  1.992800e+01    1.117733e+00
  1.994388e+01    1.099742e+00
  1.995975e+01    1.107568e+00
  1.997563e+01    1.097057e+00
  1.999150e+01    1.074819e+00
  2.000738e+01    1.099987e+00
  2.002325e+01    1.102173e+00
  2.003913e+01    1.118762e+00
  2.005501e+01    1.119528e+00
  2.007088e+01    1.101841e+00
  2.008676e+01    1.105942e+00
  2.010263e+01    1.103618e+00
  2.011851e+01    1.098026e+00
  2.013438e+01    1.082676e+00
  2.015026e+01    1.107363e+00
  2.016614e+01    1.119163e+00
  2.018201e+01    1.098356e+00
  2.019789e+01    1.097543e+00
  2.021376e+01    1.080285e+00
  2.022964e+01    1.065480e+00
  2.024551e+01    1.087794e+00
  2.026139e+01    1.079770e+00
  2.027726e+01    1.092025e+00
  2.029314e+01    1.103388e+00
  2.030902e+01    1.094874e+00
  2.032489e+01    1.071835e+00
  2.034077e+01    1.077662e+00
  2.035664e+01    1.099387e+00
  2.037252e+01    1.094272e+00
  2.038839e+01    1.072742e+00
  2.040427e+01    1.071728e+00
  2.042014e+01    1.099125e+00
  2.043602e+01    1.087260e+00
  2.045190e+01    1.094487e+00
  2.046777e+01    1.075182e+00
  2.048365e+01    1.077432e+00
  2.049952e+01    1.078237e+00
  2.051540e+01    1.069206e+00
  2.053127e+01    1.045895e+00
  2.054715e+01    1.066621e+00
  2.056302e+01    1.075713e+00
  2.057890e+01    1.067502e+00
  2.059478e+01    1.083631e+00
  2.061065e+01    1.061015e+00
  2.062653e+01    1.081347e+00
  2.064240e+01    1.074057e+00
  2.065828e+01    1.100290e+00
  2.067415e+01    1.078387e+00
  2.069003e+01    1.071332e+00
  2.070590e+01    1.081476e+00
  2.072178e+01    1.065467e+00
  2.073766e+01    1.074380e+00
  2.075353e+01    1.061985e+00
  2.076941e+01    1.050553e+00
  2.078528e+01    1.048327e+00
  2.080116e+01    1.073687e+00
  2.081703e+01    1.098087e+00
  2.083291e+01    1.061060e+00
  2.084878e+01    1.060741e+00
  2.086466e+01    1.075958e+00
  2.088054e+01    1.077942e+00
  2.089641e+01    1.103881e+00
  2.091229e+01    1.088275e+00
  2.092816e+01    1.087594e+00
  2.094404e+01    1.075175e+00
  2.095991e+01    1.080109e+00
  2.097579e+01    1.086528e+00
  2.099166e+01    1.067524e+00
  2.100754e+01    1.062187e+00
  2.102342e+01    1.057531e+00
  2.103929e+01    1.054764e+00
  2.105517e+01    1.074226e+00
  2.107104e+01    1.078245e+00
  2.108692e+01    1.079712e+00
  2.110279e+01    1.075779e+00
  2.111867e+01    1.080139e+00
  2.113455e+01    1.098964e+00
  2.115042e+01    1.073433e+00
  2.116630e+01    1.091382e+00
  2.118217e+01    1.100897e+00
  2.119805e+01    1.106272e+00
  2.121392e+01    1.095876e+00
  2.122980e+01    1.104931e+00
  2.124567e+01    1.087657e+00
  2.126155e+01    1.109727e+00
  2.127743e+01    1.108462e+00
  2.129330e+01    1.130244e+00
  2.130918e+01    1.130856e+00
  2.132505e+01    1.124721e+00
  2.134093e+01    1.137908e+00
  2.135680e+01    1.137072e+00
  2.137268e+01    1.135027e+00
  2.138855e+01    1.148671e+00
  2.140443e+01    1.185186e+00
  2.142031e+01    1.195662e+00
  2.143618e+01    1.207987e+00
  2.145206e+01    1.194936e+00
  2.146793e+01    1.242402e+00
  2.148381e+01    1.258752e+00
  2.149968e+01    1.275985e+00
  2.151556e+01    1.318047e+00
  2.153143e+01    1.337679e+00
  2.154731e+01    1.395636e+00
  2.156319e+01    1.427957e+00
  2.157906e+01    1.457791e+00
  2.159494e+01    1.530159e+00
  2.161081e+01    1.580584e+00
  2.162669e+01    1.686508e+00
  2.164256e+01    1.815489e+00
  2.165844e+01    1.949026e+00
  2.167431e+01    2.106084e+00
  2.169019e+01    2.329558e+00
  2.170607e+01    2.555506e+00
  2.172194e+01    2.891430e+00
  2.173782e+01    3.294880e+00
  2.175369e+01    3.796200e+00
  2.176957e+01    4.319407e+00
  2.178544e+01    4.863834e+00
  2.180132e+01    5.550865e+00
  2.181719e+01    6.192748e+00
  2.183307e+01    6.836184e+00
  2.184895e+01    7.570808e+00
  2.186482e+01    8.271767e+00
  2.188070e+01    8.860353e+00
  2.189657e+01    9.124667e+00
  2.191245e+01    9.145701e+00
  2.192832e+01    8.759912e+00
  2.194420e+01    8.016335e+00
  2.196007e+01    7.097225e+00
  2.197595e+01    6.119823e+00
  2.199183e+01    5.190990e+00
  2.200770e+01    4.428520e+00
  2.202358e+01    3.760743e+00
  2.203945e+01    3.297053e+00
  2.205533e+01    2.873050e+00
  2.207120e+01    2.535563e+00
  2.208708e+01    2.321395e+00
  2.210296e+01    2.107778e+00
  2.211883e+01    1.929423e+00
  2.213471e+01    1.790157e+00
  2.215058e+01    1.684268e+00
  2.216646e+01    1.574540e+00
  2.218233e+01    1.505059e+00
  2.219821e+01    1.439021e+00
  2.221408e+01    1.362742e+00
  2.222996e+01    1.322714e+00
  2.224584e+01    1.282186e+00
  2.226171e+01    1.250229e+00
  2.227759e+01    1.241332e+00
  2.229346e+01    1.221103e+00
  2.230934e+01    1.177205e+00
  2.232521e+01    1.159570e+00
  2.234109e+01    1.124250e+00
  2.235696e+01    1.108071e+00
  2.237284e+01    1.117190e+00
  2.238872e+01    1.068969e+00
  2.240459e+01    1.055068e+00
  2.242047e+01    1.071550e+00
  2.243634e+01    1.077718e+00
  2.245222e+01    1.043017e+00
  2.246809e+01    1.023996e+00
  2.248397e+01    1.019174e+00
  2.249984e+01    1.034188e+00
  2.251572e+01    1.026569e+00
  2.253160e+01    9.983200e-01
  2.254747e+01    1.006452e+00
  2.256335e+01    1.004517e+00
  2.257922e+01    9.866385e-01
  2.259510e+01    9.935930e-01
  2.261097e+01    1.008709e+00
  2.262685e+01    9.623241e-01
  2.264272e+01    9.724454e-01
  2.265860e+01    9.823147e-01
  2.267448e+01    9.642536e-01
  2.269035e+01    9.592313e-01
  2.270623e+01    9.533916e-01
  2.272210e+01    9.439037e-01
  2.273798e+01    9.509097e-01
  2.275385e+01    9.424948e-01
  2.276973e+01    9.230619e-01
  2.278560e+01    9.133904e-01
  2.280148e+01    9.187433e-01
  2.281736e+01    9.119713e-01
  2.283323e+01    9.170711e-01
  2.284911e+01    9.153506e-01
  2.286498e+01    9.362554e-01
  2.288086e+01    9.018338e-01
  2.289673e+01    9.068634e-01
  2.291261e+01    8.882304e-01
  2.292848e+01    9.127434e-01
  2.294436e+01    9.154879e-01
  2.296024e+01    9.023796e-01
  2.297611e+01    9.051144e-01
  2.299199e+01    8.821051e-01
  2.300786e+01    9.010049e-01
  2.302374e+01    9.094285e-01
  2.303961e+01    8.864677e-01
  2.305549e+01    8.980293e-01
  2.307137e+01    8.862641e-01
  2.308724e+01    8.755174e-01
  2.310312e+01    8.671817e-01
  2.311899e+01    8.825999e-01
  2.313487e+01    8.812246e-01
  2.315074e+01    8.801311e-01
  2.316662e+01    8.746514e-01
  2.318249e+01    8.790821e-01
  2.319837e+01    8.861213e-01
  2.321425e+01    8.806852e-01
  2.323012e+01    8.789113e-01
  2.324600e+01    8.659877e-01
  2.326187e+01    8.459790e-01
  2.327775e+01    8.689508e-01
  2.329362e+01    8.696824e-01
  2.330950e+01    8.417614e-01
  2.332537e+01    8.350877e-01
  2.334125e+01    8.375207e-01
  2.335713e+01    8.607949e-01
  2.337300e+01    8.543867e-01
  2.338888e+01    8.401988e-01
  2.340475e+01    8.411003e-01
  2.342063e+01    8.503177e-01
  2.343650e+01    8.523139e-01
  2.345238e+01    8.484595e-01
  2.346825e+01    8.363804e-01
  2.348413e+01    8.343858e-01
  2.350001e+01    8.386512e-01
  2.351588e+01    8.345708e-01
  2.353176e+01    8.488573e-01
  2.354763e+01    8.577579e-01
  2.356351e+01    8.326382e-01
  2.357938e+01    8.361174e-01
  2.359526e+01    8.295675e-01
  2.361113e+01    8.243101e-01
  2.362701e+01    8.425303e-01
  2.364289e+01    8.421197e-01
  2.365876e+01    8.479423e-01
  2.367464e+01    8.269834e-01
  2.369051e+01    8.352410e-01
  2.370639e+01    8.096204e-01
  2.372226e+01    8.187415e-01
  2.373814e+01    8.229731e-01
  2.375401e+01    8.160633e-01
  2.376989e+01    7.981080e-01
  2.378577e+01    7.856799e-01
  2.380164e+01    7.891101e-01
  2.381752e+01    8.013745e-01
  2.383339e+01    8.190642e-01
  2.384927e+01    7.913216e-01
  2.386514e+01    8.054537e-01
  2.388102e+01    8.058936e-01
  2.389689e+01    7.820249e-01
  2.391277e+01    7.810137e-01
  2.392865e+01    7.742410e-01
  2.394452e+01    7.712219e-01
  2.396040e+01    7.911710e-01
  2.397627e+01    7.855445e-01
  2.399215e+01    8.023825e-01
  2.400802e+01    8.015844e-01
  2.402390e+01    8.005304e-01
  2.403978e+01    7.921169e-01
  2.405565e+01    7.970846e-01
  2.407153e+01    8.012719e-01
  2.408740e+01    8.011032e-01
  2.410328e+01    7.983382e-01
  2.411915e+01    7.860010e-01
  2.413503e+01    7.859986e-01
  2.415090e+01    7.731586e-01
  2.416678e+01    7.713927e-01
  2.418266e+01    7.704597e-01
  2.419853e+01    7.664605e-01
  2.421441e+01    7.742488e-01
  2.423028e+01    7.639733e-01
  2.424616e+01    7.544842e-01
  2.426203e+01    7.759290e-01
  2.427791e+01    7.773175e-01
  2.429378e+01    7.906908e-01
  2.430966e+01    8.117011e-01
  2.432554e+01    7.962030e-01
  2.434141e+01    7.879643e-01
  2.435729e+01    8.005784e-01
  2.437316e+01    7.981705e-01
  2.438904e+01    7.851101e-01
  2.440491e+01    7.829492e-01
  2.442079e+01    7.903261e-01
  2.443666e+01    7.731827e-01
  2.445254e+01    7.918560e-01
  2.446842e+01    7.978763e-01
  2.448429e+01    7.951403e-01
  2.450017e+01    7.793155e-01
  2.451604e+01    7.723798e-01
  2.453192e+01    7.848892e-01
  2.454779e+01    7.668633e-01
  2.456367e+01    7.939913e-01
  2.457954e+01    7.936069e-01
  2.459542e+01    7.926514e-01
  2.461130e+01    7.963416e-01
  2.462717e+01    7.933593e-01
  2.464305e+01    7.898093e-01
  2.465892e+01    8.101858e-01
  2.467480e+01    8.104708e-01
  2.469067e+01    7.891361e-01
  2.470655e+01    7.896157e-01
  2.472242e+01    7.942225e-01
  2.473830e+01    7.916725e-01
  2.475418e+01    7.797487e-01
  2.477005e+01    7.823979e-01
  2.478593e+01    7.970038e-01
  2.480180e+01    7.893293e-01
  2.481768e+01    7.772325e-01
  2.483355e+01    7.776968e-01
  2.484943e+01    8.085582e-01
  2.486530e+01    8.180509e-01
  2.488118e+01    8.107967e-01
  2.489706e+01    8.005456e-01
  2.491293e+01    7.951707e-01
  2.492881e+01    7.882874e-01
  2.494468e+01    7.935565e-01
  2.496056e+01    8.017529e-01
  2.497643e+01    7.825705e-01
  2.499231e+01    7.851157e-01
  2.500819e+01    8.060159e-01
  2.502406e+01    8.008828e-01
  2.503994e+01    8.057013e-01
  2.505581e+01    8.150960e-01
  2.507169e+01    8.247305e-01
  2.508756e+01    8.308852e-01
  2.510344e+01    8.189174e-01
  2.511931e+01    8.118970e-01
  2.513519e+01    8.047429e-01
  2.515107e+01    7.888128e-01
  2.516694e+01    8.303614e-01
  2.518282e+01    8.433198e-01
  2.519869e+01    8.461389e-01
  2.521457e+01    8.416976e-01
  2.523044e+01    8.514407e-01
  2.524632e+01    8.487281e-01
  2.526219e+01    8.527423e-01
  2.527807e+01    8.501344e-01
  2.529395e+01    8.490907e-01
  2.530982e+01    8.552102e-01
  2.532570e+01    8.713730e-01
  2.534157e+01    8.658639e-01
  2.535745e+01    8.657601e-01
  2.537332e+01    8.645075e-01
  2.538920e+01    8.852173e-01
  2.540507e+01    9.104394e-01
  2.542095e+01    9.280599e-01
  2.543683e+01    9.530077e-01
  2.545270e+01    9.501411e-01
  2.546858e+01    9.319851e-01
  2.548445e+01    9.408326e-01
  2.550033e+01    9.798840e-01
  2.551620e+01    9.880300e-01
  2.553208e+01    9.880363e-01
  2.554795e+01    1.015851e+00
  2.556383e+01    1.044770e+00
  2.557971e+01    1.074826e+00
  2.559558e+01    1.107808e+00
  2.561146e+01    1.124302e+00
  2.562733e+01    1.151883e+00
  2.564321e+01    1.201847e+00
  2.565908e+01    1.247583e+00
  2.567496e+01    1.310367e+00
  2.569083e+01    1.387070e+00
  2.570671e+01    1.499919e+00
  2.572259e+01    1.621578e+00
  2.573846e+01    1.748347e+00
  2.575434e+01    1.892892e+00
  2.577021e+01    2.062253e+00
  2.578609e+01    2.298588e+00
  2.580196e+01    2.609933e+00
  2.581784e+01    2.948830e+00
  2.583371e+01    3.363637e+00
  2.584959e+01    3.848466e+00
  2.586547e+01    4.412026e+00
  2.588134e+01    5.013974e+00
  2.589722e+01    5.669501e+00
  2.591309e+01    6.295624e+00
  2.592897e+01    6.814832e+00
  2.594484e+01    7.256447e+00
  2.596072e+01    7.528598e+00
  2.597660e+01    7.497801e+00
  2.599247e+01    7.204141e+00
  2.600835e+01    6.684607e+00
  2.602422e+01    5.918870e+00
  2.604010e+01    5.121087e+00
  2.605597e+01    4.385388e+00
  2.607185e+01    3.773780e+00
  2.608772e+01    3.227437e+00
  2.610360e+01    2.819585e+00
  2.611948e+01    2.500315e+00
  2.613535e+01    2.216610e+00
  2.615123e+01    2.019711e+00
  2.616710e+01    1.823966e+00
  2.618298e+01    1.670209e+00
  2.619885e+01    1.543369e+00
  2.621473e+01    1.442601e+00
  2.623060e+01    1.385002e+00
  2.624648e+01    1.306107e+00
  2.626236e+01    1.234608e+00
  2.627823e+01    1.178848e+00
  2.629411e+01    1.156539e+00
  2.630998e+01    1.127200e+00
  2.632586e+01    1.108041e+00
  2.634173e+01    1.065015e+00
  2.635761e+01    1.028156e+00
  2.637348e+01    1.005585e+00
  2.638936e+01    9.823263e-01
  2.640524e+01    9.638144e-01
  2.642111e+01    9.653966e-01
  2.643699e+01    9.439825e-01
  2.645286e+01    9.230804e-01
  2.646874e+01    9.543403e-01
  2.648461e+01    9.611056e-01
  2.650049e+01    9.492413e-01
  2.651636e+01    9.333525e-01
  2.653224e+01    9.021377e-01
  2.654812e+01    9.206334e-01
  2.656399e+01    9.232781e-01
  2.657987e+01    8.999965e-01
  2.659574e+01    8.778332e-01
  2.661162e+01    8.837582e-01
  2.662749e+01    8.847179e-01
  2.664337e+01    8.662260e-01
  2.665924e+01    8.943240e-01
  2.667512e+01    8.795086e-01
  2.669100e+01    8.966754e-01
  2.670687e+01    9.003792e-01
  2.672275e+01    8.916430e-01
  2.673862e+01    8.796904e-01
  2.675450e+01    8.798559e-01
  2.677037e+01    8.825781e-01
  2.678625e+01    9.038312e-01
  2.680212e+01    9.170173e-01
  2.681800e+01    8.905711e-01
  2.683388e+01    8.829808e-01
  2.684975e+01    8.719393e-01
  2.686563e+01    8.929483e-01
  2.688150e+01    9.028939e-01
  2.689738e+01    9.316010e-01
  2.691325e+01    9.082760e-01
  2.692913e+01    9.251000e-01
  2.694501e+01    9.417171e-01
  2.696088e+01    9.382230e-01
  2.697676e+01    9.750941e-01
  2.699263e+01    1.011158e+00
  2.700851e+01    1.032424e+00
  2.702438e+01    1.057897e+00
  2.704026e+01    1.098348e+00
  2.705613e+01    1.140095e+00
  2.707201e+01    1.193415e+00
  2.708789e+01    1.293380e+00
  2.710376e+01    1.404435e+00
  2.711964e+01    1.512359e+00
  2.713551e+01    1.615892e+00
  2.715139e+01    1.745359e+00
  2.716726e+01    1.893420e+00
  2.718314e+01    2.005558e+00
  2.719901e+01    2.152994e+00
  2.721489e+01    2.230983e+00
  2.723077e+01    2.253526e+00
  2.724664e+01    2.151729e+00
  2.726252e+01    2.074509e+00
  2.727839e+01    1.938884e+00
  2.729427e+01    1.787793e+00
  2.731014e+01    1.614005e+00
  2.732602e+01    1.486039e+00
  2.734189e+01    1.352303e+00
  2.735777e+01    1.275480e+00
  2.737365e+01    1.216124e+00
  2.738952e+01    1.151247e+00
  2.740540e+01    1.089361e+00
  2.742127e+01    1.047697e+00
  2.743715e+01    1.003075e+00
  2.745302e+01    9.732469e-01
  2.746890e+01    9.609134e-01
  2.748477e+01    9.207385e-01
  2.750065e+01    9.159690e-01
  2.751653e+01    8.874657e-01
  2.753240e+01    8.664451e-01
  2.754828e+01    8.715348e-01
  2.756415e+01    8.746400e-01
  2.758003e+01    8.399293e-01
  2.759590e+01    8.544077e-01
  2.761178e+01    8.615630e-01
  2.762765e+01    8.540818e-01
  2.764353e+01    8.173122e-01
  2.765941e+01    8.093773e-01
  2.767528e+01    8.277016e-01
  2.769116e+01    8.413691e-01
  2.770703e+01    8.331757e-01
  2.772291e+01    8.191817e-01
  2.773878e+01    8.182196e-01
  2.775466e+01    8.259544e-01
  2.777054e+01    8.436264e-01
  2.778641e+01    8.142775e-01
  2.780229e+01    7.892806e-01
  2.781816e+01    8.009183e-01
  2.783404e+01    8.141760e-01
  2.784991e+01    7.993118e-01
  2.786579e+01    7.958940e-01
  2.788166e+01    7.994913e-01
  2.789754e+01    7.990668e-01
  2.791342e+01    7.794361e-01
  2.792929e+01    7.774940e-01
  2.794517e+01    7.761347e-01
  2.796104e+01    7.813072e-01
  2.797692e+01    7.920687e-01
  2.799279e+01    7.937405e-01
  2.800867e+01    7.659255e-01
  2.802454e+01    7.880573e-01
  2.804042e+01    7.854684e-01
  2.805630e+01    7.887892e-01
  2.807217e+01    7.797977e-01
  2.808805e+01    7.845643e-01
  2.810392e+01    8.042001e-01
  2.811980e+01    7.665666e-01
  2.813567e+01    7.695940e-01
  2.815155e+01    7.930524e-01
  2.816742e+01    8.017007e-01
  2.818330e+01    7.672108e-01
  2.819918e+01    7.643727e-01
  2.821505e+01    7.628448e-01
  2.823093e+01    7.487286e-01
  2.824680e+01    7.751507e-01
  2.826268e+01    7.583563e-01
  2.827855e+01    7.445433e-01
  2.829443e+01    7.372143e-01
  2.831030e+01    7.492730e-01
  2.832618e+01    7.636363e-01
  2.834206e+01    7.679428e-01
  2.835793e+01    7.591962e-01
  2.837381e+01    7.533273e-01
  2.838968e+01    7.585487e-01
  2.840556e+01    7.495646e-01
  2.842143e+01    7.491143e-01
  2.843731e+01    7.327965e-01
  2.845318e+01    7.439374e-01
  2.846906e+01    7.534832e-01
  2.848494e+01    7.535409e-01
  2.850081e+01    7.365614e-01
  2.851669e+01    7.479352e-01
  2.853256e+01    7.827910e-01
  2.854844e+01    7.829257e-01
  2.856431e+01    7.443250e-01
  2.858019e+01    7.596714e-01
  2.859606e+01    7.815076e-01
  2.861194e+01    7.511272e-01
  2.862782e+01    7.556556e-01
  2.864369e+01    7.389806e-01
  2.865957e+01    7.485432e-01
  2.867544e+01    7.417498e-01
  2.869132e+01    7.536740e-01
  2.870719e+01    7.683306e-01
  2.872307e+01    7.645985e-01
  2.873895e+01    7.434150e-01
  2.875482e+01    7.343194e-01
  2.877070e+01    7.543399e-01
  2.878657e+01    7.569969e-01
  2.880245e+01    7.435683e-01
  2.881832e+01    7.476475e-01
  2.883420e+01    7.487734e-01
  2.885007e+01    7.551492e-01
  2.886595e+01    7.634436e-01
  2.888183e+01    7.368650e-01
  2.889770e+01    7.160846e-01
  2.891358e+01    7.219353e-01
  2.892945e+01    7.173324e-01
  2.894533e+01    7.229111e-01
  2.896120e+01    7.382824e-01
  2.897708e+01    7.248297e-01
  2.899295e+01    7.262334e-01
  2.900883e+01    7.231168e-01
  2.902471e+01    7.327355e-01
  2.904058e+01    7.531094e-01
  2.905646e+01    7.434497e-01
  2.907233e+01    7.235556e-01
  2.908821e+01    7.205456e-01
  2.910408e+01    7.292123e-01
  2.911996e+01    7.370425e-01
  2.913583e+01    7.408209e-01
  2.915171e+01    7.436269e-01
  2.916759e+01    7.373608e-01
  2.918346e+01    7.377115e-01
  2.919934e+01    7.413254e-01
  2.921521e+01    7.379909e-01
  2.923109e+01    7.347378e-01
  2.924696e+01    7.370343e-01
  2.926284e+01    7.362655e-01
  2.927871e+01    7.075471e-01
  2.929459e+01    7.126399e-01
  2.931047e+01    7.342780e-01
  2.932634e+01    7.393398e-01
  2.934222e+01    7.401982e-01
  2.935809e+01    7.416877e-01
  2.937397e+01    7.454587e-01
  2.938984e+01    7.384248e-01
  2.940572e+01    7.120875e-01
  2.942159e+01    7.075932e-01
  2.943747e+01    7.302260e-01
  2.945335e+01    7.245857e-01
  2.946922e+01    7.119083e-01
  2.948510e+01    7.334923e-01
  2.950097e+01    7.273944e-01
  2.951685e+01    7.281223e-01
  2.953272e+01    7.154132e-01
  2.954860e+01    7.084115e-01
  2.956447e+01    7.207921e-01
  2.958035e+01    7.256294e-01
  2.959623e+01    7.336648e-01
  2.961210e+01    7.458171e-01
  2.962798e+01    7.224193e-01
  2.964385e+01    7.293444e-01
  2.965973e+01    7.107542e-01
  2.967560e+01    7.174873e-01
  2.969148e+01    7.135866e-01
  2.970736e+01    7.083676e-01
  2.972323e+01    7.018764e-01
  2.973911e+01    7.001044e-01
  2.975498e+01    7.243699e-01
  2.977086e+01    7.233659e-01
  2.978673e+01    7.290075e-01
  2.980261e+01    7.263640e-01
  2.981848e+01    7.111770e-01
  2.983436e+01    7.299182e-01
  2.985024e+01    7.355621e-01
  2.986611e+01    7.190879e-01
  2.988199e+01    7.257040e-01
  2.989786e+01    7.112312e-01
  2.991374e+01    7.251805e-01
  2.992961e+01    7.255158e-01
  2.994549e+01    7.025269e-01
  2.996136e+01    7.097116e-01
  2.997724e+01    7.052585e-01
  2.999312e+01    7.211940e-01
  3.000899e+01    7.210153e-01
  3.002487e+01    7.234129e-01
  3.004074e+01    7.436212e-01
  3.005662e+01    7.324548e-01
  3.007249e+01    7.252706e-01
  3.008837e+01    7.038057e-01
  3.010424e+01    7.202219e-01
  3.012012e+01    7.308426e-01
  3.013600e+01    7.145367e-01
  3.015187e+01    7.245471e-01
  3.016775e+01    7.299860e-01
  3.018362e+01    7.143171e-01
  3.019950e+01    7.162878e-01
  3.021537e+01    7.123824e-01
  3.023125e+01    7.076283e-01
  3.024712e+01    6.848855e-01
  3.026300e+01    6.897197e-01
  3.027888e+01    7.105778e-01
  3.029475e+01    7.088646e-01
  3.031063e+01    6.949865e-01
  3.032650e+01    7.076733e-01
  3.034238e+01    7.051849e-01
  3.035825e+01    7.078599e-01
  3.037413e+01    7.068789e-01
  3.039000e+01    7.054411e-01
  3.040588e+01    6.924273e-01
  3.042176e+01    7.175735e-01
  3.043763e+01    7.125514e-01
  3.045351e+01    7.017313e-01
  3.046938e+01    7.080406e-01
  3.048526e+01    6.991026e-01
  3.050113e+01    6.995964e-01
  3.051701e+01    7.116776e-01
  3.053288e+01    7.029192e-01
  3.054876e+01    7.064695e-01
  3.056464e+01    7.300516e-01
  3.058051e+01    7.237979e-01
  3.059639e+01    7.270133e-01
  3.061226e+01    7.188705e-01
  3.062814e+01    7.155777e-01
  3.064401e+01    7.117434e-01
  3.065989e+01    6.964622e-01
  3.067577e+01    6.855842e-01
  3.069164e+01    6.891340e-01
  3.070752e+01    6.899671e-01
  3.072339e+01    7.039900e-01
  3.073927e+01    6.975558e-01
  3.075514e+01    7.094246e-01
  3.077102e+01    7.087253e-01
  3.078689e+01    7.133487e-01
  3.080277e+01    6.866889e-01
  3.081865e+01    6.971129e-01
  3.083452e+01    7.091330e-01
  3.085040e+01    7.120889e-01
  3.086627e+01    7.111331e-01
  3.088215e+01    7.031922e-01
  3.089802e+01    7.172840e-01
  3.091390e+01    7.038833e-01
  3.092977e+01    7.064136e-01
  3.094565e+01    7.095152e-01
  3.096153e+01    7.074336e-01
  3.097740e+01    7.107424e-01
  3.099328e+01    7.098675e-01
  3.100915e+01    7.104118e-01
  3.102503e+01    7.202784e-01
  3.104090e+01    7.039297e-01
  3.105678e+01    6.995757e-01
  3.107265e+01    7.041596e-01
  3.108853e+01    7.164643e-01
  3.110441e+01    7.142374e-01
  3.112028e+01    6.944621e-01
  3.113616e+01    6.995161e-01
  3.115203e+01    7.107236e-01
  3.116791e+01    7.168055e-01
  3.118378e+01    7.252544e-01
  3.119966e+01    7.207485e-01
  3.121553e+01    7.042863e-01
  3.123141e+01    7.391220e-01
  3.124729e+01    7.244095e-01
  3.126316e+01    7.279222e-01
  3.127904e+01    7.205045e-01
  3.129491e+01    7.348567e-01
  3.131079e+01    7.482500e-01
  3.132666e+01    7.260442e-01
  3.134254e+01    7.234698e-01
  3.135841e+01    7.330505e-01
  3.137429e+01    7.278962e-01
  3.139017e+01    7.390072e-01
  3.140604e+01    7.572740e-01
  3.142192e+01    7.367463e-01
  3.143779e+01    7.272075e-01
  3.145367e+01    7.479750e-01
  3.146954e+01    7.639140e-01
  3.148542e+01    7.554767e-01
  3.150129e+01    7.517560e-01
  3.151717e+01    7.584114e-01
  3.153305e+01    7.726734e-01
  3.154892e+01    7.722757e-01
  3.156480e+01    7.707270e-01
  3.158067e+01    7.909746e-01
  3.159655e+01    7.921941e-01
  3.161242e+01    8.246927e-01
  3.162830e+01    8.205128e-01
  3.164418e+01    8.444251e-01
  3.166005e+01    8.682675e-01
  3.167593e+01    9.163057e-01
  3.169180e+01    9.440106e-01
  3.170768e+01    9.696530e-01
  3.172355e+01    9.934902e-01
  3.173943e+01    1.038432e+00
  3.175530e+01    1.108736e+00
  3.177118e+01    1.155978e+00
  3.178706e+01    1.251181e+00
  3.180293e+01    1.380753e+00
  3.181881e+01    1.512057e+00
  3.183468e+01    1.638498e+00
  3.185056e+01    1.798983e+00
  3.186643e+01    1.960496e+00
  3.188231e+01    2.053283e+00
  3.189818e+01    2.178962e+00
  3.191406e+01    2.217637e+00
  3.192994e+01    2.173249e+00
  3.194581e+01    2.105548e+00
  3.196169e+01    2.005674e+00
  3.197756e+01    1.846861e+00
  3.199344e+01    1.659202e+00
  3.200931e+01    1.524227e+00
  3.202519e+01    1.358619e+00
  3.204106e+01    1.250187e+00
  3.205694e+01    1.180470e+00
  3.207282e+01    1.104421e+00
  3.208869e+01    1.030348e+00
  3.210457e+01    9.674432e-01
  3.212044e+01    9.302057e-01
  3.213632e+01    9.045293e-01
  3.215219e+01    8.904689e-01
  3.216807e+01    8.574771e-01
  3.218394e+01    8.311610e-01
  3.219982e+01    8.131772e-01
  3.221570e+01    8.082353e-01
  3.223157e+01    7.844878e-01
  3.224745e+01    7.612401e-01
  3.226332e+01    7.687097e-01
  3.227920e+01    7.727788e-01
  3.229507e+01    7.886311e-01
  3.231095e+01    7.669072e-01
  3.232682e+01    7.400218e-01
  3.234270e+01    7.449056e-01
  3.235858e+01    7.299908e-01
  3.237445e+01    7.103344e-01
  3.239033e+01    7.400279e-01
  3.240620e+01    7.229611e-01
  3.242208e+01    7.300083e-01
  3.243795e+01    7.260049e-01
  3.245383e+01    7.477640e-01
  3.246970e+01    7.312960e-01
  3.248558e+01    7.040388e-01
  3.250146e+01    7.049117e-01
  3.251733e+01    7.023876e-01
  3.253321e+01    7.153937e-01
  3.254908e+01    7.322695e-01
