# == pyFAI calibration ==
# Distance Sample to Detector: 0.3999999939076516 m
# PONI: 9.750e-02, 1.135e-01 m
# Rotations: -0.000175 0.000000 -0.000000 rad
# 
# == Fit2d calibration ==
# Distance Sample-beamCenter: 400.000 mm
# Center: x=1514.000, y=1300.000 pix
# Tilt: 0.010 deg  TiltPlanRot: 0.010 deg
# 
# Detector Detector	 Spline= None	 PixelSize= 7.500e-05, 7.500e-05 m
#    Detector has a mask: False 
#    Detector has a dark current: False 
#    detector has a flat field: False 
# 
# Wavelength: 6.888e-11 m
# Mask applied: user provided
# Dark current applied: False
# Flat field applied: False
# Polarization factor: 0.99
# Normalization factor: 1.0
# --> /home/myspot/data/2024_07_Rosario/Ru-CGO-ex/2024-07-27_002_Ru-CGO-ex_Activtation_ramp_000002_data_000106.dat
#       q_nm^-1             I 
  2.003187e-02    0.000000e+00
  3.590745e-02    7.160906e-02
  5.178302e-02    4.981178e-02
  6.765859e-02    3.249338e-02
  8.353417e-02    3.919263e-02
  9.940974e-02    9.867697e-03
  1.152853e-01    7.669635e-02
  1.311609e-01    5.601354e-02
  1.470365e-01    3.661056e-02
  1.629120e-01    6.925144e-04
  1.787876e-01    8.204342e-02
  1.946632e-01    1.030991e-01
  2.105388e-01    8.187189e-02
  2.264143e-01    6.694233e-02
  2.422899e-01    2.817507e-02
  2.581655e-01    3.831580e-02
  2.740411e-01    4.538176e-02
  2.899166e-01    3.432694e-02
  3.057922e-01    5.434052e-02
  3.216678e-01    3.896410e-02
  3.375433e-01    1.687616e-02
  3.534189e-01    2.897780e-02
  3.692945e-01    7.086626e-02
  3.851701e-01    2.004277e-02
  4.010456e-01    1.793587e-02
  4.169212e-01    2.535806e-02
  4.327968e-01    3.783984e-02
  4.486724e-01    6.150294e-02
  4.645479e-01    3.806237e-02
  4.804235e-01    4.165567e-02
  4.962991e-01    3.496362e-02
  5.121747e-01    2.938672e-02
  5.280502e-01    1.459284e-02
  5.439258e-01    1.773175e-02
  5.598014e-01    6.293266e-02
  5.756770e-01    5.037984e-02
  5.915525e-01    2.862200e-02
  6.074281e-01    3.753438e-02
  6.233037e-01    3.577547e-02
  6.391793e-01    3.114690e-02
  6.550548e-01    5.404619e-02
  6.709304e-01    4.280202e-02
  6.868060e-01    4.716739e-02
  7.026815e-01    2.588162e-02
  7.185571e-01    1.476107e-02
  7.344327e-01    3.802032e-02
  7.503083e-01    6.157482e-02
  7.661838e-01    8.875436e-02
  7.820594e-01    1.394220e-01
  7.979350e-01    1.663387e-01
  8.138106e-01    1.966276e-01
  8.296861e-01    2.586145e-01
  8.455617e-01    2.786643e-01
  8.614373e-01    3.020875e-01
  8.773129e-01    3.716371e-01
  8.931884e-01    4.553026e-01
  9.090640e-01    5.182365e-01
  9.249396e-01    5.564985e-01
  9.408152e-01    7.235876e-01
  9.566907e-01    8.122838e-01
  9.725663e-01    8.198554e-01
  9.884419e-01    9.200912e-01
  1.004317e+00    1.024698e+00
  1.020193e+00    1.085015e+00
  1.036069e+00    1.164822e+00
  1.051944e+00    1.135863e+00
  1.067820e+00    1.212991e+00
  1.083695e+00    1.371640e+00
  1.099571e+00    1.390891e+00
  1.115446e+00    1.394572e+00
  1.131322e+00    1.437674e+00
  1.147198e+00    1.463507e+00
  1.163073e+00    1.538379e+00
  1.178949e+00    1.574428e+00
  1.194824e+00    1.668881e+00
  1.210700e+00    1.879474e+00
  1.226575e+00    2.061869e+00
  1.242451e+00    2.135004e+00
  1.258327e+00    2.256086e+00
  1.274202e+00    2.358839e+00
  1.290078e+00    2.447709e+00
  1.305953e+00    2.579807e+00
  1.321829e+00    2.488194e+00
  1.337705e+00    2.442312e+00
  1.353580e+00    2.584264e+00
  1.369456e+00    2.457678e+00
  1.385331e+00    2.372257e+00
  1.401207e+00    2.550792e+00
  1.417082e+00    2.569948e+00
  1.432958e+00    2.549405e+00
  1.448834e+00    2.778310e+00
  1.464709e+00    2.886093e+00
  1.480585e+00    2.680072e+00
  1.496460e+00    2.649896e+00
  1.512336e+00    2.932756e+00
  1.528211e+00    3.005774e+00
  1.544087e+00    3.052340e+00
  1.559963e+00    2.996421e+00
  1.575838e+00    2.996579e+00
  1.591714e+00    2.910519e+00
  1.607589e+00    2.899020e+00
  1.623465e+00    2.926589e+00
  1.639340e+00    2.949969e+00
  1.655216e+00    2.915813e+00
  1.671092e+00    2.855717e+00
  1.686967e+00    2.741550e+00
  1.702843e+00    2.827305e+00
  1.718718e+00    2.853953e+00
  1.734594e+00    2.789165e+00
  1.750469e+00    2.855938e+00
  1.766345e+00    2.811866e+00
  1.782221e+00    2.779622e+00
  1.798096e+00    2.758602e+00
  1.813972e+00    2.811120e+00
  1.829847e+00    2.850396e+00
  1.845723e+00    2.851295e+00
  1.861598e+00    2.775119e+00
  1.877474e+00    2.694187e+00
  1.893350e+00    2.702474e+00
  1.909225e+00    2.694997e+00
  1.925101e+00    2.724905e+00
  1.940976e+00    2.743597e+00
  1.956852e+00    2.656219e+00
  1.972727e+00    2.763848e+00
  1.988603e+00    2.748376e+00
  2.004479e+00    2.780065e+00
  2.020354e+00    2.841723e+00
  2.036230e+00    2.740446e+00
  2.052105e+00    2.817034e+00
  2.067981e+00    2.825461e+00
  2.083856e+00    2.777133e+00
  2.099732e+00    2.736089e+00
  2.115608e+00    2.637586e+00
  2.131483e+00    2.720534e+00
  2.147359e+00    2.774977e+00
  2.163234e+00    2.847548e+00
  2.179110e+00    2.761083e+00
  2.194985e+00    2.658786e+00
  2.210861e+00    2.687733e+00
  2.226737e+00    2.581097e+00
  2.242612e+00    2.669975e+00
  2.258488e+00    2.804656e+00
  2.274363e+00    2.826705e+00
  2.290239e+00    2.695064e+00
  2.306115e+00    2.704040e+00
  2.321990e+00    2.701917e+00
  2.337866e+00    2.657927e+00
  2.353741e+00    2.687615e+00
  2.369617e+00    2.728215e+00
  2.385492e+00    2.677001e+00
  2.401368e+00    2.753961e+00
  2.417244e+00    2.759023e+00
  2.433119e+00    2.798354e+00
  2.448995e+00    2.818169e+00
  2.464870e+00    2.805737e+00
  2.480746e+00    2.659984e+00
  2.496621e+00    2.706836e+00
  2.512497e+00    2.759652e+00
  2.528373e+00    2.730750e+00
  2.544248e+00    2.837316e+00
  2.560124e+00    2.791756e+00
  2.575999e+00    2.720319e+00
  2.591875e+00    2.733048e+00
  2.607750e+00    2.773129e+00
  2.623626e+00    2.711740e+00
  2.639502e+00    2.676301e+00
  2.655377e+00    2.693622e+00
  2.671253e+00    2.742741e+00
  2.687128e+00    2.788362e+00
  2.703004e+00    2.913944e+00
  2.718879e+00    2.838357e+00
  2.734755e+00    2.794624e+00
  2.750631e+00    2.806752e+00
  2.766506e+00    2.774414e+00
  2.782382e+00    2.724487e+00
  2.798257e+00    2.807475e+00
  2.814133e+00    2.785393e+00
  2.830008e+00    2.815871e+00
  2.845884e+00    2.728663e+00
  2.861760e+00    2.687696e+00
  2.877635e+00    2.799156e+00
  2.893511e+00    2.874284e+00
  2.909386e+00    2.756535e+00
  2.925262e+00    2.773597e+00
  2.941137e+00    2.798767e+00
  2.957013e+00    2.810390e+00
  2.972889e+00    2.867746e+00
  2.988764e+00    2.857339e+00
  3.004640e+00    2.828447e+00
  3.020515e+00    2.801408e+00
  3.036391e+00    2.808859e+00
  3.052266e+00    2.860660e+00
  3.068142e+00    2.789967e+00
  3.084018e+00    2.808971e+00
  3.099893e+00    2.844680e+00
  3.115769e+00    2.924539e+00
  3.131644e+00    2.855960e+00
  3.147520e+00    2.861648e+00
  3.163395e+00    2.826615e+00
  3.179271e+00    2.816383e+00
  3.195147e+00    2.884277e+00
  3.211022e+00    2.916724e+00
  3.226898e+00    2.866548e+00
  3.242773e+00    2.928397e+00
  3.258649e+00    2.902315e+00
  3.274525e+00    2.917960e+00
  3.290400e+00    2.886358e+00
  3.306276e+00    2.859776e+00
  3.322151e+00    2.842943e+00
  3.338027e+00    2.783263e+00
  3.353902e+00    2.828295e+00
  3.369778e+00    2.822552e+00
  3.385654e+00    2.877813e+00
  3.401529e+00    2.902564e+00
  3.417405e+00    2.869388e+00
  3.433280e+00    2.940664e+00
  3.449156e+00    2.891879e+00
  3.465031e+00    2.895931e+00
  3.480907e+00    2.903743e+00
  3.496783e+00    2.914410e+00
  3.512658e+00    2.909953e+00
  3.528534e+00    2.894017e+00
  3.544409e+00    2.845827e+00
  3.560285e+00    2.956050e+00
  3.576160e+00    2.938048e+00
  3.592036e+00    2.912731e+00
  3.607912e+00    2.913910e+00
  3.623787e+00    2.965805e+00
  3.639663e+00    2.957850e+00
  3.655538e+00    2.979989e+00
  3.671414e+00    2.946118e+00
  3.687289e+00    2.881024e+00
  3.703165e+00    2.950620e+00
  3.719041e+00    2.856128e+00
  3.734916e+00    2.843076e+00
  3.750792e+00    2.914543e+00
  3.766667e+00    2.982566e+00
  3.782543e+00    3.021405e+00
  3.798418e+00    2.979947e+00
  3.814294e+00    2.992598e+00
  3.830170e+00    2.923112e+00
  3.846045e+00    2.947098e+00
  3.861921e+00    2.931007e+00
  3.877796e+00    2.962321e+00
  3.893672e+00    2.926961e+00
  3.909547e+00    2.913064e+00
  3.925423e+00    2.977484e+00
  3.941299e+00    2.977283e+00
  3.957174e+00    2.990326e+00
  3.973050e+00    3.060147e+00
  3.988925e+00    2.990161e+00
  4.004801e+00    3.020769e+00
  4.020676e+00    2.970157e+00
  4.036552e+00    2.897761e+00
  4.052428e+00    2.918827e+00
  4.068303e+00    3.011116e+00
  4.084179e+00    2.999356e+00
  4.100054e+00    2.933617e+00
  4.115930e+00    2.969118e+00
  4.131806e+00    2.909281e+00
  4.147681e+00    2.958484e+00
  4.163557e+00    2.985803e+00
  4.179432e+00    3.028467e+00
  4.195308e+00    3.009869e+00
  4.211183e+00    3.058640e+00
  4.227059e+00    3.039259e+00
  4.242935e+00    2.962070e+00
  4.258810e+00    3.004885e+00
  4.274686e+00    3.027018e+00
  4.290561e+00    2.953644e+00
  4.306437e+00    2.939736e+00
  4.322312e+00    2.976123e+00
  4.338188e+00    3.030523e+00
  4.354064e+00    3.096656e+00
  4.369939e+00    2.936402e+00
  4.385815e+00    2.994220e+00
  4.401690e+00    3.028618e+00
  4.417566e+00    3.055751e+00
  4.433441e+00    2.994166e+00
  4.449317e+00    2.992686e+00
  4.465193e+00    3.009115e+00
  4.481068e+00    3.020982e+00
  4.496944e+00    3.019477e+00
  4.512819e+00    2.999243e+00
  4.528695e+00    2.974058e+00
  4.544570e+00    3.019942e+00
  4.560446e+00    3.017008e+00
  4.576322e+00    3.048982e+00
  4.592197e+00    3.030997e+00
  4.608073e+00    3.027939e+00
  4.623948e+00    2.985517e+00
  4.639824e+00    3.030320e+00
  4.655699e+00    3.019249e+00
  4.671575e+00    3.044710e+00
  4.687451e+00    3.003950e+00
  4.703326e+00    3.023843e+00
  4.719202e+00    3.095325e+00
  4.735077e+00    3.282887e+00
  4.750953e+00    3.104466e+00
  4.766828e+00    3.113162e+00
  4.782704e+00    3.113195e+00
  4.798580e+00    3.045966e+00
  4.814455e+00    2.992215e+00
  4.830331e+00    2.993037e+00
  4.846206e+00    2.988253e+00
  4.862082e+00    2.992873e+00
  4.877957e+00    3.106363e+00
  4.893833e+00    3.125262e+00
  4.909709e+00    3.079004e+00
  4.925584e+00    3.083022e+00
  4.941460e+00    3.093769e+00
  4.957335e+00    3.114081e+00
  4.973211e+00    3.077936e+00
  4.989086e+00    3.016970e+00
  5.004962e+00    3.036394e+00
  5.020838e+00    3.071743e+00
  5.036713e+00    3.053446e+00
  5.052589e+00    3.023695e+00
  5.068464e+00    3.110553e+00
  5.084340e+00    3.055349e+00
  5.100216e+00    3.049668e+00
  5.116091e+00    3.053856e+00
  5.131967e+00    3.085790e+00
  5.147842e+00    3.175589e+00
  5.163718e+00    3.216701e+00
  5.179593e+00    3.116207e+00
  5.195469e+00    3.053803e+00
  5.211345e+00    3.065531e+00
  5.227220e+00    3.024167e+00
  5.243096e+00    3.005587e+00
  5.258971e+00    3.047865e+00
  5.274847e+00    3.045886e+00
  5.290722e+00    3.040170e+00
  5.306598e+00    3.047337e+00
  5.322474e+00    3.109524e+00
  5.338349e+00    3.045007e+00
  5.354225e+00    2.967864e+00
  5.370100e+00    3.070166e+00
  5.385976e+00    3.074492e+00
  5.401851e+00    3.087577e+00
  5.417727e+00    3.025060e+00
  5.433603e+00    3.047191e+00
  5.449478e+00    3.077563e+00
  5.465354e+00    3.069958e+00
  5.481229e+00    3.068639e+00
  5.497105e+00    3.053939e+00
  5.512980e+00    3.051419e+00
  5.528856e+00    3.065219e+00
  5.544732e+00    3.048169e+00
  5.560607e+00    3.026751e+00
  5.576483e+00    3.043859e+00
  5.592358e+00    3.021973e+00
  5.608234e+00    3.020006e+00
  5.624109e+00    3.011975e+00
  5.639985e+00    3.009969e+00
  5.655861e+00    3.050246e+00
  5.671736e+00    3.038953e+00
  5.687612e+00    3.021032e+00
  5.703487e+00    3.058494e+00
  5.719363e+00    3.068245e+00
  5.735238e+00    3.068269e+00
  5.751114e+00    3.050231e+00
  5.766990e+00    3.031934e+00
  5.782865e+00    2.897010e+00
  5.798741e+00    2.904981e+00
  5.814616e+00    2.962038e+00
  5.830492e+00    2.969832e+00
  5.846367e+00    2.913816e+00
  5.862243e+00    2.956154e+00
  5.878119e+00    3.021817e+00
  5.893994e+00    2.886938e+00
  5.909870e+00    2.924492e+00
  5.925745e+00    2.967644e+00
  5.941621e+00    3.041351e+00
  5.957497e+00    2.964936e+00
  5.973372e+00    3.010448e+00
  5.989248e+00    3.034642e+00
  6.005123e+00    3.000859e+00
  6.020999e+00    3.025290e+00
  6.036874e+00    2.977664e+00
  6.052750e+00    2.917521e+00
  6.068626e+00    2.986471e+00
  6.084501e+00    3.005481e+00
  6.100377e+00    2.998086e+00
  6.116252e+00    3.043540e+00
  6.132128e+00    3.074794e+00
  6.148003e+00    3.053355e+00
  6.163879e+00    3.046847e+00
  6.179755e+00    3.068275e+00
  6.195630e+00    3.102793e+00
  6.211506e+00    3.047913e+00
  6.227381e+00    3.008520e+00
  6.243257e+00    3.054300e+00
  6.259132e+00    3.085847e+00
  6.275008e+00    2.975462e+00
  6.290884e+00    2.964836e+00
  6.306759e+00    2.960834e+00
  6.322635e+00    2.963452e+00
  6.338510e+00    2.936393e+00
  6.354386e+00    2.903916e+00
  6.370261e+00    3.015139e+00
  6.386137e+00    2.997582e+00
  6.402013e+00    2.921298e+00
  6.417888e+00    2.956393e+00
  6.433764e+00    2.952347e+00
  6.449639e+00    3.025340e+00
  6.465515e+00    3.010962e+00
  6.481390e+00    3.057501e+00
  6.497266e+00    3.014664e+00
  6.513142e+00    3.051263e+00
  6.529017e+00    3.047927e+00
  6.544893e+00    2.958707e+00
  6.560768e+00    2.924564e+00
  6.576644e+00    2.979740e+00
  6.592519e+00    2.992976e+00
  6.608395e+00    3.032335e+00
  6.624271e+00    3.049619e+00
  6.640146e+00    2.939826e+00
  6.656022e+00    2.966032e+00
  6.671897e+00    3.008531e+00
  6.687773e+00    2.972343e+00
  6.703648e+00    2.975697e+00
  6.719524e+00    3.018821e+00
  6.735400e+00    3.023333e+00
  6.751275e+00    2.969901e+00
  6.767151e+00    3.006891e+00
  6.783026e+00    3.021746e+00
  6.798902e+00    3.031089e+00
  6.814777e+00    3.073998e+00
  6.830653e+00    3.047102e+00
  6.846529e+00    2.931101e+00
  6.862404e+00    2.930937e+00
  6.878280e+00    2.939500e+00
  6.894155e+00    3.023987e+00
  6.910031e+00    3.008267e+00
  6.925907e+00    3.016604e+00
  6.941782e+00    2.950592e+00
  6.957658e+00    2.938623e+00
  6.973533e+00    2.932800e+00
  6.989409e+00    2.933800e+00
  7.005284e+00    2.962364e+00
  7.021160e+00    2.963406e+00
  7.037036e+00    2.947779e+00
  7.052911e+00    2.906493e+00
  7.068787e+00    2.916501e+00
  7.084662e+00    2.946348e+00
  7.100538e+00    2.919801e+00
  7.116413e+00    2.983590e+00
  7.132289e+00    3.026808e+00
  7.148165e+00    2.987939e+00
  7.164040e+00    2.980277e+00
  7.179916e+00    2.961018e+00
  7.195791e+00    2.944965e+00
  7.211667e+00    2.979686e+00
  7.227542e+00    2.924200e+00
  7.243418e+00    2.878345e+00
  7.259294e+00    2.900107e+00
  7.275169e+00    2.949363e+00
  7.291045e+00    2.957646e+00
  7.306920e+00    2.942238e+00
  7.322796e+00    2.884635e+00
  7.338671e+00    2.903457e+00
  7.354547e+00    2.948585e+00
  7.370423e+00    2.962667e+00
  7.386298e+00    2.975384e+00
  7.402174e+00    2.995108e+00
  7.418049e+00    2.949144e+00
  7.433925e+00    2.826337e+00
  7.449800e+00    2.901824e+00
  7.465676e+00    2.869262e+00
  7.481552e+00    2.928428e+00
  7.497427e+00    3.013129e+00
  7.513303e+00    2.960504e+00
  7.529178e+00    2.865114e+00
  7.545054e+00    2.880931e+00
  7.560929e+00    2.886203e+00
  7.576805e+00    2.876116e+00
  7.592681e+00    2.919863e+00
  7.608556e+00    2.893661e+00
  7.624432e+00    2.924171e+00
  7.640307e+00    2.894531e+00
  7.656183e+00    2.863207e+00
  7.672058e+00    2.916509e+00
  7.687934e+00    2.893157e+00
  7.703810e+00    2.887607e+00
  7.719685e+00    2.889324e+00
  7.735561e+00    2.896228e+00
  7.751436e+00    2.907202e+00
  7.767312e+00    2.864904e+00
  7.783187e+00    2.813950e+00
  7.799063e+00    2.787975e+00
  7.814939e+00    2.892471e+00
  7.830814e+00    2.941319e+00
  7.846690e+00    2.889460e+00
  7.862565e+00    2.894766e+00
  7.878441e+00    2.860504e+00
  7.894317e+00    2.823719e+00
  7.910192e+00    2.902891e+00
  7.926068e+00    2.870606e+00
  7.941943e+00    2.883284e+00
  7.957819e+00    2.876836e+00
  7.973694e+00    2.841383e+00
  7.989570e+00    2.829745e+00
  8.005446e+00    2.870474e+00
  8.021321e+00    2.894927e+00
  8.037197e+00    2.907253e+00
  8.053072e+00    2.876536e+00
  8.068948e+00    2.859256e+00
  8.084823e+00    2.873721e+00
  8.100699e+00    2.906563e+00
  8.116575e+00    2.943027e+00
  8.132450e+00    2.924606e+00
  8.148326e+00    2.980731e+00
  8.164201e+00    2.989067e+00
  8.180077e+00    2.967215e+00
  8.195952e+00    2.889049e+00
  8.211828e+00    2.921606e+00
  8.227704e+00    2.939878e+00
  8.243579e+00    2.885723e+00
  8.259455e+00    2.903021e+00
  8.275330e+00    2.888042e+00
  8.291206e+00    2.866752e+00
  8.307081e+00    2.884131e+00
  8.322957e+00    2.883883e+00
  8.338833e+00    2.826400e+00
  8.354708e+00    2.816239e+00
  8.370584e+00    2.831772e+00
  8.386459e+00    2.853946e+00
  8.402335e+00    2.841599e+00
  8.418210e+00    2.917182e+00
  8.434086e+00    2.894446e+00
  8.449962e+00    2.832570e+00
  8.465837e+00    2.796875e+00
  8.481713e+00    2.813816e+00
  8.497588e+00    2.809386e+00
  8.513464e+00    2.772655e+00
  8.529339e+00    2.825626e+00
  8.545215e+00    2.835451e+00
  8.561091e+00    2.845999e+00
  8.576966e+00    2.828151e+00
  8.592842e+00    2.817346e+00
  8.608717e+00    2.765354e+00
  8.624593e+00    2.824457e+00
  8.640468e+00    2.833269e+00
  8.656344e+00    2.786467e+00
  8.672220e+00    2.786507e+00
  8.688095e+00    2.830179e+00
  8.703971e+00    2.844026e+00
  8.719846e+00    2.809472e+00
  8.735722e+00    2.785757e+00
  8.751598e+00    2.818913e+00
  8.767473e+00    2.861875e+00
  8.783349e+00    2.882656e+00
  8.799224e+00    2.808285e+00
  8.815100e+00    2.766339e+00
  8.830975e+00    2.825120e+00
  8.846851e+00    2.790563e+00
  8.862727e+00    2.835487e+00
  8.878602e+00    2.737491e+00
  8.894478e+00    2.774985e+00
  8.910353e+00    2.791692e+00
  8.926229e+00    2.818736e+00
  8.942104e+00    2.802277e+00
  8.957980e+00    2.792181e+00
  8.973856e+00    2.795832e+00
  8.989731e+00    2.728033e+00
  9.005607e+00    2.747658e+00
  9.021482e+00    2.790942e+00
  9.037358e+00    2.784767e+00
  9.053233e+00    2.822558e+00
  9.069109e+00    2.768026e+00
  9.084985e+00    2.769507e+00
  9.100860e+00    2.818565e+00
  9.116736e+00    2.806134e+00
  9.132611e+00    2.747203e+00
  9.148487e+00    2.734125e+00
  9.164362e+00    2.709314e+00
  9.180238e+00    2.708102e+00
  9.196114e+00    2.781065e+00
  9.211989e+00    2.747666e+00
  9.227865e+00    2.710106e+00
  9.243740e+00    2.720867e+00
  9.259616e+00    2.788904e+00
  9.275491e+00    2.772253e+00
  9.291367e+00    2.719299e+00
  9.307243e+00    2.709456e+00
  9.323118e+00    2.701594e+00
  9.338994e+00    2.728233e+00
  9.354869e+00    2.722088e+00
  9.370745e+00    2.716484e+00
  9.386620e+00    2.703905e+00
  9.402496e+00    2.781708e+00
  9.418372e+00    2.770062e+00
  9.434247e+00    2.699265e+00
  9.450123e+00    2.702689e+00
  9.465998e+00    2.695379e+00
  9.481874e+00    2.716902e+00
  9.497749e+00    2.750239e+00
  9.513625e+00    2.730687e+00
  9.529501e+00    2.663372e+00
  9.545376e+00    2.683785e+00
  9.561252e+00    2.710286e+00
  9.577127e+00    2.706105e+00
  9.593003e+00    2.688667e+00
  9.608878e+00    2.655376e+00
  9.624754e+00    2.687044e+00
  9.640630e+00    2.742736e+00
  9.656505e+00    2.770041e+00
  9.672381e+00    2.778598e+00
  9.688256e+00    2.790072e+00
  9.704132e+00    2.733072e+00
  9.720008e+00    2.646517e+00
  9.735883e+00    2.654908e+00
  9.751759e+00    2.642853e+00
  9.767634e+00    2.650914e+00
  9.783510e+00    2.671156e+00
  9.799385e+00    2.687480e+00
  9.815261e+00    2.648823e+00
  9.831137e+00    2.682523e+00
  9.847012e+00    2.698716e+00
  9.862888e+00    2.697601e+00
  9.878763e+00    2.699187e+00
  9.894639e+00    2.659314e+00
  9.910514e+00    2.652797e+00
  9.926390e+00    2.653516e+00
  9.942266e+00    2.647736e+00
  9.958141e+00    2.613734e+00
  9.974017e+00    2.636271e+00
  9.989892e+00    2.604752e+00
  1.000577e+01    2.562323e+00
  1.002164e+01    2.649393e+00
  1.003752e+01    2.635555e+00
  1.005339e+01    2.612026e+00
  1.006927e+01    2.590080e+00
  1.008515e+01    2.612235e+00
  1.010102e+01    2.592657e+00
  1.011690e+01    2.550432e+00
  1.013277e+01    2.585956e+00
  1.014865e+01    2.590403e+00
  1.016452e+01    2.575090e+00
  1.018040e+01    2.579923e+00
  1.019627e+01    2.623468e+00
  1.021215e+01    2.650032e+00
  1.022803e+01    2.589325e+00
  1.024390e+01    2.565251e+00
  1.025978e+01    2.631639e+00
  1.027565e+01    2.583432e+00
  1.029153e+01    2.603654e+00
  1.030740e+01    2.584324e+00
  1.032328e+01    2.599801e+00
  1.033915e+01    2.554356e+00
  1.035503e+01    2.575348e+00
  1.037091e+01    2.541642e+00
  1.038678e+01    2.528257e+00
  1.040266e+01    2.572038e+00
  1.041853e+01    2.608169e+00
  1.043441e+01    2.592363e+00
  1.045028e+01    2.587915e+00
  1.046616e+01    2.568178e+00
  1.048204e+01    2.522460e+00
  1.049791e+01    2.513187e+00
  1.051379e+01    2.594084e+00
  1.052966e+01    2.534643e+00
  1.054554e+01    2.566351e+00
  1.056141e+01    2.598547e+00
  1.057729e+01    2.530428e+00
  1.059316e+01    2.542120e+00
  1.060904e+01    2.564604e+00
  1.062492e+01    2.541108e+00
  1.064079e+01    2.529141e+00
  1.065667e+01    2.531563e+00
  1.067254e+01    2.538439e+00
  1.068842e+01    2.529176e+00
  1.070429e+01    2.511378e+00
  1.072017e+01    2.517116e+00
  1.073604e+01    2.524354e+00
  1.075192e+01    2.555964e+00
  1.076780e+01    2.477201e+00
  1.078367e+01    2.514105e+00
  1.079955e+01    2.556020e+00
  1.081542e+01    2.510693e+00
  1.083130e+01    2.513423e+00
  1.084717e+01    2.475316e+00
  1.086305e+01    2.452495e+00
  1.087892e+01    2.469342e+00
  1.089480e+01    2.448206e+00
  1.091068e+01    2.444300e+00
  1.092655e+01    2.441622e+00
  1.094243e+01    2.479343e+00
  1.095830e+01    2.455395e+00
  1.097418e+01    2.483547e+00
  1.099005e+01    2.449023e+00
  1.100593e+01    2.451511e+00
  1.102180e+01    2.501574e+00
  1.103768e+01    2.443619e+00
  1.105356e+01    2.449499e+00
  1.106943e+01    2.479096e+00
  1.108531e+01    2.418515e+00
  1.110118e+01    2.455451e+00
  1.111706e+01    2.441156e+00
  1.113293e+01    2.464762e+00
  1.114881e+01    2.476182e+00
  1.116468e+01    2.419025e+00
  1.118056e+01    2.443017e+00
  1.119644e+01    2.431887e+00
  1.121231e+01    2.435389e+00
  1.122819e+01    2.459277e+00
  1.124406e+01    2.428926e+00
  1.125994e+01    2.411624e+00
  1.127581e+01    2.422364e+00
  1.129169e+01    2.445922e+00
  1.130756e+01    2.397746e+00
  1.132344e+01    2.372046e+00
  1.133932e+01    2.406688e+00
  1.135519e+01    2.381577e+00
  1.137107e+01    2.373447e+00
  1.138694e+01    2.375532e+00
  1.140282e+01    2.356018e+00
  1.141869e+01    2.369205e+00
  1.143457e+01    2.398183e+00
  1.145045e+01    2.379972e+00
  1.146632e+01    2.334520e+00
  1.148220e+01    2.348144e+00
  1.149807e+01    2.373325e+00
  1.151395e+01    2.385213e+00
  1.152982e+01    2.354452e+00
  1.154570e+01    2.352082e+00
  1.156157e+01    2.354720e+00
  1.157745e+01    2.399858e+00
  1.159333e+01    2.371272e+00
  1.160920e+01    2.366871e+00
  1.162508e+01    2.352388e+00
  1.164095e+01    2.340943e+00
  1.165683e+01    2.335291e+00
  1.167270e+01    2.328717e+00
  1.168858e+01    2.352056e+00
  1.170445e+01    2.344822e+00
  1.172033e+01    2.351694e+00
  1.173621e+01    2.318202e+00
  1.175208e+01    2.341157e+00
  1.176796e+01    2.307671e+00
  1.178383e+01    2.289459e+00
  1.179971e+01    2.317860e+00
  1.181558e+01    2.321569e+00
  1.183146e+01    2.320536e+00
  1.184733e+01    2.302653e+00
  1.186321e+01    2.365716e+00
  1.187909e+01    2.298751e+00
  1.189496e+01    2.302758e+00
  1.191084e+01    2.330434e+00
  1.192671e+01    2.349796e+00
  1.194259e+01    2.348956e+00
  1.195846e+01    2.338112e+00
  1.197434e+01    2.301815e+00
  1.199021e+01    2.287720e+00
  1.200609e+01    2.286487e+00
  1.202197e+01    2.270676e+00
  1.203784e+01    2.286412e+00
  1.205372e+01    2.263129e+00
  1.206959e+01    2.244630e+00
  1.208547e+01    2.312952e+00
  1.210134e+01    2.318503e+00
  1.211722e+01    2.300601e+00
  1.213309e+01    2.292667e+00
  1.214897e+01    2.284930e+00
  1.216485e+01    2.255995e+00
  1.218072e+01    2.283917e+00
  1.219660e+01    2.277962e+00
  1.221247e+01    2.264488e+00
  1.222835e+01    2.270902e+00
  1.224422e+01    2.308260e+00
  1.226010e+01    2.319206e+00
  1.227597e+01    2.241399e+00
  1.229185e+01    2.260906e+00
  1.230773e+01    2.308348e+00
  1.232360e+01    2.262397e+00
  1.233948e+01    2.343177e+00
  1.235535e+01    2.320539e+00
  1.237123e+01    2.295675e+00
  1.238710e+01    2.295431e+00
  1.240298e+01    2.287298e+00
  1.241886e+01    2.286107e+00
  1.243473e+01    2.307191e+00
  1.245061e+01    2.341369e+00
  1.246648e+01    2.316864e+00
  1.248236e+01    2.318654e+00
  1.249823e+01    2.357149e+00
  1.251411e+01    2.349147e+00
  1.252998e+01    2.337629e+00
  1.254586e+01    2.343142e+00
  1.256174e+01    2.332719e+00
  1.257761e+01    2.330779e+00
  1.259349e+01    2.359082e+00
  1.260936e+01    2.366397e+00
  1.262524e+01    2.411516e+00
  1.264111e+01    2.415964e+00
  1.265699e+01    2.399033e+00
  1.267286e+01    2.395087e+00
  1.268874e+01    2.451490e+00
  1.270462e+01    2.505490e+00
  1.272049e+01    2.498054e+00
  1.273637e+01    2.489667e+00
  1.275224e+01    2.527383e+00
  1.276812e+01    2.554905e+00
  1.278399e+01    2.552170e+00
  1.279987e+01    2.582571e+00
  1.281574e+01    2.637868e+00
  1.283162e+01    2.707055e+00
  1.284750e+01    2.793839e+00
  1.286337e+01    2.827736e+00
  1.287925e+01    2.964663e+00
  1.289512e+01    3.140349e+00
  1.291100e+01    3.248231e+00
  1.292687e+01    3.481062e+00
  1.294275e+01    3.675534e+00
  1.295862e+01    3.934493e+00
  1.297450e+01    4.326733e+00
  1.299038e+01    4.813628e+00
  1.300625e+01    5.360098e+00
  1.302213e+01    6.024773e+00
  1.303800e+01    6.997269e+00
  1.305388e+01    8.099771e+00
  1.306975e+01    9.321450e+00
  1.308563e+01    1.071566e+01
  1.310150e+01    1.209324e+01
  1.311738e+01    1.341536e+01
  1.313326e+01    1.464855e+01
  1.314913e+01    1.580201e+01
  1.316501e+01    1.687799e+01
  1.318088e+01    1.758019e+01
  1.319676e+01    1.744455e+01
  1.321263e+01    1.639249e+01
  1.322851e+01    1.465988e+01
  1.324438e+01    1.264917e+01
  1.326026e+01    1.065233e+01
  1.327614e+01    8.919333e+00
  1.329201e+01    7.526150e+00
  1.330789e+01    6.501527e+00
  1.332376e+01    5.680144e+00
  1.333964e+01    4.994930e+00
  1.335551e+01    4.460429e+00
  1.337139e+01    4.128498e+00
  1.338727e+01    3.793647e+00
  1.340314e+01    3.547512e+00
  1.341902e+01    3.362023e+00
  1.343489e+01    3.159443e+00
  1.345077e+01    2.992291e+00
  1.346664e+01    2.898637e+00
  1.348252e+01    2.806141e+00
  1.349839e+01    2.752809e+00
  1.351427e+01    2.625842e+00
  1.353015e+01    2.560546e+00
  1.354602e+01    2.521452e+00
  1.356190e+01    2.467828e+00
  1.357777e+01    2.470045e+00
  1.359365e+01    2.424353e+00
  1.360952e+01    2.359680e+00
  1.362540e+01    2.322660e+00
  1.364127e+01    2.292634e+00
  1.365715e+01    2.272515e+00
  1.367303e+01    2.275362e+00
  1.368890e+01    2.260875e+00
  1.370478e+01    2.275420e+00
  1.372065e+01    2.241099e+00
  1.373653e+01    2.226349e+00
  1.375240e+01    2.161264e+00
  1.376828e+01    2.140957e+00
  1.378415e+01    2.127220e+00
  1.380003e+01    2.173756e+00
  1.381591e+01    2.178754e+00
  1.383178e+01    2.138233e+00
  1.384766e+01    2.098048e+00
  1.386353e+01    2.071007e+00
  1.387941e+01    2.082356e+00
  1.389528e+01    2.099851e+00
  1.391116e+01    2.031893e+00
  1.392703e+01    2.049634e+00
  1.394291e+01    2.035379e+00
  1.395879e+01    2.018019e+00
  1.397466e+01    2.005251e+00
  1.399054e+01    2.031843e+00
  1.400641e+01    2.008074e+00
  1.402229e+01    2.019829e+00
  1.403816e+01    2.012512e+00
  1.405404e+01    1.988065e+00
  1.406991e+01    2.002541e+00
  1.408579e+01    1.987396e+00
  1.410167e+01    2.013183e+00
  1.411754e+01    2.011019e+00
  1.413342e+01    2.016658e+00
  1.414929e+01    2.012532e+00
  1.416517e+01    2.019204e+00
  1.418104e+01    1.987193e+00
  1.419692e+01    1.971325e+00
  1.421279e+01    2.016199e+00
  1.422867e+01    1.958938e+00
  1.424455e+01    1.977386e+00
  1.426042e+01    1.951518e+00
  1.427630e+01    1.936006e+00
  1.429217e+01    1.900188e+00
  1.430805e+01    1.895790e+00
  1.432392e+01    1.953074e+00
  1.433980e+01    1.924946e+00
  1.435568e+01    1.898517e+00
  1.437155e+01    1.920917e+00
  1.438743e+01    1.919053e+00
  1.440330e+01    1.909993e+00
  1.441918e+01    1.855877e+00
  1.443505e+01    1.871535e+00
  1.445093e+01    1.896980e+00
  1.446680e+01    1.850569e+00
  1.448268e+01    1.881439e+00
  1.449856e+01    1.910477e+00
  1.451443e+01    1.896123e+00
  1.453031e+01    1.898003e+00
  1.454618e+01    1.917895e+00
  1.456206e+01    1.891893e+00
  1.457793e+01    1.866632e+00
  1.459381e+01    1.877362e+00
  1.460968e+01    1.885205e+00
  1.462556e+01    1.893152e+00
  1.464144e+01    1.859967e+00
  1.465731e+01    1.884728e+00
  1.467319e+01    1.880798e+00
  1.468906e+01    1.939357e+00
  1.470494e+01    1.933526e+00
  1.472081e+01    1.903211e+00
  1.473669e+01    1.859866e+00
  1.475256e+01    1.866798e+00
  1.476844e+01    1.838362e+00
  1.478432e+01    1.836866e+00
  1.480019e+01    1.860489e+00
  1.481607e+01    1.878549e+00
  1.483194e+01    1.869294e+00
  1.484782e+01    1.928746e+00
  1.486369e+01    1.933985e+00
  1.487957e+01    1.901929e+00
  1.489544e+01    1.922761e+00
  1.491132e+01    1.927334e+00
  1.492720e+01    1.956562e+00
  1.494307e+01    1.978526e+00
  1.495895e+01    1.971827e+00
  1.497482e+01    2.018875e+00
  1.499070e+01    2.065680e+00
  1.500657e+01    2.151382e+00
  1.502245e+01    2.170737e+00
  1.503832e+01    2.271007e+00
  1.505420e+01    2.364303e+00
  1.507008e+01    2.518255e+00
  1.508595e+01    2.607771e+00
  1.510183e+01    2.812952e+00
  1.511770e+01    3.088993e+00
  1.513358e+01    3.353762e+00
  1.514945e+01    3.718063e+00
  1.516533e+01    4.149476e+00
  1.518120e+01    4.529292e+00
  1.519708e+01    4.853778e+00
  1.521296e+01    5.146949e+00
  1.522883e+01    5.451942e+00
  1.524471e+01    5.707715e+00
  1.526058e+01    5.829511e+00
  1.527646e+01    5.935275e+00
  1.529233e+01    5.854209e+00
  1.530821e+01    5.630089e+00
  1.532409e+01    5.118653e+00
  1.533996e+01    4.554143e+00
  1.535584e+01    4.013677e+00
  1.537171e+01    3.531570e+00
  1.538759e+01    3.172832e+00
  1.540346e+01    2.939806e+00
  1.541934e+01    2.697123e+00
  1.543521e+01    2.496998e+00
  1.545109e+01    2.365280e+00
  1.546697e+01    2.229689e+00
  1.548284e+01    2.144370e+00
  1.549872e+01    2.077365e+00
  1.551459e+01    2.007974e+00
  1.553047e+01    1.954702e+00
  1.554634e+01    1.886890e+00
  1.556222e+01    1.873975e+00
  1.557809e+01    1.878805e+00
  1.559397e+01    1.830216e+00
  1.560985e+01    1.804470e+00
  1.562572e+01    1.846106e+00
  1.564160e+01    1.785440e+00
  1.565747e+01    1.729929e+00
  1.567335e+01    1.725489e+00
  1.568922e+01    1.743512e+00
  1.570510e+01    1.721946e+00
  1.572097e+01    1.716045e+00
  1.573685e+01    1.665811e+00
  1.575273e+01    1.649519e+00
  1.576860e+01    1.727141e+00
  1.578448e+01    1.691105e+00
  1.580035e+01    1.640617e+00
  1.581623e+01    1.641305e+00
  1.583210e+01    1.663232e+00
  1.584798e+01    1.652318e+00
  1.586385e+01    1.635138e+00
  1.587973e+01    1.623062e+00
  1.589561e+01    1.618818e+00
  1.591148e+01    1.656187e+00
  1.592736e+01    1.629656e+00
  1.594323e+01    1.612500e+00
  1.595911e+01    1.589132e+00
  1.597498e+01    1.574324e+00
  1.599086e+01    1.598404e+00
  1.600673e+01    1.590574e+00
  1.602261e+01    1.593012e+00
  1.603849e+01    1.572922e+00
  1.605436e+01    1.592906e+00
  1.607024e+01    1.626817e+00
  1.608611e+01    1.609023e+00
  1.610199e+01    1.599794e+00
  1.611786e+01    1.587425e+00
  1.613374e+01    1.548512e+00
  1.614961e+01    1.558830e+00
  1.616549e+01    1.541816e+00
  1.618137e+01    1.538633e+00
  1.619724e+01    1.567510e+00
  1.621312e+01    1.564009e+00
  1.622899e+01    1.543914e+00
  1.624487e+01    1.558345e+00
  1.626074e+01    1.576454e+00
  1.627662e+01    1.552791e+00
  1.629250e+01    1.534416e+00
  1.630837e+01    1.508648e+00
  1.632425e+01    1.523638e+00
  1.634012e+01    1.517738e+00
  1.635600e+01    1.504100e+00
  1.637187e+01    1.492869e+00
  1.638775e+01    1.493758e+00
  1.640362e+01    1.509732e+00
  1.641950e+01    1.513797e+00
  1.643538e+01    1.526055e+00
  1.645125e+01    1.510706e+00
  1.646713e+01    1.504601e+00
  1.648300e+01    1.477983e+00
  1.649888e+01    1.485635e+00
  1.651475e+01    1.521513e+00
  1.653063e+01    1.520848e+00
  1.654650e+01    1.514618e+00
  1.656238e+01    1.502859e+00
  1.657826e+01    1.458204e+00
  1.659413e+01    1.448640e+00
  1.661001e+01    1.458786e+00
  1.662588e+01    1.469945e+00
  1.664176e+01    1.452051e+00
  1.665763e+01    1.444937e+00
  1.667351e+01    1.441659e+00
  1.668938e+01    1.452831e+00
  1.670526e+01    1.455457e+00
  1.672114e+01    1.447590e+00
  1.673701e+01    1.474417e+00
  1.675289e+01    1.440539e+00
  1.676876e+01    1.437881e+00
  1.678464e+01    1.426445e+00
  1.680051e+01    1.416523e+00
  1.681639e+01    1.413308e+00
  1.683226e+01    1.431938e+00
  1.684814e+01    1.458614e+00
  1.686402e+01    1.452293e+00
  1.687989e+01    1.431486e+00
  1.689577e+01    1.429014e+00
  1.691164e+01    1.428489e+00
  1.692752e+01    1.419183e+00
  1.694339e+01    1.398343e+00
  1.695927e+01    1.421346e+00
  1.697514e+01    1.415580e+00
  1.699102e+01    1.427169e+00
  1.700690e+01    1.420409e+00
  1.702277e+01    1.393824e+00
  1.703865e+01    1.398325e+00
  1.705452e+01    1.415745e+00
  1.707040e+01    1.404632e+00
  1.708627e+01    1.405808e+00
  1.710215e+01    1.406685e+00
  1.711802e+01    1.404305e+00
  1.713390e+01    1.381344e+00
  1.714978e+01    1.414839e+00
  1.716565e+01    1.413830e+00
  1.718153e+01    1.397445e+00
  1.719740e+01    1.388522e+00
  1.721328e+01    1.392969e+00
  1.722915e+01    1.362678e+00
  1.724503e+01    1.356927e+00
  1.726091e+01    1.368119e+00
  1.727678e+01    1.357267e+00
  1.729266e+01    1.364570e+00
  1.730853e+01    1.363523e+00
  1.732441e+01    1.327740e+00
  1.734028e+01    1.358839e+00
  1.735616e+01    1.388599e+00
  1.737203e+01    1.374477e+00
  1.738791e+01    1.337871e+00
  1.740379e+01    1.388523e+00
  1.741966e+01    1.368811e+00
  1.743554e+01    1.371619e+00
  1.745141e+01    1.353215e+00
  1.746729e+01    1.336707e+00
  1.748316e+01    1.352080e+00
  1.749904e+01    1.367886e+00
  1.751491e+01    1.354460e+00
  1.753079e+01    1.351821e+00
  1.754667e+01    1.345417e+00
  1.756254e+01    1.373425e+00
  1.757842e+01    1.360836e+00
  1.759429e+01    1.350716e+00
  1.761017e+01    1.340577e+00
  1.762604e+01    1.333575e+00
  1.764192e+01    1.321833e+00
  1.765779e+01    1.313813e+00
  1.767367e+01    1.307538e+00
  1.768955e+01    1.299817e+00
  1.770542e+01    1.362722e+00
  1.772130e+01    1.334219e+00
  1.773717e+01    1.329385e+00
  1.775305e+01    1.323916e+00
  1.776892e+01    1.319738e+00
  1.778480e+01    1.322750e+00
  1.780067e+01    1.313583e+00
  1.781655e+01    1.298649e+00
  1.783243e+01    1.291771e+00
  1.784830e+01    1.296430e+00
  1.786418e+01    1.274874e+00
  1.788005e+01    1.280164e+00
  1.789593e+01    1.290900e+00
  1.791180e+01    1.291225e+00
  1.792768e+01    1.283992e+00
  1.794355e+01    1.288414e+00
  1.795943e+01    1.287473e+00
  1.797531e+01    1.319188e+00
  1.799118e+01    1.300718e+00
  1.800706e+01    1.282836e+00
  1.802293e+01    1.283965e+00
  1.803881e+01    1.291146e+00
  1.805468e+01    1.255504e+00
  1.807056e+01    1.285576e+00
  1.808643e+01    1.289535e+00
  1.810231e+01    1.275537e+00
  1.811819e+01    1.262751e+00
  1.813406e+01    1.277018e+00
  1.814994e+01    1.286041e+00
  1.816581e+01    1.299042e+00
  1.818169e+01    1.298507e+00
  1.819756e+01    1.256527e+00
  1.821344e+01    1.254785e+00
  1.822932e+01    1.249934e+00
  1.824519e+01    1.257440e+00
  1.826107e+01    1.264277e+00
  1.827694e+01    1.229715e+00
  1.829282e+01    1.235736e+00
  1.830869e+01    1.265001e+00
  1.832457e+01    1.248993e+00
  1.834044e+01    1.263996e+00
  1.835632e+01    1.267691e+00
  1.837220e+01    1.224325e+00
  1.838807e+01    1.242647e+00
  1.840395e+01    1.246505e+00
  1.841982e+01    1.239964e+00
  1.843570e+01    1.242461e+00
  1.845157e+01    1.245977e+00
  1.846745e+01    1.230349e+00
  1.848332e+01    1.229760e+00
  1.849920e+01    1.218867e+00
  1.851508e+01    1.199977e+00
  1.853095e+01    1.210248e+00
  1.854683e+01    1.230082e+00
  1.856270e+01    1.232762e+00
  1.857858e+01    1.224626e+00
  1.859445e+01    1.214828e+00
  1.861033e+01    1.222036e+00
  1.862620e+01    1.202511e+00
  1.864208e+01    1.220345e+00
  1.865796e+01    1.219195e+00
  1.867383e+01    1.205524e+00
  1.868971e+01    1.209841e+00
  1.870558e+01    1.200335e+00
  1.872146e+01    1.187573e+00
  1.873733e+01    1.197721e+00
  1.875321e+01    1.224486e+00
  1.876908e+01    1.205261e+00
  1.878496e+01    1.209223e+00
  1.880084e+01    1.216464e+00
  1.881671e+01    1.205640e+00
  1.883259e+01    1.204123e+00
  1.884846e+01    1.195588e+00
  1.886434e+01    1.205783e+00
  1.888021e+01    1.225520e+00
  1.889609e+01    1.205643e+00
  1.891196e+01    1.219305e+00
  1.892784e+01    1.204036e+00
  1.894372e+01    1.204919e+00
  1.895959e+01    1.222471e+00
  1.897547e+01    1.208756e+00
  1.899134e+01    1.191472e+00
  1.900722e+01    1.170154e+00
  1.902309e+01    1.188499e+00
  1.903897e+01    1.147926e+00
  1.905484e+01    1.163759e+00
  1.907072e+01    1.166750e+00
  1.908660e+01    1.170342e+00
  1.910247e+01    1.173271e+00
  1.911835e+01    1.178965e+00
  1.913422e+01    1.192561e+00
  1.915010e+01    1.196017e+00
  1.916597e+01    1.173235e+00
  1.918185e+01    1.142686e+00
  1.919773e+01    1.182402e+00
  1.921360e+01    1.162146e+00
  1.922948e+01    1.147522e+00
  1.924535e+01    1.166006e+00
  1.926123e+01    1.160647e+00
  1.927710e+01    1.158057e+00
  1.929298e+01    1.164526e+00
  1.930885e+01    1.161929e+00
  1.932473e+01    1.169946e+00
  1.934061e+01    1.178209e+00
  1.935648e+01    1.180591e+00
  1.937236e+01    1.168444e+00
  1.938823e+01    1.192969e+00
  1.940411e+01    1.159603e+00
  1.941998e+01    1.148367e+00
  1.943586e+01    1.161749e+00
  1.945173e+01    1.130571e+00
  1.946761e+01    1.139825e+00
  1.948349e+01    1.153528e+00
  1.949936e+01    1.157180e+00
  1.951524e+01    1.154780e+00
  1.953111e+01    1.151260e+00
  1.954699e+01    1.106965e+00
  1.956286e+01    1.119068e+00
  1.957874e+01    1.108201e+00
  1.959461e+01    1.132186e+00
  1.961049e+01    1.169042e+00
  1.962637e+01    1.139331e+00
  1.964224e+01    1.149904e+00
  1.965812e+01    1.136240e+00
  1.967399e+01    1.124312e+00
  1.968987e+01    1.104216e+00
  1.970574e+01    1.133447e+00
  1.972162e+01    1.118777e+00
  1.973749e+01    1.101529e+00
  1.975337e+01    1.105990e+00
  1.976925e+01    1.119845e+00
  1.978512e+01    1.134073e+00
  1.980100e+01    1.122748e+00
  1.981687e+01    1.108281e+00
  1.983275e+01    1.116630e+00
  1.984862e+01    1.111453e+00
  1.986450e+01    1.125106e+00
  1.988037e+01    1.121030e+00
  1.989625e+01    1.110336e+00
  1.991213e+01    1.101979e+00
  1.992800e+01    1.092582e+00
  1.994388e+01    1.098918e+00
  1.995975e+01    1.109809e+00
  1.997563e+01    1.106805e+00
  1.999150e+01    1.108565e+00
  2.000738e+01    1.086276e+00
  2.002325e+01    1.075803e+00
  2.003913e+01    1.121792e+00
  2.005501e+01    1.124569e+00
  2.007088e+01    1.103592e+00
  2.008676e+01    1.107661e+00
  2.010263e+01    1.098209e+00
  2.011851e+01    1.087494e+00
  2.013438e+01    1.099739e+00
  2.015026e+01    1.096626e+00
  2.016614e+01    1.085646e+00
  2.018201e+01    1.110087e+00
  2.019789e+01    1.094574e+00
  2.021376e+01    1.080199e+00
  2.022964e+01    1.074749e+00
  2.024551e+01    1.058168e+00
  2.026139e+01    1.079063e+00
  2.027726e+01    1.078784e+00
  2.029314e+01    1.066608e+00
  2.030902e+01    1.076939e+00
  2.032489e+01    1.075978e+00
  2.034077e+01    1.081011e+00
  2.035664e+01    1.077042e+00
  2.037252e+01    1.082957e+00
  2.038839e+01    1.093738e+00
  2.040427e+01    1.089425e+00
  2.042014e+01    1.073836e+00
  2.043602e+01    1.055917e+00
  2.045190e+01    1.063094e+00
  2.046777e+01    1.056992e+00
  2.048365e+01    1.070979e+00
  2.049952e+01    1.050998e+00
  2.051540e+01    1.061858e+00
  2.053127e+01    1.057022e+00
  2.054715e+01    1.048103e+00
  2.056302e+01    1.061813e+00
  2.057890e+01    1.078549e+00
  2.059478e+01    1.072988e+00
  2.061065e+01    1.050842e+00
  2.062653e+01    1.064878e+00
  2.064240e+01    1.056765e+00
  2.065828e+01    1.056631e+00
  2.067415e+01    1.059948e+00
  2.069003e+01    1.091326e+00
  2.070590e+01    1.084841e+00
  2.072178e+01    1.070249e+00
  2.073766e+01    1.062569e+00
  2.075353e+01    1.064093e+00
  2.076941e+01    1.072050e+00
  2.078528e+01    1.081913e+00
  2.080116e+01    1.078859e+00
  2.081703e+01    1.058290e+00
  2.083291e+01    1.050741e+00
  2.084878e+01    1.068988e+00
  2.086466e+01    1.065988e+00
  2.088054e+01    1.050888e+00
  2.089641e+01    1.059865e+00
  2.091229e+01    1.060139e+00
  2.092816e+01    1.068240e+00
  2.094404e+01    1.082144e+00
  2.095991e+01    1.077423e+00
  2.097579e+01    1.070072e+00
  2.099166e+01    1.071861e+00
  2.100754e+01    1.077467e+00
  2.102342e+01    1.066719e+00
  2.103929e+01    1.089882e+00
  2.105517e+01    1.067751e+00
  2.107104e+01    1.079966e+00
  2.108692e+01    1.106516e+00
  2.110279e+01    1.093173e+00
  2.111867e+01    1.088830e+00
  2.113455e+01    1.076129e+00
  2.115042e+01    1.082999e+00
  2.116630e+01    1.071902e+00
  2.118217e+01    1.063362e+00
  2.119805e+01    1.067601e+00
  2.121392e+01    1.092439e+00
  2.122980e+01    1.081941e+00
  2.124567e+01    1.096910e+00
  2.126155e+01    1.106030e+00
  2.127743e+01    1.108403e+00
  2.129330e+01    1.090472e+00
  2.130918e+01    1.105135e+00
  2.132505e+01    1.130071e+00
  2.134093e+01    1.138141e+00
  2.135680e+01    1.142470e+00
  2.137268e+01    1.157930e+00
  2.138855e+01    1.173073e+00
  2.140443e+01    1.158316e+00
  2.142031e+01    1.172968e+00
  2.143618e+01    1.173568e+00
  2.145206e+01    1.190755e+00
  2.146793e+01    1.198888e+00
  2.148381e+01    1.232038e+00
  2.149968e+01    1.261693e+00
  2.151556e+01    1.273848e+00
  2.153143e+01    1.341405e+00
  2.154731e+01    1.347629e+00
  2.156319e+01    1.396363e+00
  2.157906e+01    1.461671e+00
  2.159494e+01    1.509799e+00
  2.161081e+01    1.577995e+00
  2.162669e+01    1.658308e+00
  2.164256e+01    1.739506e+00
  2.165844e+01    1.844850e+00
  2.167431e+01    2.034812e+00
  2.169019e+01    2.230988e+00
  2.170607e+01    2.473181e+00
  2.172194e+01    2.782835e+00
  2.173782e+01    3.149236e+00
  2.175369e+01    3.572705e+00
  2.176957e+01    4.090630e+00
  2.178544e+01    4.672612e+00
  2.180132e+01    5.270300e+00
  2.181719e+01    5.989802e+00
  2.183307e+01    6.780320e+00
  2.184895e+01    7.562318e+00
  2.186482e+01    8.322855e+00
  2.188070e+01    8.975886e+00
  2.189657e+01    9.527774e+00
  2.191245e+01    9.739252e+00
  2.192832e+01    9.464276e+00
  2.194420e+01    8.909176e+00
  2.196007e+01    8.115695e+00
  2.197595e+01    6.977092e+00
  2.199183e+01    5.906390e+00
  2.200770e+01    5.045557e+00
  2.202358e+01    4.275688e+00
  2.203945e+01    3.697324e+00
  2.205533e+01    3.192066e+00
  2.207120e+01    2.783339e+00
  2.208708e+01    2.531415e+00
  2.210296e+01    2.257109e+00
  2.211883e+01    2.050278e+00
  2.213471e+01    1.908514e+00
  2.215058e+01    1.785395e+00
  2.216646e+01    1.650136e+00
  2.218233e+01    1.560439e+00
  2.219821e+01    1.487917e+00
  2.221408e+01    1.439178e+00
  2.222996e+01    1.387235e+00
  2.224584e+01    1.317758e+00
  2.226171e+01    1.264568e+00
  2.227759e+01    1.238844e+00
  2.229346e+01    1.212738e+00
  2.230934e+01    1.177810e+00
  2.232521e+01    1.163090e+00
  2.234109e+01    1.138995e+00
  2.235696e+01    1.132163e+00
  2.237284e+01    1.109639e+00
  2.238872e+01    1.079767e+00
  2.240459e+01    1.072145e+00
  2.242047e+01    1.067537e+00
  2.243634e+01    1.056608e+00
  2.245222e+01    1.054942e+00
  2.246809e+01    1.057221e+00
  2.248397e+01    1.045977e+00
  2.249984e+01    1.023408e+00
  2.251572e+01    1.003348e+00
  2.253160e+01    9.829143e-01
  2.254747e+01    9.863299e-01
  2.256335e+01    9.817618e-01
  2.257922e+01    9.725751e-01
  2.259510e+01    9.847242e-01
  2.261097e+01    9.689473e-01
  2.262685e+01    9.664878e-01
  2.264272e+01    9.500196e-01
  2.265860e+01    9.483123e-01
  2.267448e+01    9.501957e-01
  2.269035e+01    9.415522e-01
  2.270623e+01    9.385875e-01
  2.272210e+01    9.500062e-01
  2.273798e+01    9.475995e-01
  2.275385e+01    9.434476e-01
  2.276973e+01    9.289743e-01
  2.278560e+01    9.376178e-01
  2.280148e+01    9.438183e-01
  2.281736e+01    9.182208e-01
  2.283323e+01    8.940548e-01
  2.284911e+01    9.234060e-01
  2.286498e+01    9.242805e-01
  2.288086e+01    8.896947e-01
  2.289673e+01    9.011841e-01
  2.291261e+01    8.954723e-01
  2.292848e+01    8.935412e-01
  2.294436e+01    9.051734e-01
  2.296024e+01    8.857928e-01
  2.297611e+01    8.705963e-01
  2.299199e+01    8.830554e-01
  2.300786e+01    8.969935e-01
  2.302374e+01    8.711408e-01
  2.303961e+01    8.733529e-01
  2.305549e+01    8.530396e-01
  2.307137e+01    8.784745e-01
  2.308724e+01    8.881326e-01
  2.310312e+01    8.687428e-01
  2.311899e+01    8.526425e-01
  2.313487e+01    8.506022e-01
  2.315074e+01    8.538051e-01
  2.316662e+01    8.612912e-01
  2.318249e+01    8.612980e-01
  2.319837e+01    8.725590e-01
  2.321425e+01    8.789074e-01
  2.323012e+01    8.626734e-01
  2.324600e+01    8.582815e-01
  2.326187e+01    8.557534e-01
  2.327775e+01    8.601887e-01
  2.329362e+01    8.707063e-01
  2.330950e+01    8.518152e-01
  2.332537e+01    8.540183e-01
  2.334125e+01    8.385381e-01
  2.335713e+01    8.452561e-01
  2.337300e+01    8.492565e-01
  2.338888e+01    8.439717e-01
  2.340475e+01    8.416890e-01
  2.342063e+01    8.407604e-01
  2.343650e+01    8.471039e-01
  2.345238e+01    8.544292e-01
  2.346825e+01    8.463820e-01
  2.348413e+01    8.392464e-01
  2.350001e+01    8.276414e-01
  2.351588e+01    8.245985e-01
  2.353176e+01    8.273534e-01
  2.354763e+01    8.213933e-01
  2.356351e+01    8.291637e-01
  2.357938e+01    8.417709e-01
  2.359526e+01    8.420861e-01
  2.361113e+01    8.390519e-01
  2.362701e+01    8.292495e-01
  2.364289e+01    8.251796e-01
  2.365876e+01    8.198571e-01
  2.367464e+01    8.086814e-01
  2.369051e+01    8.115634e-01
  2.370639e+01    7.993149e-01
  2.372226e+01    8.146588e-01
  2.373814e+01    8.136045e-01
  2.375401e+01    8.137317e-01
  2.376989e+01    7.937582e-01
  2.378577e+01    7.946566e-01
  2.380164e+01    8.108831e-01
  2.381752e+01    8.134888e-01
  2.383339e+01    8.003129e-01
  2.384927e+01    7.835900e-01
  2.386514e+01    7.949761e-01
  2.388102e+01    8.072326e-01
  2.389689e+01    7.971146e-01
  2.391277e+01    7.862281e-01
  2.392865e+01    7.939079e-01
  2.394452e+01    7.922752e-01
  2.396040e+01    7.859533e-01
  2.397627e+01    8.135545e-01
  2.399215e+01    8.091344e-01
  2.400802e+01    7.910479e-01
  2.402390e+01    7.946793e-01
  2.403978e+01    7.847794e-01
  2.405565e+01    7.733774e-01
  2.407153e+01    7.774462e-01
  2.408740e+01    8.081436e-01
  2.410328e+01    7.889642e-01
  2.411915e+01    7.784611e-01
  2.413503e+01    7.754362e-01
  2.415090e+01    7.699482e-01
  2.416678e+01    7.803462e-01
  2.418266e+01    8.057057e-01
  2.419853e+01    7.823579e-01
  2.421441e+01    7.812405e-01
  2.423028e+01    7.826297e-01
  2.424616e+01    7.784511e-01
  2.426203e+01    7.713549e-01
  2.427791e+01    7.832589e-01
  2.429378e+01    7.622939e-01
  2.430966e+01    7.708296e-01
  2.432554e+01    7.823119e-01
  2.434141e+01    7.895805e-01
  2.435729e+01    7.870048e-01
  2.437316e+01    7.719617e-01
  2.438904e+01    7.720105e-01
  2.440491e+01    7.758338e-01
  2.442079e+01    7.597387e-01
  2.443666e+01    7.774718e-01
  2.445254e+01    7.889728e-01
  2.446842e+01    8.068983e-01
  2.448429e+01    8.099104e-01
  2.450017e+01    7.932852e-01
  2.451604e+01    7.880704e-01
  2.453192e+01    7.611858e-01
  2.454779e+01    7.785378e-01
  2.456367e+01    7.693683e-01
  2.457954e+01    7.829060e-01
  2.459542e+01    7.759784e-01
  2.461130e+01    7.870887e-01
  2.462717e+01    7.707065e-01
  2.464305e+01    7.737788e-01
  2.465892e+01    7.741504e-01
  2.467480e+01    7.862428e-01
  2.469067e+01    7.879289e-01
  2.470655e+01    7.801626e-01
  2.472242e+01    7.734606e-01
  2.473830e+01    7.973996e-01
  2.475418e+01    7.924131e-01
  2.477005e+01    7.990633e-01
  2.478593e+01    7.731575e-01
  2.480180e+01    8.051437e-01
  2.481768e+01    8.059441e-01
  2.483355e+01    7.855448e-01
  2.484943e+01    7.779428e-01
  2.486530e+01    7.747663e-01
  2.488118e+01    7.956742e-01
  2.489706e+01    8.053167e-01
  2.491293e+01    8.019693e-01
  2.492881e+01    7.914481e-01
  2.494468e+01    8.019264e-01
  2.496056e+01    7.880448e-01
  2.497643e+01    7.848879e-01
  2.499231e+01    7.950771e-01
  2.500819e+01    7.900100e-01
  2.502406e+01    7.930267e-01
  2.503994e+01    7.953408e-01
  2.505581e+01    7.914326e-01
  2.507169e+01    7.902922e-01
  2.508756e+01    8.101076e-01
  2.510344e+01    8.007298e-01
  2.511931e+01    8.062178e-01
  2.513519e+01    8.351665e-01
  2.515107e+01    8.142837e-01
  2.516694e+01    8.141403e-01
  2.518282e+01    8.308927e-01
  2.519869e+01    8.361257e-01
  2.521457e+01    8.325065e-01
  2.523044e+01    8.392922e-01
  2.524632e+01    8.172566e-01
  2.526219e+01    8.218380e-01
  2.527807e+01    8.427528e-01
  2.529395e+01    8.443424e-01
  2.530982e+01    8.586119e-01
  2.532570e+01    8.624243e-01
  2.534157e+01    8.788574e-01
  2.535745e+01    8.543675e-01
  2.537332e+01    8.712317e-01
  2.538920e+01    8.744448e-01
  2.540507e+01    8.907281e-01
  2.542095e+01    8.960891e-01
  2.543683e+01    9.109933e-01
  2.545270e+01    9.300296e-01
  2.546858e+01    9.315266e-01
  2.548445e+01    9.379615e-01
  2.550033e+01    9.816639e-01
  2.551620e+01    9.838763e-01
  2.553208e+01    9.893521e-01
  2.554795e+01    9.923818e-01
  2.556383e+01    1.023401e+00
  2.557971e+01    1.057145e+00
  2.559558e+01    1.104474e+00
  2.561146e+01    1.124166e+00
  2.562733e+01    1.136543e+00
  2.564321e+01    1.179827e+00
  2.565908e+01    1.241398e+00
  2.567496e+01    1.303968e+00
  2.569083e+01    1.334973e+00
  2.570671e+01    1.421601e+00
  2.572259e+01    1.527847e+00
  2.573846e+01    1.663023e+00
  2.575434e+01    1.816531e+00
  2.577021e+01    1.985285e+00
  2.578609e+01    2.221230e+00
  2.580196e+01    2.492972e+00
  2.581784e+01    2.811959e+00
  2.583371e+01    3.248088e+00
  2.584959e+01    3.693366e+00
  2.586547e+01    4.255584e+00
  2.588134e+01    4.840887e+00
  2.589722e+01    5.432096e+00
  2.591309e+01    6.108783e+00
  2.592897e+01    6.731058e+00
  2.594484e+01    7.348441e+00
  2.596072e+01    7.849715e+00
  2.597660e+01    7.986389e+00
  2.599247e+01    7.923210e+00
  2.600835e+01    7.497670e+00
  2.602422e+01    6.814634e+00
  2.604010e+01    6.032755e+00
  2.605597e+01    5.187138e+00
  2.607185e+01    4.410581e+00
  2.608772e+01    3.763988e+00
  2.610360e+01    3.240917e+00
  2.611948e+01    2.810220e+00
  2.613535e+01    2.487559e+00
  2.615123e+01    2.226002e+00
  2.616710e+01    2.029087e+00
  2.618298e+01    1.849945e+00
  2.619885e+01    1.696847e+00
  2.621473e+01    1.560296e+00
  2.623060e+01    1.478994e+00
  2.624648e+01    1.402853e+00
  2.626236e+01    1.331257e+00
  2.627823e+01    1.239590e+00
  2.629411e+01    1.206677e+00
  2.630998e+01    1.175129e+00
  2.632586e+01    1.151650e+00
  2.634173e+01    1.095366e+00
  2.635761e+01    1.050681e+00
  2.637348e+01    1.021338e+00
  2.638936e+01    1.008023e+00
  2.640524e+01    9.882326e-01
  2.642111e+01    9.944868e-01
  2.643699e+01    9.680569e-01
  2.645286e+01    9.475871e-01
  2.646874e+01    9.352863e-01
  2.648461e+01    9.231349e-01
  2.650049e+01    9.061792e-01
  2.651636e+01    9.216593e-01
  2.653224e+01    9.419792e-01
  2.654812e+01    9.418170e-01
  2.656399e+01    9.164524e-01
  2.657987e+01    8.948649e-01
  2.659574e+01    8.697484e-01
  2.661162e+01    8.964428e-01
  2.662749e+01    9.033628e-01
  2.664337e+01    8.947271e-01
  2.665924e+01    8.930590e-01
  2.667512e+01    8.977165e-01
  2.669100e+01    8.931247e-01
  2.670687e+01    8.734771e-01
  2.672275e+01    8.769820e-01
  2.673862e+01    8.768720e-01
  2.675450e+01    8.873926e-01
  2.677037e+01    8.706415e-01
  2.678625e+01    8.818153e-01
  2.680212e+01    8.851256e-01
  2.681800e+01    8.934257e-01
  2.683388e+01    9.083919e-01
  2.684975e+01    9.105710e-01
  2.686563e+01    9.017033e-01
  2.688150e+01    9.046720e-01
  2.689738e+01    9.170391e-01
  2.691325e+01    9.256769e-01
  2.692913e+01    9.424546e-01
  2.694501e+01    9.468526e-01
  2.696088e+01    9.300249e-01
  2.697676e+01    9.777648e-01
  2.699263e+01    9.864373e-01
  2.700851e+01    9.994258e-01
  2.702438e+01    1.033056e+00
  2.704026e+01    1.088949e+00
  2.705613e+01    1.130366e+00
  2.707201e+01    1.189252e+00
  2.708789e+01    1.247657e+00
  2.710376e+01    1.311898e+00
  2.711964e+01    1.441540e+00
  2.713551e+01    1.577914e+00
  2.715139e+01    1.708262e+00
  2.716726e+01    1.841877e+00
  2.718314e+01    1.986633e+00
  2.719901e+01    2.172239e+00
  2.721489e+01    2.222190e+00
  2.723077e+01    2.314576e+00
  2.724664e+01    2.309628e+00
  2.726252e+01    2.313295e+00
  2.727839e+01    2.146326e+00
  2.729427e+01    1.961833e+00
  2.731014e+01    1.772815e+00
  2.732602e+01    1.603488e+00
  2.734189e+01    1.485564e+00
  2.735777e+01    1.356864e+00
  2.737365e+01    1.271429e+00
  2.738952e+01    1.196493e+00
  2.740540e+01    1.136204e+00
  2.742127e+01    1.083259e+00
  2.743715e+01    1.025167e+00
  2.745302e+01    9.977242e-01
  2.746890e+01    9.830942e-01
  2.748477e+01    9.483619e-01
  2.750065e+01    9.444724e-01
  2.751653e+01    8.974032e-01
  2.753240e+01    8.912812e-01
  2.754828e+01    8.862646e-01
  2.756415e+01    8.664698e-01
  2.758003e+01    8.760999e-01
  2.759590e+01    8.791855e-01
  2.761178e+01    8.564320e-01
  2.762765e+01    8.366452e-01
  2.764353e+01    8.370968e-01
  2.765941e+01    8.231342e-01
  2.767528e+01    8.253958e-01
  2.769116e+01    8.122140e-01
  2.770703e+01    8.448625e-01
  2.772291e+01    8.221710e-01
  2.773878e+01    8.187409e-01
  2.775466e+01    8.121577e-01
  2.777054e+01    8.264106e-01
  2.778641e+01    8.204541e-01
  2.780229e+01    8.131086e-01
  2.781816e+01    7.984524e-01
  2.783404e+01    7.903708e-01
  2.784991e+01    7.838115e-01
  2.786579e+01    7.995509e-01
  2.788166e+01    7.689570e-01
  2.789754e+01    7.673101e-01
  2.791342e+01    7.670719e-01
  2.792929e+01    7.899635e-01
  2.794517e+01    7.976262e-01
  2.796104e+01    7.869103e-01
  2.797692e+01    7.787770e-01
  2.799279e+01    7.708253e-01
  2.800867e+01    7.795269e-01
  2.802454e+01    7.788255e-01
  2.804042e+01    7.675572e-01
  2.805630e+01    7.509929e-01
  2.807217e+01    7.627641e-01
  2.808805e+01    7.671897e-01
  2.810392e+01    7.684275e-01
  2.811980e+01    7.952833e-01
  2.813567e+01    7.931061e-01
  2.815155e+01    7.787111e-01
  2.816742e+01    7.656195e-01
  2.818330e+01    7.639478e-01
  2.819918e+01    7.690206e-01
  2.821505e+01    7.677156e-01
  2.823093e+01    7.664135e-01
  2.824680e+01    7.680361e-01
  2.826268e+01    7.738810e-01
  2.827855e+01    7.407457e-01
  2.829443e+01    7.370262e-01
  2.831030e+01    7.602364e-01
  2.832618e+01    7.437740e-01
  2.834206e+01    7.436813e-01
  2.835793e+01    7.660753e-01
  2.837381e+01    7.705064e-01
  2.838968e+01    7.513197e-01
  2.840556e+01    7.395336e-01
  2.842143e+01    7.455147e-01
  2.843731e+01    7.658054e-01
  2.845318e+01    7.560632e-01
  2.846906e+01    7.467337e-01
  2.848494e+01    7.456853e-01
  2.850081e+01    7.589010e-01
  2.851669e+01    7.629826e-01
  2.853256e+01    7.597860e-01
  2.854844e+01    7.458017e-01
  2.856431e+01    7.478837e-01
  2.858019e+01    7.163721e-01
  2.859606e+01    7.280099e-01
  2.861194e+01    7.398820e-01
  2.862782e+01    7.308973e-01
  2.864369e+01    7.475757e-01
  2.865957e+01    7.585398e-01
  2.867544e+01    7.456449e-01
  2.869132e+01    7.357383e-01
  2.870719e+01    7.628726e-01
  2.872307e+01    7.590272e-01
  2.873895e+01    7.566022e-01
  2.875482e+01    7.476826e-01
  2.877070e+01    7.309653e-01
  2.878657e+01    7.241688e-01
  2.880245e+01    7.178317e-01
  2.881832e+01    7.237096e-01
  2.883420e+01    7.402107e-01
  2.885007e+01    7.406250e-01
  2.886595e+01    7.586108e-01
  2.888183e+01    7.546637e-01
  2.889770e+01    7.404645e-01
  2.891358e+01    7.474261e-01
  2.892945e+01    7.337808e-01
  2.894533e+01    7.431351e-01
  2.896120e+01    7.264387e-01
  2.897708e+01    7.320684e-01
  2.899295e+01    7.426141e-01
  2.900883e+01    7.330968e-01
  2.902471e+01    7.376366e-01
  2.904058e+01    7.297109e-01
  2.905646e+01    7.254568e-01
  2.907233e+01    7.324221e-01
  2.908821e+01    7.393082e-01
  2.910408e+01    7.357981e-01
  2.911996e+01    7.306417e-01
  2.913583e+01    7.419727e-01
  2.915171e+01    7.382140e-01
  2.916759e+01    7.275125e-01
  2.918346e+01    7.184623e-01
  2.919934e+01    7.238632e-01
  2.921521e+01    7.185204e-01
  2.923109e+01    6.985771e-01
  2.924696e+01    7.487881e-01
  2.926284e+01    7.559558e-01
  2.927871e+01    7.131790e-01
  2.929459e+01    7.166451e-01
  2.931047e+01    7.090650e-01
  2.932634e+01    7.156129e-01
  2.934222e+01    7.318005e-01
  2.935809e+01    7.154703e-01
  2.937397e+01    7.144008e-01
  2.938984e+01    7.344561e-01
  2.940572e+01    7.311827e-01
  2.942159e+01    7.076296e-01
  2.943747e+01    7.149267e-01
  2.945335e+01    6.996802e-01
  2.946922e+01    7.205092e-01
  2.948510e+01    7.274448e-01
  2.950097e+01    7.295318e-01
  2.951685e+01    7.157480e-01
  2.953272e+01    7.288098e-01
  2.954860e+01    7.296228e-01
  2.956447e+01    7.129667e-01
  2.958035e+01    7.090663e-01
  2.959623e+01    7.165123e-01
  2.961210e+01    7.152830e-01
  2.962798e+01    7.240997e-01
  2.964385e+01    7.227551e-01
  2.965973e+01    6.981850e-01
  2.967560e+01    7.005514e-01
  2.969148e+01    7.262240e-01
  2.970736e+01    7.040357e-01
  2.972323e+01    7.113242e-01
  2.973911e+01    7.147440e-01
  2.975498e+01    7.068756e-01
  2.977086e+01    7.013907e-01
  2.978673e+01    7.082065e-01
  2.980261e+01    7.030728e-01
  2.981848e+01    7.004624e-01
  2.983436e+01    7.240349e-01
  2.985024e+01    6.992853e-01
  2.986611e+01    7.099488e-01
  2.988199e+01    7.033749e-01
  2.989786e+01    7.077897e-01
  2.991374e+01    7.062719e-01
  2.992961e+01    7.009736e-01
  2.994549e+01    7.308105e-01
  2.996136e+01    7.234607e-01
  2.997724e+01    7.218829e-01
  2.999312e+01    7.315251e-01
  3.000899e+01    7.145083e-01
  3.002487e+01    7.186078e-01
  3.004074e+01    7.415099e-01
  3.005662e+01    7.423539e-01
  3.007249e+01    7.094533e-01
  3.008837e+01    7.141005e-01
  3.010424e+01    7.189778e-01
  3.012012e+01    7.233229e-01
  3.013600e+01    7.180260e-01
  3.015187e+01    7.048122e-01
  3.016775e+01    7.258771e-01
  3.018362e+01    6.962742e-01
  3.019950e+01    7.122211e-01
  3.021537e+01    7.028002e-01
  3.023125e+01    6.987596e-01
  3.024712e+01    7.213719e-01
  3.026300e+01    7.196044e-01
  3.027888e+01    7.139558e-01
  3.029475e+01    7.262930e-01
  3.031063e+01    7.209334e-01
  3.032650e+01    7.150866e-01
  3.034238e+01    7.142868e-01
  3.035825e+01    7.038046e-01
  3.037413e+01    6.767119e-01
  3.039000e+01    6.956425e-01
  3.040588e+01    7.302541e-01
  3.042176e+01    7.057737e-01
  3.043763e+01    7.197688e-01
  3.045351e+01    7.172200e-01
  3.046938e+01    7.119812e-01
  3.048526e+01    7.027232e-01
  3.050113e+01    7.134599e-01
  3.051701e+01    6.999339e-01
  3.053288e+01    7.058256e-01
  3.054876e+01    7.173712e-01
  3.056464e+01    7.157274e-01
  3.058051e+01    6.966487e-01
  3.059639e+01    6.994747e-01
  3.061226e+01    7.208084e-01
  3.062814e+01    7.115517e-01
  3.064401e+01    6.913233e-01
  3.065989e+01    6.979125e-01
  3.067577e+01    7.003899e-01
  3.069164e+01    6.939678e-01
  3.070752e+01    6.892068e-01
  3.072339e+01    6.882524e-01
  3.073927e+01    6.948707e-01
  3.075514e+01    7.113824e-01
  3.077102e+01    7.302634e-01
  3.078689e+01    7.114680e-01
  3.080277e+01    7.052776e-01
  3.081865e+01    7.116801e-01
  3.083452e+01    7.115889e-01
  3.085040e+01    7.076654e-01
  3.086627e+01    7.033769e-01
  3.088215e+01    6.962444e-01
  3.089802e+01    7.077162e-01
  3.091390e+01    7.112548e-01
  3.092977e+01    7.145711e-01
  3.094565e+01    7.002620e-01
  3.096153e+01    6.903074e-01
  3.097740e+01    7.057524e-01
  3.099328e+01    7.212508e-01
  3.100915e+01    7.259747e-01
  3.102503e+01    6.992131e-01
  3.104090e+01    7.042866e-01
  3.105678e+01    7.208399e-01
  3.107265e+01    7.129174e-01
  3.108853e+01    7.228331e-01
  3.110441e+01    7.228264e-01
  3.112028e+01    7.098719e-01
  3.113616e+01    6.944355e-01
  3.115203e+01    7.047982e-01
  3.116791e+01    6.945770e-01
  3.118378e+01    6.958123e-01
  3.119966e+01    7.189485e-01
  3.121553e+01    7.068423e-01
  3.123141e+01    7.045259e-01
  3.124729e+01    7.354050e-01
  3.126316e+01    7.254856e-01
  3.127904e+01    7.335942e-01
  3.129491e+01    7.423860e-01
  3.131079e+01    7.162935e-01
  3.132666e+01    7.248062e-01
  3.134254e+01    7.243686e-01
  3.135841e+01    7.298185e-01
  3.137429e+01    7.331195e-01
  3.139017e+01    7.335475e-01
  3.140604e+01    7.523016e-01
  3.142192e+01    7.364841e-01
  3.143779e+01    7.356079e-01
  3.145367e+01    7.492540e-01
  3.146954e+01    7.605633e-01
  3.148542e+01    7.580736e-01
  3.150129e+01    7.608436e-01
  3.151717e+01    7.617320e-01
  3.153305e+01    7.606090e-01
  3.154892e+01    7.773107e-01
  3.156480e+01    7.814589e-01
  3.158067e+01    7.687896e-01
  3.159655e+01    8.312359e-01
  3.161242e+01    8.441082e-01
  3.162830e+01    8.473867e-01
  3.164418e+01    8.347133e-01
  3.166005e+01    8.536548e-01
  3.167593e+01    8.697120e-01
  3.169180e+01    9.006648e-01
  3.170768e+01    9.269941e-01
  3.172355e+01    9.712083e-01
  3.173943e+01    1.035512e+00
  3.175530e+01    1.094108e+00
  3.177118e+01    1.152897e+00
  3.178706e+01    1.226216e+00
  3.180293e+01    1.306610e+00
  3.181881e+01    1.383734e+00
  3.183468e+01    1.571719e+00
  3.185056e+01    1.748858e+00
  3.186643e+01    1.897206e+00
  3.188231e+01    2.063086e+00
  3.189818e+01    2.183577e+00
  3.191406e+01    2.253447e+00
  3.192994e+01    2.276650e+00
  3.194581e+01    2.286193e+00
  3.196169e+01    2.213134e+00
  3.197756e+01    2.033607e+00
  3.199344e+01    1.868704e+00
  3.200931e+01    1.691025e+00
  3.202519e+01    1.531248e+00
  3.204106e+01    1.422630e+00
  3.205694e+01    1.296610e+00
  3.207282e+01    1.181181e+00
  3.208869e+01    1.107750e+00
  3.210457e+01    1.036512e+00
  3.212044e+01    1.005246e+00
  3.213632e+01    9.528476e-01
  3.215219e+01    9.235708e-01
  3.216807e+01    8.931293e-01
  3.218394e+01    8.918374e-01
  3.219982e+01    8.397694e-01
  3.221570e+01    8.165998e-01
  3.223157e+01    8.316647e-01
  3.224745e+01    8.039639e-01
  3.226332e+01    7.885754e-01
  3.227920e+01    7.696952e-01
  3.229507e+01    7.484105e-01
  3.231095e+01    7.714765e-01
  3.232682e+01    7.653611e-01
  3.234270e+01    7.507669e-01
  3.235858e+01    7.515723e-01
  3.237445e+01    7.380856e-01
  3.239033e+01    7.474013e-01
  3.240620e+01    7.165718e-01
  3.242208e+01    7.408575e-01
  3.243795e+01    7.294202e-01
  3.245383e+01    7.494098e-01
  3.246970e+01    7.494819e-01
  3.248558e+01    7.250911e-01
  3.250146e+01    7.242390e-01
  3.251733e+01    7.314766e-01
  3.253321e+01    7.255983e-01
  3.254908e+01    7.054263e-01
