# == pyFAI calibration ==
# Distance Sample to Detector: 0.3999999939076516 m
# PONI: 9.750e-02, 1.135e-01 m
# Rotations: -0.000175 0.000000 -0.000000 rad
# 
# == Fit2d calibration ==
# Distance Sample-beamCenter: 400.000 mm
# Center: x=1514.000, y=1300.000 pix
# Tilt: 0.010 deg  TiltPlanRot: 0.010 deg
# 
# Detector Detector	 Spline= None	 PixelSize= 7.500e-05, 7.500e-05 m
#    Detector has a mask: False 
#    Detector has a dark current: False 
#    detector has a flat field: False 
# 
# Wavelength: 6.888e-11 m
# Mask applied: user provided
# Dark current applied: False
# Flat field applied: False
# Polarization factor: 0.99
# Normalization factor: 1.0
# --> /home/myspot/data/2024_07_Rosario/Ru-CGO-ex/2024-07-27_002_Ru-CGO-ex_Activtation_ramp_000002_data_000047.dat
#       q_nm^-1             I 
  2.003187e-02    0.000000e+00
  3.590745e-02    1.058876e-01
  5.178302e-02    1.655737e-01
  6.765859e-02    4.965136e-02
  8.353417e-02    8.526725e-02
  9.940974e-02    7.347107e-02
  1.152853e-01    1.238894e-01
  1.311609e-01    1.374742e-01
  1.470365e-01    2.848842e-02
  1.629120e-01    4.955753e-02
  1.787876e-01    1.622227e-02
  1.946632e-01    1.837104e-02
  2.105388e-01    6.627711e-02
  2.264143e-01    4.622601e-02
  2.422899e-01    3.856357e-02
  2.581655e-01    1.099818e-02
  2.740411e-01    2.863573e-02
  2.899166e-01    3.449292e-02
  3.057922e-01    5.378921e-02
  3.216678e-01    1.882819e-02
  3.375433e-01    2.010157e-02
  3.534189e-01    2.364720e-02
  3.692945e-01    6.558279e-02
  3.851701e-01    3.672039e-02
  4.010456e-01    1.954253e-02
  4.169212e-01    1.585428e-02
  4.327968e-01    2.884984e-02
  4.486724e-01    2.253291e-02
  4.645479e-01    2.270444e-02
  4.804235e-01    1.554019e-02
  4.962991e-01    2.113359e-02
  5.121747e-01    4.684355e-02
  5.280502e-01    3.321019e-02
  5.439258e-01    2.464797e-02
  5.598014e-01    1.983268e-02
  5.756770e-01    2.811807e-02
  5.915525e-01    4.740730e-02
  6.074281e-01    2.903092e-02
  6.233037e-01    3.122544e-02
  6.391793e-01    4.253072e-02
  6.550548e-01    5.380108e-02
  6.709304e-01    4.653252e-02
  6.868060e-01    4.773832e-02
  7.026815e-01    4.566860e-02
  7.185571e-01    4.458087e-02
  7.344327e-01    3.269787e-02
  7.503083e-01    2.743571e-02
  7.661838e-01    8.844429e-02
  7.820594e-01    1.248468e-01
  7.979350e-01    1.661519e-01
  8.138106e-01    2.220410e-01
  8.296861e-01    2.626201e-01
  8.455617e-01    2.913546e-01
  8.614373e-01    3.610404e-01
  8.773129e-01    3.551927e-01
  8.931884e-01    4.532504e-01
  9.090640e-01    6.115608e-01
  9.249396e-01    6.736962e-01
  9.408152e-01    6.162797e-01
  9.566907e-01    8.080891e-01
  9.725663e-01    9.001103e-01
  9.884419e-01    8.581464e-01
  1.004317e+00    1.024969e+00
  1.020193e+00    1.151970e+00
  1.036069e+00    1.153561e+00
  1.051944e+00    1.221786e+00
  1.067820e+00    1.364880e+00
  1.083695e+00    1.456170e+00
  1.099571e+00    1.392712e+00
  1.115446e+00    1.424277e+00
  1.131322e+00    1.512403e+00
  1.147198e+00    1.569334e+00
  1.163073e+00    1.547718e+00
  1.178949e+00    1.503483e+00
  1.194824e+00    1.709769e+00
  1.210700e+00    2.013503e+00
  1.226575e+00    2.083611e+00
  1.242451e+00    2.286102e+00
  1.258327e+00    2.290075e+00
  1.274202e+00    2.487849e+00
  1.290078e+00    2.638472e+00
  1.305953e+00    2.649449e+00
  1.321829e+00    2.600912e+00
  1.337705e+00    2.639561e+00
  1.353580e+00    2.609982e+00
  1.369456e+00    2.484478e+00
  1.385331e+00    2.590581e+00
  1.401207e+00    2.777449e+00
  1.417082e+00    2.757195e+00
  1.432958e+00    2.695734e+00
  1.448834e+00    2.872372e+00
  1.464709e+00    2.804171e+00
  1.480585e+00    2.844352e+00
  1.496460e+00    2.999483e+00
  1.512336e+00    3.142168e+00
  1.528211e+00    3.043940e+00
  1.544087e+00    3.068445e+00
  1.559963e+00    3.025843e+00
  1.575838e+00    2.978988e+00
  1.591714e+00    3.074814e+00
  1.607589e+00    3.029072e+00
  1.623465e+00    3.065743e+00
  1.639340e+00    2.908825e+00
  1.655216e+00    2.921126e+00
  1.671092e+00    2.912176e+00
  1.686967e+00    2.900218e+00
  1.702843e+00    2.836980e+00
  1.718718e+00    2.853696e+00
  1.734594e+00    2.739215e+00
  1.750469e+00    2.809943e+00
  1.766345e+00    2.938394e+00
  1.782221e+00    2.912020e+00
  1.798096e+00    2.922446e+00
  1.813972e+00    2.864650e+00
  1.829847e+00    2.788014e+00
  1.845723e+00    2.724211e+00
  1.861598e+00    2.819539e+00
  1.877474e+00    2.748718e+00
  1.893350e+00    2.724559e+00
  1.909225e+00    2.775819e+00
  1.925101e+00    2.852580e+00
  1.940976e+00    2.885701e+00
  1.956852e+00    2.871811e+00
  1.972727e+00    2.661168e+00
  1.988603e+00    2.766755e+00
  2.004479e+00    2.784473e+00
  2.020354e+00    2.809535e+00
  2.036230e+00    2.827776e+00
  2.052105e+00    2.804857e+00
  2.067981e+00    2.797574e+00
  2.083856e+00    2.732657e+00
  2.099732e+00    2.773306e+00
  2.115608e+00    2.813623e+00
  2.131483e+00    2.768831e+00
  2.147359e+00    2.751215e+00
  2.163234e+00    2.802095e+00
  2.179110e+00    2.835076e+00
  2.194985e+00    2.857596e+00
  2.210861e+00    2.878940e+00
  2.226737e+00    2.864905e+00
  2.242612e+00    2.823343e+00
  2.258488e+00    2.701171e+00
  2.274363e+00    2.819682e+00
  2.290239e+00    2.917542e+00
  2.306115e+00    2.812952e+00
  2.321990e+00    2.790479e+00
  2.337866e+00    2.708820e+00
  2.353741e+00    2.831371e+00
  2.369617e+00    2.827389e+00
  2.385492e+00    2.878967e+00
  2.401368e+00    2.876048e+00
  2.417244e+00    2.732728e+00
  2.433119e+00    2.726154e+00
  2.448995e+00    2.883803e+00
  2.464870e+00    2.841595e+00
  2.480746e+00    2.795132e+00
  2.496621e+00    2.833639e+00
  2.512497e+00    2.853360e+00
  2.528373e+00    2.918141e+00
  2.544248e+00    2.811038e+00
  2.560124e+00    2.832985e+00
  2.575999e+00    3.006029e+00
  2.591875e+00    2.818245e+00
  2.607750e+00    2.814743e+00
  2.623626e+00    2.827670e+00
  2.639502e+00    2.823517e+00
  2.655377e+00    2.803699e+00
  2.671253e+00    2.835407e+00
  2.687128e+00    2.884403e+00
  2.703004e+00    2.843604e+00
  2.718879e+00    2.932410e+00
  2.734755e+00    2.808051e+00
  2.750631e+00    2.743278e+00
  2.766506e+00    2.746970e+00
  2.782382e+00    2.875027e+00
  2.798257e+00    2.888588e+00
  2.814133e+00    2.840975e+00
  2.830008e+00    2.902695e+00
  2.845884e+00    2.842000e+00
  2.861760e+00    2.919208e+00
  2.877635e+00    2.947380e+00
  2.893511e+00    2.896306e+00
  2.909386e+00    2.894214e+00
  2.925262e+00    2.954688e+00
  2.941137e+00    2.893759e+00
  2.957013e+00    2.872855e+00
  2.972889e+00    2.908485e+00
  2.988764e+00    2.890477e+00
  3.004640e+00    2.939814e+00
  3.020515e+00    2.891143e+00
  3.036391e+00    2.973706e+00
  3.052266e+00    2.981114e+00
  3.068142e+00    2.894992e+00
  3.084018e+00    2.919945e+00
  3.099893e+00    2.918189e+00
  3.115769e+00    2.942031e+00
  3.131644e+00    2.947151e+00
  3.147520e+00    2.923086e+00
  3.163395e+00    2.897263e+00
  3.179271e+00    2.895367e+00
  3.195147e+00    2.935407e+00
  3.211022e+00    2.957911e+00
  3.226898e+00    2.897611e+00
  3.242773e+00    2.905282e+00
  3.258649e+00    2.816082e+00
  3.274525e+00    2.897319e+00
  3.290400e+00    2.940606e+00
  3.306276e+00    2.967297e+00
  3.322151e+00    2.969684e+00
  3.338027e+00    2.906480e+00
  3.353902e+00    2.933175e+00
  3.369778e+00    2.923543e+00
  3.385654e+00    2.928793e+00
  3.401529e+00    2.935459e+00
  3.417405e+00    2.903333e+00
  3.433280e+00    2.959452e+00
  3.449156e+00    2.945830e+00
  3.465031e+00    2.987849e+00
  3.480907e+00    2.919427e+00
  3.496783e+00    2.908794e+00
  3.512658e+00    2.946833e+00
  3.528534e+00    2.991286e+00
  3.544409e+00    2.980644e+00
  3.560285e+00    2.988953e+00
  3.576160e+00    3.125217e+00
  3.592036e+00    3.043377e+00
  3.607912e+00    2.976334e+00
  3.623787e+00    2.965256e+00
  3.639663e+00    2.955917e+00
  3.655538e+00    3.034234e+00
  3.671414e+00    3.049001e+00
  3.687289e+00    2.991960e+00
  3.703165e+00    2.971426e+00
  3.719041e+00    2.963211e+00
  3.734916e+00    2.879747e+00
  3.750792e+00    2.869156e+00
  3.766667e+00    2.913205e+00
  3.782543e+00    2.932586e+00
  3.798418e+00    3.023263e+00
  3.814294e+00    3.038351e+00
  3.830170e+00    3.031183e+00
  3.846045e+00    3.044686e+00
  3.861921e+00    3.149465e+00
  3.877796e+00    3.070933e+00
  3.893672e+00    3.073027e+00
  3.909547e+00    2.923530e+00
  3.925423e+00    2.940481e+00
  3.941299e+00    2.934296e+00
  3.957174e+00    3.053723e+00
  3.973050e+00    3.018838e+00
  3.988925e+00    3.007387e+00
  4.004801e+00    3.039651e+00
  4.020676e+00    2.920207e+00
  4.036552e+00    2.956002e+00
  4.052428e+00    3.006483e+00
  4.068303e+00    2.961372e+00
  4.084179e+00    3.005427e+00
  4.100054e+00    2.942458e+00
  4.115930e+00    2.986076e+00
  4.131806e+00    3.027642e+00
  4.147681e+00    3.020957e+00
  4.163557e+00    3.037638e+00
  4.179432e+00    2.978176e+00
  4.195308e+00    3.032055e+00
  4.211183e+00    3.042667e+00
  4.227059e+00    3.032091e+00
  4.242935e+00    3.053390e+00
  4.258810e+00    3.052060e+00
  4.274686e+00    3.055128e+00
  4.290561e+00    2.935509e+00
  4.306437e+00    2.920066e+00
  4.322312e+00    3.023336e+00
  4.338188e+00    3.059503e+00
  4.354064e+00    3.065125e+00
  4.369939e+00    3.071297e+00
  4.385815e+00    3.026304e+00
  4.401690e+00    3.098911e+00
  4.417566e+00    3.032215e+00
  4.433441e+00    2.994166e+00
  4.449317e+00    3.049402e+00
  4.465193e+00    3.018213e+00
  4.481068e+00    2.964535e+00
  4.496944e+00    3.070915e+00
  4.512819e+00    3.112840e+00
  4.528695e+00    3.078553e+00
  4.544570e+00    3.057937e+00
  4.560446e+00    3.071415e+00
  4.576322e+00    3.034781e+00
  4.592197e+00    2.979496e+00
  4.608073e+00    3.037449e+00
  4.623948e+00    3.068729e+00
  4.639824e+00    3.128447e+00
  4.655699e+00    3.076273e+00
  4.671575e+00    3.154562e+00
  4.687451e+00    3.087459e+00
  4.703326e+00    3.080760e+00
  4.719202e+00    3.109128e+00
  4.735077e+00    3.340959e+00
  4.750953e+00    3.189650e+00
  4.766828e+00    3.098813e+00
  4.782704e+00    3.136759e+00
  4.798580e+00    3.086749e+00
  4.814455e+00    3.112279e+00
  4.830331e+00    3.102202e+00
  4.846206e+00    3.094696e+00
  4.862082e+00    3.168613e+00
  4.877957e+00    3.063609e+00
  4.893833e+00    3.118510e+00
  4.909709e+00    3.152218e+00
  4.925584e+00    3.092824e+00
  4.941460e+00    3.138069e+00
  4.957335e+00    3.102677e+00
  4.973211e+00    3.125742e+00
  4.989086e+00    3.193863e+00
  5.004962e+00    3.146162e+00
  5.020838e+00    3.095181e+00
  5.036713e+00    3.148091e+00
  5.052589e+00    3.187030e+00
  5.068464e+00    3.165955e+00
  5.084340e+00    3.159820e+00
  5.100216e+00    3.113463e+00
  5.116091e+00    3.144807e+00
  5.131967e+00    3.191706e+00
  5.147842e+00    3.196168e+00
  5.163718e+00    3.172188e+00
  5.179593e+00    3.119812e+00
  5.195469e+00    3.163855e+00
  5.211345e+00    3.157672e+00
  5.227220e+00    3.174598e+00
  5.243096e+00    3.117464e+00
  5.258971e+00    3.033290e+00
  5.274847e+00    3.094251e+00
  5.290722e+00    3.114119e+00
  5.306598e+00    3.136953e+00
  5.322474e+00    3.136893e+00
  5.338349e+00    3.108749e+00
  5.354225e+00    3.197384e+00
  5.370100e+00    3.047524e+00
  5.385976e+00    3.032895e+00
  5.401851e+00    3.033811e+00
  5.417727e+00    3.039122e+00
  5.433603e+00    3.036707e+00
  5.449478e+00    3.056313e+00
  5.465354e+00    3.097972e+00
  5.481229e+00    3.076869e+00
  5.497105e+00    3.104302e+00
  5.512980e+00    3.112839e+00
  5.528856e+00    3.103226e+00
  5.544732e+00    3.108951e+00
  5.560607e+00    3.065488e+00
  5.576483e+00    2.985208e+00
  5.592358e+00    2.984042e+00
  5.608234e+00    3.009663e+00
  5.624109e+00    3.012668e+00
  5.639985e+00    3.083442e+00
  5.655861e+00    3.068443e+00
  5.671736e+00    3.083931e+00
  5.687612e+00    3.114316e+00
  5.703487e+00    3.065267e+00
  5.719363e+00    3.040204e+00
  5.735238e+00    3.048240e+00
  5.751114e+00    3.027810e+00
  5.766990e+00    3.008802e+00
  5.782865e+00    3.058657e+00
  5.798741e+00    2.998341e+00
  5.814616e+00    3.016963e+00
  5.830492e+00    3.087942e+00
  5.846367e+00    3.059785e+00
  5.862243e+00    3.025745e+00
  5.878119e+00    3.071984e+00
  5.893994e+00    3.099861e+00
  5.909870e+00    3.042752e+00
  5.925745e+00    3.030972e+00
  5.941621e+00    3.095666e+00
  5.957497e+00    3.105163e+00
  5.973372e+00    3.084119e+00
  5.989248e+00    3.066932e+00
  6.005123e+00    3.021466e+00
  6.020999e+00    3.022249e+00
  6.036874e+00    3.043479e+00
  6.052750e+00    3.034443e+00
  6.068626e+00    3.086517e+00
  6.084501e+00    3.097636e+00
  6.100377e+00    3.115943e+00
  6.116252e+00    3.093394e+00
  6.132128e+00    3.059242e+00
  6.148003e+00    3.067233e+00
  6.163879e+00    3.064691e+00
  6.179755e+00    3.073407e+00
  6.195630e+00    3.056138e+00
  6.211506e+00    3.097024e+00
  6.227381e+00    3.052154e+00
  6.243257e+00    3.083013e+00
  6.259132e+00    3.059978e+00
  6.275008e+00    3.028795e+00
  6.290884e+00    3.028072e+00
  6.306759e+00    3.029496e+00
  6.322635e+00    3.073282e+00
  6.338510e+00    3.023051e+00
  6.354386e+00    3.009351e+00
  6.370261e+00    3.091398e+00
  6.386137e+00    3.066830e+00
  6.402013e+00    3.092373e+00
  6.417888e+00    3.052860e+00
  6.433764e+00    2.963373e+00
  6.449639e+00    2.985883e+00
  6.465515e+00    3.025948e+00
  6.481390e+00    3.041996e+00
  6.497266e+00    3.016227e+00
  6.513142e+00    3.069456e+00
  6.529017e+00    3.075628e+00
  6.544893e+00    3.022513e+00
  6.560768e+00    3.004384e+00
  6.576644e+00    2.974702e+00
  6.592519e+00    3.026663e+00
  6.608395e+00    3.025050e+00
  6.624271e+00    3.051373e+00
  6.640146e+00    2.990547e+00
  6.656022e+00    2.991638e+00
  6.671897e+00    3.064517e+00
  6.687773e+00    3.007105e+00
  6.703648e+00    3.045369e+00
  6.719524e+00    2.979063e+00
  6.735400e+00    2.986544e+00
  6.751275e+00    3.062262e+00
  6.767151e+00    3.024482e+00
  6.783026e+00    3.075708e+00
  6.798902e+00    3.097870e+00
  6.814777e+00    3.047894e+00
  6.830653e+00    3.018367e+00
  6.846529e+00    3.048024e+00
  6.862404e+00    3.040208e+00
  6.878280e+00    2.992315e+00
  6.894155e+00    2.990983e+00
  6.910031e+00    3.041004e+00
  6.925907e+00    3.039961e+00
  6.941782e+00    3.058254e+00
  6.957658e+00    3.031713e+00
  6.973533e+00    3.010713e+00
  6.989409e+00    2.988232e+00
  7.005284e+00    3.066189e+00
  7.021160e+00    3.071302e+00
  7.037036e+00    3.018722e+00
  7.052911e+00    3.015454e+00
  7.068787e+00    3.006813e+00
  7.084662e+00    2.988484e+00
  7.100538e+00    3.059814e+00
  7.116413e+00    3.065949e+00
  7.132289e+00    2.993319e+00
  7.148165e+00    3.036063e+00
  7.164040e+00    3.008837e+00
  7.179916e+00    2.976503e+00
  7.195791e+00    3.028758e+00
  7.211667e+00    3.101455e+00
  7.227542e+00    3.040320e+00
  7.243418e+00    3.016195e+00
  7.259294e+00    2.989074e+00
  7.275169e+00    3.002341e+00
  7.291045e+00    3.035135e+00
  7.306920e+00    2.991956e+00
  7.322796e+00    2.912877e+00
  7.338671e+00    2.991976e+00
  7.354547e+00    3.014524e+00
  7.370423e+00    3.003794e+00
  7.386298e+00    3.024230e+00
  7.402174e+00    2.978250e+00
  7.418049e+00    2.942094e+00
  7.433925e+00    2.911454e+00
  7.449800e+00    2.917764e+00
  7.465676e+00    2.972268e+00
  7.481552e+00    3.008879e+00
  7.497427e+00    2.935921e+00
  7.513303e+00    2.994361e+00
  7.529178e+00    2.969194e+00
  7.545054e+00    2.904189e+00
  7.560929e+00    2.929457e+00
  7.576805e+00    2.921541e+00
  7.592681e+00    2.942134e+00
  7.608556e+00    2.950942e+00
  7.624432e+00    2.961707e+00
  7.640307e+00    2.943779e+00
  7.656183e+00    2.960767e+00
  7.672058e+00    2.953472e+00
  7.687934e+00    2.980031e+00
  7.703810e+00    2.995824e+00
  7.719685e+00    2.950762e+00
  7.735561e+00    2.934728e+00
  7.751436e+00    2.950220e+00
  7.767312e+00    2.955742e+00
  7.783187e+00    2.928164e+00
  7.799063e+00    2.963703e+00
  7.814939e+00    2.930199e+00
  7.830814e+00    2.924094e+00
  7.846690e+00    2.961304e+00
  7.862565e+00    2.962422e+00
  7.878441e+00    2.919013e+00
  7.894317e+00    2.915508e+00
  7.910192e+00    2.908549e+00
  7.926068e+00    2.875402e+00
  7.941943e+00    2.965932e+00
  7.957819e+00    2.997920e+00
  7.973694e+00    2.945070e+00
  7.989570e+00    2.871788e+00
  8.005446e+00    2.864499e+00
  8.021321e+00    2.957836e+00
  8.037197e+00    2.964351e+00
  8.053072e+00    2.928381e+00
  8.068948e+00    2.851131e+00
  8.084823e+00    2.896415e+00
  8.100699e+00    2.979367e+00
  8.116575e+00    3.000539e+00
  8.132450e+00    2.987876e+00
  8.148326e+00    2.979262e+00
  8.164201e+00    2.909790e+00
  8.180077e+00    2.890194e+00
  8.195952e+00    2.870579e+00
  8.211828e+00    2.920882e+00
  8.227704e+00    2.905995e+00
  8.243579e+00    2.902312e+00
  8.259455e+00    2.968210e+00
  8.275330e+00    2.891380e+00
  8.291206e+00    2.911340e+00
  8.307081e+00    2.876785e+00
  8.322957e+00    2.908977e+00
  8.338833e+00    2.975167e+00
  8.354708e+00    2.961059e+00
  8.370584e+00    2.906520e+00
  8.386459e+00    2.908465e+00
  8.402335e+00    2.847523e+00
  8.418210e+00    2.839764e+00
  8.434086e+00    2.894963e+00
  8.449962e+00    2.871950e+00
  8.465837e+00    2.925259e+00
  8.481713e+00    2.931665e+00
  8.497588e+00    2.943093e+00
  8.513464e+00    2.939982e+00
  8.529339e+00    2.886099e+00
  8.545215e+00    2.852924e+00
  8.561091e+00    2.836405e+00
  8.576966e+00    2.889584e+00
  8.592842e+00    2.845526e+00
  8.608717e+00    2.862443e+00
  8.624593e+00    2.926071e+00
  8.640468e+00    2.892219e+00
  8.656344e+00    2.805685e+00
  8.672220e+00    2.810318e+00
  8.688095e+00    2.853732e+00
  8.703971e+00    2.851933e+00
  8.719846e+00    2.874824e+00
  8.735722e+00    2.824548e+00
  8.751598e+00    2.800062e+00
  8.767473e+00    2.845972e+00
  8.783349e+00    2.861561e+00
  8.799224e+00    2.875541e+00
  8.815100e+00    2.782002e+00
  8.830975e+00    2.769903e+00
  8.846851e+00    2.877877e+00
  8.862727e+00    2.885732e+00
  8.878602e+00    2.829183e+00
  8.894478e+00    2.825252e+00
  8.910353e+00    2.828338e+00
  8.926229e+00    2.865735e+00
  8.942104e+00    2.854918e+00
  8.957980e+00    2.761688e+00
  8.973856e+00    2.794964e+00
  8.989731e+00    2.806812e+00
  9.005607e+00    2.886471e+00
  9.021482e+00    2.878124e+00
  9.037358e+00    2.857768e+00
  9.053233e+00    2.813540e+00
  9.069109e+00    2.847153e+00
  9.084985e+00    2.838975e+00
  9.100860e+00    2.889467e+00
  9.116736e+00    2.852841e+00
  9.132611e+00    2.862166e+00
  9.148487e+00    2.831198e+00
  9.164362e+00    2.758816e+00
  9.180238e+00    2.844891e+00
  9.196114e+00    2.769962e+00
  9.211989e+00    2.787318e+00
  9.227865e+00    2.770273e+00
  9.243740e+00    2.794860e+00
  9.259616e+00    2.784938e+00
  9.275491e+00    2.815266e+00
  9.291367e+00    2.746941e+00
  9.307243e+00    2.795628e+00
  9.323118e+00    2.782568e+00
  9.338994e+00    2.734564e+00
  9.354869e+00    2.718974e+00
  9.370745e+00    2.727844e+00
  9.386620e+00    2.803058e+00
  9.402496e+00    2.816551e+00
  9.418372e+00    2.785617e+00
  9.434247e+00    2.769311e+00
  9.450123e+00    2.754755e+00
  9.465998e+00    2.742724e+00
  9.481874e+00    2.756815e+00
  9.497749e+00    2.748946e+00
  9.513625e+00    2.761917e+00
  9.529501e+00    2.778006e+00
  9.545376e+00    2.708915e+00
  9.561252e+00    2.790478e+00
  9.577127e+00    2.714032e+00
  9.593003e+00    2.743045e+00
  9.608878e+00    2.759097e+00
  9.624754e+00    2.778519e+00
  9.640630e+00    2.776469e+00
  9.656505e+00    2.771601e+00
  9.672381e+00    2.734517e+00
  9.688256e+00    2.745270e+00
  9.704132e+00    2.739542e+00
  9.720008e+00    2.754034e+00
  9.735883e+00    2.770375e+00
  9.751759e+00    2.768174e+00
  9.767634e+00    2.794211e+00
  9.783510e+00    2.734565e+00
  9.799385e+00    2.716238e+00
  9.815261e+00    2.707470e+00
  9.831137e+00    2.697739e+00
  9.847012e+00    2.702734e+00
  9.862888e+00    2.645336e+00
  9.878763e+00    2.626790e+00
  9.894639e+00    2.677492e+00
  9.910514e+00    2.673975e+00
  9.926390e+00    2.690555e+00
  9.942266e+00    2.652901e+00
  9.958141e+00    2.683209e+00
  9.974017e+00    2.690173e+00
  9.989892e+00    2.665082e+00
  1.000577e+01    2.744341e+00
  1.002164e+01    2.730844e+00
  1.003752e+01    2.733367e+00
  1.005339e+01    2.651250e+00
  1.006927e+01    2.586176e+00
  1.008515e+01    2.635115e+00
  1.010102e+01    2.651507e+00
  1.011690e+01    2.623663e+00
  1.013277e+01    2.622270e+00
  1.014865e+01    2.682916e+00
  1.016452e+01    2.704455e+00
  1.018040e+01    2.648277e+00
  1.019627e+01    2.673385e+00
  1.021215e+01    2.691468e+00
  1.022803e+01    2.658218e+00
  1.024390e+01    2.642186e+00
  1.025978e+01    2.661070e+00
  1.027565e+01    2.646318e+00
  1.029153e+01    2.602026e+00
  1.030740e+01    2.628980e+00
  1.032328e+01    2.558821e+00
  1.033915e+01    2.570797e+00
  1.035503e+01    2.565189e+00
  1.037091e+01    2.603106e+00
  1.038678e+01    2.637022e+00
  1.040266e+01    2.625997e+00
  1.041853e+01    2.614871e+00
  1.043441e+01    2.612790e+00
  1.045028e+01    2.628206e+00
  1.046616e+01    2.547197e+00
  1.048204e+01    2.598003e+00
  1.049791e+01    2.598204e+00
  1.051379e+01    2.576701e+00
  1.052966e+01    2.579535e+00
  1.054554e+01    2.595594e+00
  1.056141e+01    2.534714e+00
  1.057729e+01    2.566966e+00
  1.059316e+01    2.569749e+00
  1.060904e+01    2.566493e+00
  1.062492e+01    2.563357e+00
  1.064079e+01    2.584209e+00
  1.065667e+01    2.555871e+00
  1.067254e+01    2.555724e+00
  1.068842e+01    2.549393e+00
  1.070429e+01    2.526927e+00
  1.072017e+01    2.524634e+00
  1.073604e+01    2.546143e+00
  1.075192e+01    2.537570e+00
  1.076780e+01    2.531231e+00
  1.078367e+01    2.516336e+00
  1.079955e+01    2.522370e+00
  1.081542e+01    2.543660e+00
  1.083130e+01    2.528383e+00
  1.084717e+01    2.505538e+00
  1.086305e+01    2.508300e+00
  1.087892e+01    2.506974e+00
  1.089480e+01    2.466842e+00
  1.091068e+01    2.515530e+00
  1.092655e+01    2.536875e+00
  1.094243e+01    2.514207e+00
  1.095830e+01    2.492502e+00
  1.097418e+01    2.456339e+00
  1.099005e+01    2.479727e+00
  1.100593e+01    2.493338e+00
  1.102180e+01    2.543422e+00
  1.103768e+01    2.471526e+00
  1.105356e+01    2.511270e+00
  1.106943e+01    2.499993e+00
  1.108531e+01    2.488507e+00
  1.110118e+01    2.455233e+00
  1.111706e+01    2.500299e+00
  1.113293e+01    2.431447e+00
  1.114881e+01    2.470037e+00
  1.116468e+01    2.436179e+00
  1.118056e+01    2.387680e+00
  1.119644e+01    2.422960e+00
  1.121231e+01    2.435822e+00
  1.122819e+01    2.441354e+00
  1.124406e+01    2.467150e+00
  1.125994e+01    2.417192e+00
  1.127581e+01    2.412553e+00
  1.129169e+01    2.393177e+00
  1.130756e+01    2.380175e+00
  1.132344e+01    2.396758e+00
  1.133932e+01    2.420405e+00
  1.135519e+01    2.448052e+00
  1.137107e+01    2.440284e+00
  1.138694e+01    2.370091e+00
  1.140282e+01    2.374864e+00
  1.141869e+01    2.379225e+00
  1.143457e+01    2.407876e+00
  1.145045e+01    2.446927e+00
  1.146632e+01    2.486892e+00
  1.148220e+01    2.442692e+00
  1.149807e+01    2.439008e+00
  1.151395e+01    2.394425e+00
  1.152982e+01    2.402013e+00
  1.154570e+01    2.398716e+00
  1.156157e+01    2.389931e+00
  1.157745e+01    2.366127e+00
  1.159333e+01    2.413947e+00
  1.160920e+01    2.366649e+00
  1.162508e+01    2.377489e+00
  1.164095e+01    2.389316e+00
  1.165683e+01    2.420796e+00
  1.167270e+01    2.419158e+00
  1.168858e+01    2.380090e+00
  1.170445e+01    2.341990e+00
  1.172033e+01    2.362320e+00
  1.173621e+01    2.354589e+00
  1.175208e+01    2.308060e+00
  1.176796e+01    2.345322e+00
  1.178383e+01    2.332277e+00
  1.179971e+01    2.394474e+00
  1.181558e+01    2.397692e+00
  1.183146e+01    2.415348e+00
  1.184733e+01    2.336290e+00
  1.186321e+01    2.352027e+00
  1.187909e+01    2.344513e+00
  1.189496e+01    2.346678e+00
  1.191084e+01    2.317492e+00
  1.192671e+01    2.353218e+00
  1.194259e+01    2.329973e+00
  1.195846e+01    2.352167e+00
  1.197434e+01    2.340837e+00
  1.199021e+01    2.337540e+00
  1.200609e+01    2.341161e+00
  1.202197e+01    2.338758e+00
  1.203784e+01    2.318416e+00
  1.205372e+01    2.340328e+00
  1.206959e+01    2.365215e+00
  1.208547e+01    2.365697e+00
  1.210134e+01    2.342271e+00
  1.211722e+01    2.311427e+00
  1.213309e+01    2.399742e+00
  1.214897e+01    2.354376e+00
  1.216485e+01    2.280233e+00
  1.218072e+01    2.331018e+00
  1.219660e+01    2.305476e+00
  1.221247e+01    2.293187e+00
  1.222835e+01    2.333098e+00
  1.224422e+01    2.360586e+00
  1.226010e+01    2.362108e+00
  1.227597e+01    2.295234e+00
  1.229185e+01    2.320599e+00
  1.230773e+01    2.400692e+00
  1.232360e+01    2.338395e+00
  1.233948e+01    2.314655e+00
  1.235535e+01    2.280047e+00
  1.237123e+01    2.363947e+00
  1.238710e+01    2.329826e+00
  1.240298e+01    2.352375e+00
  1.241886e+01    2.339480e+00
  1.243473e+01    2.344688e+00
  1.245061e+01    2.333860e+00
  1.246648e+01    2.348454e+00
  1.248236e+01    2.335524e+00
  1.249823e+01    2.395084e+00
  1.251411e+01    2.398873e+00
  1.252998e+01    2.369023e+00
  1.254586e+01    2.354239e+00
  1.256174e+01    2.390009e+00
  1.257761e+01    2.405517e+00
  1.259349e+01    2.405024e+00
  1.260936e+01    2.424389e+00
  1.262524e+01    2.430173e+00
  1.264111e+01    2.436082e+00
  1.265699e+01    2.433533e+00
  1.267286e+01    2.452506e+00
  1.268874e+01    2.465145e+00
  1.270462e+01    2.496370e+00
  1.272049e+01    2.525283e+00
  1.273637e+01    2.546588e+00
  1.275224e+01    2.564604e+00
  1.276812e+01    2.562769e+00
  1.278399e+01    2.587239e+00
  1.279987e+01    2.661926e+00
  1.281574e+01    2.746406e+00
  1.283162e+01    2.771202e+00
  1.284750e+01    2.883936e+00
  1.286337e+01    2.905688e+00
  1.287925e+01    3.012006e+00
  1.289512e+01    3.077214e+00
  1.291100e+01    3.236081e+00
  1.292687e+01    3.493736e+00
  1.294275e+01    3.738916e+00
  1.295862e+01    3.951844e+00
  1.297450e+01    4.358033e+00
  1.299038e+01    4.691689e+00
  1.300625e+01    5.213529e+00
  1.302213e+01    5.950444e+00
  1.303800e+01    6.845745e+00
  1.305388e+01    7.929125e+00
  1.306975e+01    9.207647e+00
  1.308563e+01    1.066156e+01
  1.310150e+01    1.212504e+01
  1.311738e+01    1.367714e+01
  1.313326e+01    1.512476e+01
  1.314913e+01    1.638598e+01
  1.316501e+01    1.775915e+01
  1.318088e+01    1.882511e+01
  1.319676e+01    1.920767e+01
  1.321263e+01    1.878005e+01
  1.322851e+01    1.729488e+01
  1.324438e+01    1.514239e+01
  1.326026e+01    1.280412e+01
  1.327614e+01    1.079350e+01
  1.329201e+01    9.052815e+00
  1.330789e+01    7.652585e+00
  1.332376e+01    6.580394e+00
  1.333964e+01    5.802042e+00
  1.335551e+01    5.183712e+00
  1.337139e+01    4.586279e+00
  1.338727e+01    4.219448e+00
  1.340314e+01    3.918414e+00
  1.341902e+01    3.691175e+00
  1.343489e+01    3.434641e+00
  1.345077e+01    3.225669e+00
  1.346664e+01    3.058707e+00
  1.348252e+01    2.945961e+00
  1.349839e+01    2.849074e+00
  1.351427e+01    2.702613e+00
  1.353015e+01    2.669753e+00
  1.354602e+01    2.646484e+00
  1.356190e+01    2.616516e+00
  1.357777e+01    2.572874e+00
  1.359365e+01    2.495354e+00
  1.360952e+01    2.491059e+00
  1.362540e+01    2.428171e+00
  1.364127e+01    2.372374e+00
  1.365715e+01    2.339096e+00
  1.367303e+01    2.344424e+00
  1.368890e+01    2.267915e+00
  1.370478e+01    2.239705e+00
  1.372065e+01    2.264079e+00
  1.373653e+01    2.232771e+00
  1.375240e+01    2.206109e+00
  1.376828e+01    2.234439e+00
  1.378415e+01    2.218455e+00
  1.380003e+01    2.222894e+00
  1.381591e+01    2.247433e+00
  1.383178e+01    2.190405e+00
  1.384766e+01    2.104789e+00
  1.386353e+01    2.114490e+00
  1.387941e+01    2.132911e+00
  1.389528e+01    2.134136e+00
  1.391116e+01    2.128434e+00
  1.392703e+01    2.093030e+00
  1.394291e+01    2.081377e+00
  1.395879e+01    2.106656e+00
  1.397466e+01    2.096965e+00
  1.399054e+01    2.051019e+00
  1.400641e+01    2.073204e+00
  1.402229e+01    2.088242e+00
  1.403816e+01    2.085829e+00
  1.405404e+01    2.079322e+00
  1.406991e+01    2.056975e+00
  1.408579e+01    2.044099e+00
  1.410167e+01    2.050209e+00
  1.411754e+01    2.049194e+00
  1.413342e+01    2.004578e+00
  1.414929e+01    2.002266e+00
  1.416517e+01    2.007002e+00
  1.418104e+01    2.018369e+00
  1.419692e+01    1.996697e+00
  1.421279e+01    1.982155e+00
  1.422867e+01    1.973779e+00
  1.424455e+01    1.996822e+00
  1.426042e+01    1.982462e+00
  1.427630e+01    1.947906e+00
  1.429217e+01    1.966180e+00
  1.430805e+01    1.982385e+00
  1.432392e+01    2.005840e+00
  1.433980e+01    1.959902e+00
  1.435568e+01    1.956951e+00
  1.437155e+01    1.967508e+00
  1.438743e+01    1.957963e+00
  1.440330e+01    1.933491e+00
  1.441918e+01    1.898114e+00
  1.443505e+01    1.926225e+00
  1.445093e+01    1.962946e+00
  1.446680e+01    1.975660e+00
  1.448268e+01    1.945571e+00
  1.449856e+01    1.959582e+00
  1.451443e+01    1.906045e+00
  1.453031e+01    1.895576e+00
  1.454618e+01    1.914523e+00
  1.456206e+01    1.965948e+00
  1.457793e+01    1.971673e+00
  1.459381e+01    1.926091e+00
  1.460968e+01    1.924408e+00
  1.462556e+01    1.950131e+00
  1.464144e+01    1.929237e+00
  1.465731e+01    1.911795e+00
  1.467319e+01    1.899336e+00
  1.468906e+01    1.883419e+00
  1.470494e+01    1.900309e+00
  1.472081e+01    1.872222e+00
  1.473669e+01    1.881463e+00
  1.475256e+01    1.909031e+00
  1.476844e+01    1.908691e+00
  1.478432e+01    1.934625e+00
  1.480019e+01    1.906004e+00
  1.481607e+01    1.944975e+00
  1.483194e+01    1.952878e+00
  1.484782e+01    1.962561e+00
  1.486369e+01    1.949431e+00
  1.487957e+01    1.960112e+00
  1.489544e+01    1.958503e+00
  1.491132e+01    1.985700e+00
  1.492720e+01    2.026484e+00
  1.494307e+01    1.993756e+00
  1.495895e+01    2.002524e+00
  1.497482e+01    2.055074e+00
  1.499070e+01    2.085723e+00
  1.500657e+01    2.099382e+00
  1.502245e+01    2.181690e+00
  1.503832e+01    2.279832e+00
  1.505420e+01    2.353260e+00
  1.507008e+01    2.438016e+00
  1.508595e+01    2.634000e+00
  1.510183e+01    2.782435e+00
  1.511770e+01    3.035059e+00
  1.513358e+01    3.333543e+00
  1.514945e+01    3.644800e+00
  1.516533e+01    4.008823e+00
  1.518120e+01    4.417092e+00
  1.519708e+01    4.875874e+00
  1.521296e+01    5.280041e+00
  1.522883e+01    5.615428e+00
  1.524471e+01    5.942387e+00
  1.526058e+01    6.225366e+00
  1.527646e+01    6.496272e+00
  1.529233e+01    6.417940e+00
  1.530821e+01    6.237252e+00
  1.532409e+01    5.917232e+00
  1.533996e+01    5.309292e+00
  1.535584e+01    4.703541e+00
  1.537171e+01    4.117284e+00
  1.538759e+01    3.641802e+00
  1.540346e+01    3.322380e+00
  1.541934e+01    2.994398e+00
  1.543521e+01    2.715894e+00
  1.545109e+01    2.551930e+00
  1.546697e+01    2.428249e+00
  1.548284e+01    2.317119e+00
  1.549872e+01    2.232541e+00
  1.551459e+01    2.105787e+00
  1.553047e+01    2.081875e+00
  1.554634e+01    2.021705e+00
  1.556222e+01    1.951555e+00
  1.557809e+01    1.905986e+00
  1.559397e+01    1.914177e+00
  1.560985e+01    1.883591e+00
  1.562572e+01    1.863701e+00
  1.564160e+01    1.848798e+00
  1.565747e+01    1.818687e+00
  1.567335e+01    1.797887e+00
  1.568922e+01    1.772313e+00
  1.570510e+01    1.780721e+00
  1.572097e+01    1.777884e+00
  1.573685e+01    1.752196e+00
  1.575273e+01    1.748637e+00
  1.576860e+01    1.738256e+00
  1.578448e+01    1.722211e+00
  1.580035e+01    1.704854e+00
  1.581623e+01    1.719012e+00
  1.583210e+01    1.713556e+00
  1.584798e+01    1.689115e+00
  1.586385e+01    1.642654e+00
  1.587973e+01    1.657591e+00
  1.589561e+01    1.676947e+00
  1.591148e+01    1.666563e+00
  1.592736e+01    1.644793e+00
  1.594323e+01    1.608402e+00
  1.595911e+01    1.617113e+00
  1.597498e+01    1.652891e+00
  1.599086e+01    1.661917e+00
  1.600673e+01    1.637097e+00
  1.602261e+01    1.604854e+00
  1.603849e+01    1.588215e+00
  1.605436e+01    1.604422e+00
  1.607024e+01    1.620103e+00
  1.608611e+01    1.627902e+00
  1.610199e+01    1.630000e+00
  1.611786e+01    1.617948e+00
  1.613374e+01    1.612568e+00
  1.614961e+01    1.621689e+00
  1.616549e+01    1.597918e+00
  1.618137e+01    1.566974e+00
  1.619724e+01    1.558004e+00
  1.621312e+01    1.600167e+00
  1.622899e+01    1.599251e+00
  1.624487e+01    1.593672e+00
  1.626074e+01    1.568315e+00
  1.627662e+01    1.556622e+00
  1.629250e+01    1.539211e+00
  1.630837e+01    1.538782e+00
  1.632425e+01    1.567441e+00
  1.634012e+01    1.540182e+00
  1.635600e+01    1.529518e+00
  1.637187e+01    1.535600e+00
  1.638775e+01    1.514303e+00
  1.640362e+01    1.543318e+00
  1.641950e+01    1.546775e+00
  1.643538e+01    1.511354e+00
  1.645125e+01    1.522505e+00
  1.646713e+01    1.483245e+00
  1.648300e+01    1.513830e+00
  1.649888e+01    1.532955e+00
  1.651475e+01    1.528398e+00
  1.653063e+01    1.518911e+00
  1.654650e+01    1.489474e+00
  1.656238e+01    1.498421e+00
  1.657826e+01    1.501484e+00
  1.659413e+01    1.527022e+00
  1.661001e+01    1.513837e+00
  1.662588e+01    1.499208e+00
  1.664176e+01    1.493675e+00
  1.665763e+01    1.486070e+00
  1.667351e+01    1.499411e+00
  1.668938e+01    1.489233e+00
  1.670526e+01    1.470009e+00
  1.672114e+01    1.461860e+00
  1.673701e+01    1.478167e+00
  1.675289e+01    1.494431e+00
  1.676876e+01    1.463638e+00
  1.678464e+01    1.514938e+00
  1.680051e+01    1.497262e+00
  1.681639e+01    1.470394e+00
  1.683226e+01    1.487215e+00
  1.684814e+01    1.481156e+00
  1.686402e+01    1.461692e+00
  1.687989e+01    1.452219e+00
  1.689577e+01    1.448290e+00
  1.691164e+01    1.440098e+00
  1.692752e+01    1.417921e+00
  1.694339e+01    1.424652e+00
  1.695927e+01    1.425399e+00
  1.697514e+01    1.465855e+00
  1.699102e+01    1.457592e+00
  1.700690e+01    1.449813e+00
  1.702277e+01    1.448608e+00
  1.703865e+01    1.450550e+00
  1.705452e+01    1.395929e+00
  1.707040e+01    1.417592e+00
  1.708627e+01    1.424278e+00
  1.710215e+01    1.476813e+00
  1.711802e+01    1.430041e+00
  1.713390e+01    1.420651e+00
  1.714978e+01    1.439282e+00
  1.716565e+01    1.397791e+00
  1.718153e+01    1.387287e+00
  1.719740e+01    1.401844e+00
  1.721328e+01    1.413899e+00
  1.722915e+01    1.400612e+00
  1.724503e+01    1.379250e+00
  1.726091e+01    1.404970e+00
  1.727678e+01    1.386280e+00
  1.729266e+01    1.410867e+00
  1.730853e+01    1.398225e+00
  1.732441e+01    1.389565e+00
  1.734028e+01    1.386073e+00
  1.735616e+01    1.378314e+00
  1.737203e+01    1.399980e+00
  1.738791e+01    1.388324e+00
  1.740379e+01    1.373415e+00
  1.741966e+01    1.367469e+00
  1.743554e+01    1.382496e+00
  1.745141e+01    1.359836e+00
  1.746729e+01    1.330598e+00
  1.748316e+01    1.353766e+00
  1.749904e+01    1.370150e+00
  1.751491e+01    1.381015e+00
  1.753079e+01    1.364821e+00
  1.754667e+01    1.350640e+00
  1.756254e+01    1.356029e+00
  1.757842e+01    1.366492e+00
  1.759429e+01    1.366756e+00
  1.761017e+01    1.345472e+00
  1.762604e+01    1.376437e+00
  1.764192e+01    1.375442e+00
  1.765779e+01    1.344120e+00
  1.767367e+01    1.359131e+00
  1.768955e+01    1.351769e+00
  1.770542e+01    1.341162e+00
  1.772130e+01    1.350802e+00
  1.773717e+01    1.340140e+00
  1.775305e+01    1.326433e+00
  1.776892e+01    1.334842e+00
  1.778480e+01    1.319886e+00
  1.780067e+01    1.322541e+00
  1.781655e+01    1.321228e+00
  1.783243e+01    1.335583e+00
  1.784830e+01    1.325249e+00
  1.786418e+01    1.350778e+00
  1.788005e+01    1.334220e+00
  1.789593e+01    1.344073e+00
  1.791180e+01    1.343273e+00
  1.792768e+01    1.322247e+00
  1.794355e+01    1.315279e+00
  1.795943e+01    1.325807e+00
  1.797531e+01    1.331260e+00
  1.799118e+01    1.307138e+00
  1.800706e+01    1.304956e+00
  1.802293e+01    1.300573e+00
  1.803881e+01    1.308857e+00
  1.805468e+01    1.277941e+00
  1.807056e+01    1.280453e+00
  1.808643e+01    1.300935e+00
  1.810231e+01    1.312114e+00
  1.811819e+01    1.282564e+00
  1.813406e+01    1.293771e+00
  1.814994e+01    1.289236e+00
  1.816581e+01    1.306533e+00
  1.818169e+01    1.289199e+00
  1.819756e+01    1.271099e+00
  1.821344e+01    1.296906e+00
  1.822932e+01    1.295158e+00
  1.824519e+01    1.306235e+00
  1.826107e+01    1.273753e+00
  1.827694e+01    1.251450e+00
  1.829282e+01    1.278666e+00
  1.830869e+01    1.289755e+00
  1.832457e+01    1.261604e+00
  1.834044e+01    1.272591e+00
  1.835632e+01    1.258903e+00
  1.837220e+01    1.278207e+00
  1.838807e+01    1.282952e+00
  1.840395e+01    1.283885e+00
  1.841982e+01    1.274419e+00
  1.843570e+01    1.278209e+00
  1.845157e+01    1.252128e+00
  1.846745e+01    1.237399e+00
  1.848332e+01    1.266216e+00
  1.849920e+01    1.281382e+00
  1.851508e+01    1.268393e+00
  1.853095e+01    1.224254e+00
  1.854683e+01    1.270662e+00
  1.856270e+01    1.255278e+00
  1.857858e+01    1.255870e+00
  1.859445e+01    1.238996e+00
  1.861033e+01    1.239645e+00
  1.862620e+01    1.255600e+00
  1.864208e+01    1.263999e+00
  1.865796e+01    1.233718e+00
  1.867383e+01    1.241933e+00
  1.868971e+01    1.247048e+00
  1.870558e+01    1.252891e+00
  1.872146e+01    1.237542e+00
  1.873733e+01    1.213451e+00
  1.875321e+01    1.249067e+00
  1.876908e+01    1.226598e+00
  1.878496e+01    1.218145e+00
  1.880084e+01    1.243187e+00
  1.881671e+01    1.240435e+00
  1.883259e+01    1.245968e+00
  1.884846e+01    1.251689e+00
  1.886434e+01    1.234419e+00
  1.888021e+01    1.210502e+00
  1.889609e+01    1.204580e+00
  1.891196e+01    1.198432e+00
  1.892784e+01    1.206050e+00
  1.894372e+01    1.203615e+00
  1.895959e+01    1.202529e+00
  1.897547e+01    1.201141e+00
  1.899134e+01    1.174111e+00
  1.900722e+01    1.179104e+00
  1.902309e+01    1.190607e+00
  1.903897e+01    1.195399e+00
  1.905484e+01    1.197751e+00
  1.907072e+01    1.189768e+00
  1.908660e+01    1.186896e+00
  1.910247e+01    1.185201e+00
  1.911835e+01    1.186967e+00
  1.913422e+01    1.194123e+00
  1.915010e+01    1.184050e+00
  1.916597e+01    1.185078e+00
  1.918185e+01    1.197403e+00
  1.919773e+01    1.195350e+00
  1.921360e+01    1.212361e+00
  1.922948e+01    1.194298e+00
  1.924535e+01    1.202506e+00
  1.926123e+01    1.197629e+00
  1.927710e+01    1.196548e+00
  1.929298e+01    1.199822e+00
  1.930885e+01    1.160523e+00
  1.932473e+01    1.177680e+00
  1.934061e+01    1.151343e+00
  1.935648e+01    1.170720e+00
  1.937236e+01    1.184823e+00
  1.938823e+01    1.178728e+00
  1.940411e+01    1.150958e+00
  1.941998e+01    1.159852e+00
  1.943586e+01    1.168629e+00
  1.945173e+01    1.181762e+00
  1.946761e+01    1.164042e+00
  1.948349e+01    1.179195e+00
  1.949936e+01    1.186223e+00
  1.951524e+01    1.170380e+00
  1.953111e+01    1.172276e+00
  1.954699e+01    1.169047e+00
  1.956286e+01    1.158952e+00
  1.957874e+01    1.150435e+00
  1.959461e+01    1.141997e+00
  1.961049e+01    1.147281e+00
  1.962637e+01    1.139055e+00
  1.964224e+01    1.158619e+00
  1.965812e+01    1.162579e+00
  1.967399e+01    1.147298e+00
  1.968987e+01    1.129719e+00
  1.970574e+01    1.136409e+00
  1.972162e+01    1.127051e+00
  1.973749e+01    1.137260e+00
  1.975337e+01    1.149950e+00
  1.976925e+01    1.161501e+00
  1.978512e+01    1.178532e+00
  1.980100e+01    1.140008e+00
  1.981687e+01    1.128801e+00
  1.983275e+01    1.150771e+00
  1.984862e+01    1.155674e+00
  1.986450e+01    1.138769e+00
  1.988037e+01    1.126889e+00
  1.989625e+01    1.121827e+00
  1.991213e+01    1.130583e+00
  1.992800e+01    1.109661e+00
  1.994388e+01    1.136401e+00
  1.995975e+01    1.147631e+00
  1.997563e+01    1.128188e+00
  1.999150e+01    1.128494e+00
  2.000738e+01    1.125306e+00
  2.002325e+01    1.114317e+00
  2.003913e+01    1.100023e+00
  2.005501e+01    1.105630e+00
  2.007088e+01    1.126824e+00
  2.008676e+01    1.110508e+00
  2.010263e+01    1.108289e+00
  2.011851e+01    1.117476e+00
  2.013438e+01    1.111509e+00
  2.015026e+01    1.103362e+00
  2.016614e+01    1.113474e+00
  2.018201e+01    1.131207e+00
  2.019789e+01    1.117351e+00
  2.021376e+01    1.110445e+00
  2.022964e+01    1.115493e+00
  2.024551e+01    1.116881e+00
  2.026139e+01    1.099284e+00
  2.027726e+01    1.099915e+00
  2.029314e+01    1.098729e+00
  2.030902e+01    1.102616e+00
  2.032489e+01    1.102706e+00
  2.034077e+01    1.116235e+00
  2.035664e+01    1.098829e+00
  2.037252e+01    1.098527e+00
  2.038839e+01    1.072494e+00
  2.040427e+01    1.094704e+00
  2.042014e+01    1.113736e+00
  2.043602e+01    1.114773e+00
  2.045190e+01    1.094028e+00
  2.046777e+01    1.101390e+00
  2.048365e+01    1.104585e+00
  2.049952e+01    1.101256e+00
  2.051540e+01    1.095523e+00
  2.053127e+01    1.095831e+00
  2.054715e+01    1.090601e+00
  2.056302e+01    1.073643e+00
  2.057890e+01    1.092494e+00
  2.059478e+01    1.122291e+00
  2.061065e+01    1.089589e+00
  2.062653e+01    1.075559e+00
  2.064240e+01    1.094951e+00
  2.065828e+01    1.120152e+00
  2.067415e+01    1.096781e+00
  2.069003e+01    1.093875e+00
  2.070590e+01    1.081448e+00
  2.072178e+01    1.096036e+00
  2.073766e+01    1.075960e+00
  2.075353e+01    1.063932e+00
  2.076941e+01    1.087013e+00
  2.078528e+01    1.077536e+00
  2.080116e+01    1.092911e+00
  2.081703e+01    1.097830e+00
  2.083291e+01    1.080816e+00
  2.084878e+01    1.072595e+00
  2.086466e+01    1.054394e+00
  2.088054e+01    1.096521e+00
  2.089641e+01    1.085351e+00
  2.091229e+01    1.058496e+00
  2.092816e+01    1.081928e+00
  2.094404e+01    1.094685e+00
  2.095991e+01    1.096181e+00
  2.097579e+01    1.124404e+00
  2.099166e+01    1.101084e+00
  2.100754e+01    1.077991e+00
  2.102342e+01    1.082378e+00
  2.103929e+01    1.119852e+00
  2.105517e+01    1.108192e+00
  2.107104e+01    1.097312e+00
  2.108692e+01    1.082465e+00
  2.110279e+01    1.080199e+00
  2.111867e+01    1.097037e+00
  2.113455e+01    1.106196e+00
  2.115042e+01    1.115308e+00
  2.116630e+01    1.095992e+00
  2.118217e+01    1.110903e+00
  2.119805e+01    1.124147e+00
  2.121392e+01    1.138798e+00
  2.122980e+01    1.130607e+00
  2.124567e+01    1.123288e+00
  2.126155e+01    1.130357e+00
  2.127743e+01    1.150391e+00
  2.129330e+01    1.146564e+00
  2.130918e+01    1.136249e+00
  2.132505e+01    1.158569e+00
  2.134093e+01    1.148722e+00
  2.135680e+01    1.131803e+00
  2.137268e+01    1.155347e+00
  2.138855e+01    1.156087e+00
  2.140443e+01    1.163061e+00
  2.142031e+01    1.184715e+00
  2.143618e+01    1.217369e+00
  2.145206e+01    1.240516e+00
  2.146793e+01    1.240544e+00
  2.148381e+01    1.250954e+00
  2.149968e+01    1.266505e+00
  2.151556e+01    1.303716e+00
  2.153143e+01    1.331130e+00
  2.154731e+01    1.377880e+00
  2.156319e+01    1.419013e+00
  2.157906e+01    1.468544e+00
  2.159494e+01    1.521637e+00
  2.161081e+01    1.551978e+00
  2.162669e+01    1.634478e+00
  2.164256e+01    1.726951e+00
  2.165844e+01    1.845918e+00
  2.167431e+01    1.963353e+00
  2.169019e+01    2.208285e+00
  2.170607e+01    2.359803e+00
  2.172194e+01    2.609852e+00
  2.173782e+01    2.955241e+00
  2.175369e+01    3.349039e+00
  2.176957e+01    3.816593e+00
  2.178544e+01    4.378515e+00
  2.180132e+01    4.961360e+00
  2.181719e+01    5.671514e+00
  2.183307e+01    6.496428e+00
  2.184895e+01    7.368039e+00
  2.186482e+01    8.252737e+00
  2.188070e+01    9.157108e+00
  2.189657e+01    9.872977e+00
  2.191245e+01    1.040020e+01
  2.192832e+01    1.062450e+01
  2.194420e+01    1.044407e+01
  2.196007e+01    9.678648e+00
  2.197595e+01    8.785656e+00
  2.199183e+01    7.624600e+00
  2.200770e+01    6.464083e+00
  2.202358e+01    5.429799e+00
  2.203945e+01    4.543098e+00
  2.205533e+01    3.923837e+00
  2.207120e+01    3.427636e+00
  2.208708e+01    3.032424e+00
  2.210296e+01    2.653013e+00
  2.211883e+01    2.412860e+00
  2.213471e+01    2.205939e+00
  2.215058e+01    2.020975e+00
  2.216646e+01    1.893585e+00
  2.218233e+01    1.774698e+00
  2.219821e+01    1.668102e+00
  2.221408e+01    1.567757e+00
  2.222996e+01    1.481648e+00
  2.224584e+01    1.440604e+00
  2.226171e+01    1.383535e+00
  2.227759e+01    1.358906e+00
  2.229346e+01    1.305529e+00
  2.230934e+01    1.268689e+00
  2.232521e+01    1.246244e+00
  2.234109e+01    1.204191e+00
  2.235696e+01    1.195189e+00
  2.237284e+01    1.165275e+00
  2.238872e+01    1.139681e+00
  2.240459e+01    1.149653e+00
  2.242047e+01    1.113479e+00
  2.243634e+01    1.090233e+00
  2.245222e+01    1.084796e+00
  2.246809e+01    1.061542e+00
  2.248397e+01    1.050796e+00
  2.249984e+01    1.043342e+00
  2.251572e+01    1.060287e+00
  2.253160e+01    1.036851e+00
  2.254747e+01    1.036387e+00
  2.256335e+01    1.002810e+00
  2.257922e+01    1.005368e+00
  2.259510e+01    1.017483e+00
  2.261097e+01    1.010863e+00
  2.262685e+01    9.986661e-01
  2.264272e+01    9.984101e-01
  2.265860e+01    9.785274e-01
  2.267448e+01    9.758139e-01
  2.269035e+01    9.741129e-01
  2.270623e+01    9.831648e-01
  2.272210e+01    9.791187e-01
  2.273798e+01    9.584662e-01
  2.275385e+01    9.442016e-01
  2.276973e+01    9.423598e-01
  2.278560e+01    9.395744e-01
  2.280148e+01    9.315398e-01
  2.281736e+01    9.611183e-01
  2.283323e+01    9.575076e-01
  2.284911e+01    9.302596e-01
  2.286498e+01    9.520801e-01
  2.288086e+01    9.351631e-01
  2.289673e+01    8.983698e-01
  2.291261e+01    9.032821e-01
  2.292848e+01    9.235173e-01
  2.294436e+01    9.424612e-01
  2.296024e+01    9.198127e-01
  2.297611e+01    9.038712e-01
  2.299199e+01    9.129754e-01
  2.300786e+01    9.061660e-01
  2.302374e+01    9.239763e-01
  2.303961e+01    8.895510e-01
  2.305549e+01    8.942278e-01
  2.307137e+01    9.179747e-01
  2.308724e+01    9.120682e-01
  2.310312e+01    8.777955e-01
  2.311899e+01    8.611194e-01
  2.313487e+01    8.719543e-01
  2.315074e+01    8.839567e-01
  2.316662e+01    8.962342e-01
  2.318249e+01    8.972166e-01
  2.319837e+01    9.006935e-01
  2.321425e+01    8.935922e-01
  2.323012e+01    8.791495e-01
  2.324600e+01    8.756071e-01
  2.326187e+01    8.793634e-01
  2.327775e+01    8.909988e-01
  2.329362e+01    8.772895e-01
  2.330950e+01    8.665617e-01
  2.332537e+01    8.651847e-01
  2.334125e+01    8.856609e-01
  2.335713e+01    8.897589e-01
  2.337300e+01    8.682888e-01
  2.338888e+01    8.725612e-01
  2.340475e+01    8.933228e-01
  2.342063e+01    8.731354e-01
  2.343650e+01    8.590735e-01
  2.345238e+01    8.454278e-01
  2.346825e+01    8.483146e-01
  2.348413e+01    8.757482e-01
  2.350001e+01    8.633108e-01
  2.351588e+01    8.475503e-01
  2.353176e+01    8.479928e-01
  2.354763e+01    8.527900e-01
  2.356351e+01    8.595338e-01
  2.357938e+01    8.456581e-01
  2.359526e+01    8.436138e-01
  2.361113e+01    8.703386e-01
  2.362701e+01    8.706234e-01
  2.364289e+01    8.644271e-01
  2.365876e+01    8.598830e-01
  2.367464e+01    8.337581e-01
  2.369051e+01    8.199379e-01
  2.370639e+01    8.281482e-01
  2.372226e+01    8.352364e-01
  2.373814e+01    8.186293e-01
  2.375401e+01    8.115380e-01
  2.376989e+01    8.190135e-01
  2.378577e+01    8.133134e-01
  2.380164e+01    8.123803e-01
  2.381752e+01    8.068480e-01
  2.383339e+01    8.028435e-01
  2.384927e+01    8.010506e-01
  2.386514e+01    8.046185e-01
  2.388102e+01    8.216823e-01
  2.389689e+01    8.020287e-01
  2.391277e+01    7.923331e-01
  2.392865e+01    7.906964e-01
  2.394452e+01    7.861961e-01
  2.396040e+01    7.993960e-01
  2.397627e+01    8.307870e-01
  2.399215e+01    8.247669e-01
  2.400802e+01    7.969835e-01
  2.402390e+01    7.954500e-01
  2.403978e+01    7.747415e-01
  2.405565e+01    7.935001e-01
  2.407153e+01    7.982659e-01
  2.408740e+01    7.733017e-01
  2.410328e+01    7.848281e-01
  2.411915e+01    8.096598e-01
  2.413503e+01    7.954793e-01
  2.415090e+01    7.702453e-01
  2.416678e+01    7.995169e-01
  2.418266e+01    7.826191e-01
  2.419853e+01    7.837121e-01
  2.421441e+01    8.057784e-01
  2.423028e+01    7.947733e-01
  2.424616e+01    7.819819e-01
  2.426203e+01    7.973256e-01
  2.427791e+01    7.870550e-01
  2.429378e+01    7.922859e-01
  2.430966e+01    7.919685e-01
  2.432554e+01    7.851290e-01
  2.434141e+01    7.738602e-01
  2.435729e+01    7.901742e-01
  2.437316e+01    8.206740e-01
  2.438904e+01    7.980507e-01
  2.440491e+01    7.975623e-01
  2.442079e+01    7.945834e-01
  2.443666e+01    7.909302e-01
  2.445254e+01    7.971575e-01
  2.446842e+01    8.337043e-01
  2.448429e+01    8.215489e-01
  2.450017e+01    8.016270e-01
  2.451604e+01    7.886545e-01
  2.453192e+01    7.819869e-01
  2.454779e+01    7.826241e-01
  2.456367e+01    7.977921e-01
  2.457954e+01    8.229118e-01
  2.459542e+01    8.100495e-01
  2.461130e+01    7.867330e-01
  2.462717e+01    7.923418e-01
  2.464305e+01    8.048705e-01
  2.465892e+01    8.061989e-01
  2.467480e+01    7.856581e-01
  2.469067e+01    7.839321e-01
  2.470655e+01    7.944530e-01
  2.472242e+01    7.978313e-01
  2.473830e+01    7.981772e-01
  2.475418e+01    7.984715e-01
  2.477005e+01    7.856072e-01
  2.478593e+01    7.978621e-01
  2.480180e+01    7.910491e-01
  2.481768e+01    8.066181e-01
  2.483355e+01    8.199441e-01
  2.484943e+01    8.014063e-01
  2.486530e+01    7.760774e-01
  2.488118e+01    8.007047e-01
  2.489706e+01    8.225841e-01
  2.491293e+01    8.113652e-01
  2.492881e+01    7.807702e-01
  2.494468e+01    8.127381e-01
  2.496056e+01    8.222411e-01
  2.497643e+01    8.075737e-01
  2.499231e+01    7.893883e-01
  2.500819e+01    8.011999e-01
  2.502406e+01    8.038036e-01
  2.503994e+01    7.926980e-01
  2.505581e+01    8.001941e-01
  2.507169e+01    8.163486e-01
  2.508756e+01    8.225862e-01
  2.510344e+01    8.316112e-01
  2.511931e+01    8.224776e-01
  2.513519e+01    8.133255e-01
  2.515107e+01    8.204081e-01
  2.516694e+01    8.273343e-01
  2.518282e+01    8.437191e-01
  2.519869e+01    8.560601e-01
  2.521457e+01    8.436569e-01
  2.523044e+01    8.419391e-01
  2.524632e+01    8.635221e-01
  2.526219e+01    8.643402e-01
  2.527807e+01    8.608236e-01
  2.529395e+01    8.471655e-01
  2.530982e+01    8.896716e-01
  2.532570e+01    8.849161e-01
  2.534157e+01    8.891886e-01
  2.535745e+01    9.145580e-01
  2.537332e+01    9.131655e-01
  2.538920e+01    9.099593e-01
  2.540507e+01    8.941244e-01
  2.542095e+01    8.957303e-01
  2.543683e+01    9.238735e-01
  2.545270e+01    9.218407e-01
  2.546858e+01    9.671077e-01
  2.548445e+01    9.669273e-01
  2.550033e+01    9.563952e-01
  2.551620e+01    9.910964e-01
  2.553208e+01    1.025006e+00
  2.554795e+01    1.039810e+00
  2.556383e+01    1.052715e+00
  2.557971e+01    1.054739e+00
  2.559558e+01    1.074069e+00
  2.561146e+01    1.102074e+00
  2.562733e+01    1.140957e+00
  2.564321e+01    1.179030e+00
  2.565908e+01    1.238196e+00
  2.567496e+01    1.273182e+00
  2.569083e+01    1.347229e+00
  2.570671e+01    1.409338e+00
  2.572259e+01    1.505664e+00
  2.573846e+01    1.602656e+00
  2.575434e+01    1.728018e+00
  2.577021e+01    1.870665e+00
  2.578609e+01    2.043863e+00
  2.580196e+01    2.275797e+00
  2.581784e+01    2.570329e+00
  2.583371e+01    2.899641e+00
  2.584959e+01    3.339984e+00
  2.586547e+01    3.844168e+00
  2.588134e+01    4.392060e+00
  2.589722e+01    5.082223e+00
  2.591309e+01    5.816042e+00
  2.592897e+01    6.555587e+00
  2.594484e+01    7.359068e+00
  2.596072e+01    8.000225e+00
  2.597660e+01    8.507522e+00
  2.599247e+01    8.758455e+00
  2.600835e+01    8.797573e+00
  2.602422e+01    8.396234e+00
  2.604010e+01    7.596090e+00
  2.605597e+01    6.752982e+00
  2.607185e+01    5.882199e+00
  2.608772e+01    4.978903e+00
  2.610360e+01    4.282065e+00
  2.611948e+01    3.653040e+00
  2.613535e+01    3.180048e+00
  2.615123e+01    2.780319e+00
  2.616710e+01    2.486734e+00
  2.618298e+01    2.214491e+00
  2.619885e+01    2.017310e+00
  2.621473e+01    1.859634e+00
  2.623060e+01    1.685882e+00
  2.624648e+01    1.567323e+00
  2.626236e+01    1.467131e+00
  2.627823e+01    1.418674e+00
  2.629411e+01    1.333183e+00
  2.630998e+01    1.295094e+00
  2.632586e+01    1.228243e+00
  2.634173e+01    1.189135e+00
  2.635761e+01    1.136997e+00
  2.637348e+01    1.100045e+00
  2.638936e+01    1.095079e+00
  2.640524e+01    1.079002e+00
  2.642111e+01    1.047196e+00
  2.643699e+01    1.040326e+00
  2.645286e+01    1.017209e+00
  2.646874e+01    9.996857e-01
  2.648461e+01    9.886762e-01
  2.650049e+01    9.990306e-01
  2.651636e+01    9.831633e-01
  2.653224e+01    9.733502e-01
  2.654812e+01    9.736450e-01
  2.656399e+01    9.633337e-01
  2.657987e+01    9.446106e-01
  2.659574e+01    9.244147e-01
  2.661162e+01    9.410498e-01
  2.662749e+01    9.389452e-01
  2.664337e+01    9.419537e-01
  2.665924e+01    9.193335e-01
  2.667512e+01    9.374291e-01
  2.669100e+01    9.261651e-01
  2.670687e+01    9.022842e-01
  2.672275e+01    8.996544e-01
  2.673862e+01    9.237162e-01
  2.675450e+01    9.485002e-01
  2.677037e+01    9.316288e-01
  2.678625e+01    9.046814e-01
  2.680212e+01    8.963033e-01
  2.681800e+01    9.223053e-01
  2.683388e+01    9.113905e-01
  2.684975e+01    9.163134e-01
  2.686563e+01    9.240173e-01
  2.688150e+01    9.337736e-01
  2.689738e+01    9.354536e-01
  2.691325e+01    9.603581e-01
  2.692913e+01    9.583035e-01
  2.694501e+01    9.578063e-01
  2.696088e+01    9.720225e-01
  2.697676e+01    9.609917e-01
  2.699263e+01    9.833063e-01
  2.700851e+01    1.011833e+00
  2.702438e+01    1.053516e+00
  2.704026e+01    1.076168e+00
  2.705613e+01    1.113386e+00
  2.707201e+01    1.149000e+00
  2.708789e+01    1.222118e+00
  2.710376e+01    1.301847e+00
  2.711964e+01    1.369179e+00
  2.713551e+01    1.490803e+00
  2.715139e+01    1.599479e+00
  2.716726e+01    1.739738e+00
  2.718314e+01    1.927196e+00
  2.719901e+01    2.109929e+00
  2.721489e+01    2.286332e+00
  2.723077e+01    2.404554e+00
  2.724664e+01    2.497456e+00
  2.726252e+01    2.512240e+00
  2.727839e+01    2.471267e+00
  2.729427e+01    2.357688e+00
  2.731014e+01    2.155212e+00
  2.732602e+01    1.993462e+00
  2.734189e+01    1.811160e+00
  2.735777e+01    1.657461e+00
  2.737365e+01    1.507412e+00
  2.738952e+01    1.359726e+00
  2.740540e+01    1.287602e+00
  2.742127e+01    1.210239e+00
  2.743715e+01    1.150071e+00
  2.745302e+01    1.111357e+00
  2.746890e+01    1.067600e+00
  2.748477e+01    1.036446e+00
  2.750065e+01    1.013222e+00
  2.751653e+01    9.964691e-01
  2.753240e+01    9.853052e-01
  2.754828e+01    9.490526e-01
  2.756415e+01    9.295833e-01
  2.758003e+01    9.309422e-01
  2.759590e+01    9.069054e-01
  2.761178e+01    8.813298e-01
  2.762765e+01    8.724173e-01
  2.764353e+01    8.487452e-01
  2.765941e+01    8.569835e-01
  2.767528e+01    8.469251e-01
  2.769116e+01    8.435239e-01
  2.770703e+01    8.414364e-01
  2.772291e+01    8.157223e-01
  2.773878e+01    8.347898e-01
  2.775466e+01    8.344129e-01
  2.777054e+01    8.725064e-01
  2.778641e+01    8.491858e-01
  2.780229e+01    8.386756e-01
  2.781816e+01    8.186829e-01
  2.783404e+01    8.178957e-01
  2.784991e+01    8.137210e-01
  2.786579e+01    8.163949e-01
  2.788166e+01    8.276848e-01
  2.789754e+01    8.248855e-01
  2.791342e+01    8.119580e-01
  2.792929e+01    8.188648e-01
  2.794517e+01    8.042185e-01
  2.796104e+01    8.094274e-01
  2.797692e+01    8.061568e-01
  2.799279e+01    8.056589e-01
  2.800867e+01    8.083712e-01
  2.802454e+01    8.070948e-01
  2.804042e+01    7.971367e-01
  2.805630e+01    7.878425e-01
  2.807217e+01    7.803728e-01
  2.808805e+01    8.050078e-01
  2.810392e+01    8.075569e-01
  2.811980e+01    7.750487e-01
  2.813567e+01    7.785223e-01
  2.815155e+01    7.890376e-01
  2.816742e+01    7.816538e-01
  2.818330e+01    7.833807e-01
  2.819918e+01    7.735430e-01
  2.821505e+01    7.892831e-01
  2.823093e+01    7.895418e-01
  2.824680e+01    8.086151e-01
  2.826268e+01    7.966478e-01
  2.827855e+01    7.720494e-01
  2.829443e+01    7.889408e-01
  2.831030e+01    7.878814e-01
  2.832618e+01    7.864767e-01
  2.834206e+01    7.897533e-01
  2.835793e+01    8.050397e-01
  2.837381e+01    7.630002e-01
  2.838968e+01    7.688903e-01
  2.840556e+01    7.609763e-01
  2.842143e+01    7.655819e-01
  2.843731e+01    7.693927e-01
  2.845318e+01    7.730812e-01
  2.846906e+01    7.831095e-01
  2.848494e+01    7.808659e-01
  2.850081e+01    7.778813e-01
  2.851669e+01    7.835600e-01
  2.853256e+01    7.773743e-01
  2.854844e+01    7.730304e-01
  2.856431e+01    7.841884e-01
  2.858019e+01    7.538398e-01
  2.859606e+01    7.554597e-01
  2.861194e+01    7.793358e-01
  2.862782e+01    7.675368e-01
  2.864369e+01    7.525003e-01
  2.865957e+01    7.397956e-01
  2.867544e+01    7.326399e-01
  2.869132e+01    7.500760e-01
  2.870719e+01    7.621246e-01
  2.872307e+01    7.501710e-01
  2.873895e+01    7.552885e-01
  2.875482e+01    7.606046e-01
  2.877070e+01    7.649612e-01
  2.878657e+01    7.606261e-01
  2.880245e+01    7.723463e-01
  2.881832e+01    7.595407e-01
  2.883420e+01    7.521999e-01
  2.885007e+01    7.442757e-01
  2.886595e+01    7.655596e-01
  2.888183e+01    7.607138e-01
  2.889770e+01    7.401825e-01
  2.891358e+01    7.363725e-01
  2.892945e+01    7.333182e-01
  2.894533e+01    7.591195e-01
  2.896120e+01    7.646560e-01
  2.897708e+01    7.356078e-01
  2.899295e+01    7.352769e-01
  2.900883e+01    7.545907e-01
  2.902471e+01    7.640500e-01
  2.904058e+01    7.547312e-01
  2.905646e+01    7.546147e-01
  2.907233e+01    7.531857e-01
  2.908821e+01    7.526824e-01
  2.910408e+01    7.713658e-01
  2.911996e+01    7.318031e-01
  2.913583e+01    7.351659e-01
  2.915171e+01    7.450071e-01
  2.916759e+01    7.390418e-01
  2.918346e+01    7.218912e-01
  2.919934e+01    7.314274e-01
  2.921521e+01    7.359011e-01
  2.923109e+01    7.383279e-01
  2.924696e+01    7.316524e-01
  2.926284e+01    7.482571e-01
  2.927871e+01    7.529923e-01
  2.929459e+01    7.519942e-01
  2.931047e+01    7.460966e-01
  2.932634e+01    7.444586e-01
  2.934222e+01    7.354399e-01
  2.935809e+01    7.560488e-01
  2.937397e+01    7.535374e-01
  2.938984e+01    7.302598e-01
  2.940572e+01    7.152209e-01
  2.942159e+01    7.346905e-01
  2.943747e+01    7.424202e-01
  2.945335e+01    7.238465e-01
  2.946922e+01    7.255336e-01
  2.948510e+01    7.329753e-01
  2.950097e+01    7.269332e-01
  2.951685e+01    7.129775e-01
  2.953272e+01    7.339216e-01
  2.954860e+01    7.312582e-01
  2.956447e+01    7.175099e-01
  2.958035e+01    7.120905e-01
  2.959623e+01    7.407086e-01
  2.961210e+01    7.490756e-01
  2.962798e+01    7.379694e-01
  2.964385e+01    7.205333e-01
  2.965973e+01    7.303931e-01
  2.967560e+01    7.197530e-01
  2.969148e+01    7.210190e-01
  2.970736e+01    7.306854e-01
  2.972323e+01    7.326575e-01
  2.973911e+01    7.299860e-01
  2.975498e+01    7.284336e-01
  2.977086e+01    7.140037e-01
  2.978673e+01    7.066426e-01
  2.980261e+01    7.404871e-01
  2.981848e+01    7.381220e-01
  2.983436e+01    7.213330e-01
  2.985024e+01    7.444682e-01
  2.986611e+01    7.369223e-01
  2.988199e+01    7.265148e-01
  2.989786e+01    7.152868e-01
  2.991374e+01    7.250238e-01
  2.992961e+01    7.483519e-01
  2.994549e+01    7.284080e-01
  2.996136e+01    7.393271e-01
  2.997724e+01    7.411407e-01
  2.999312e+01    7.500464e-01
  3.000899e+01    7.624686e-01
  3.002487e+01    7.655231e-01
  3.004074e+01    7.587617e-01
  3.005662e+01    7.319810e-01
  3.007249e+01    7.275805e-01
  3.008837e+01    7.374758e-01
  3.010424e+01    7.483733e-01
  3.012012e+01    7.363061e-01
  3.013600e+01    7.398036e-01
  3.015187e+01    7.263362e-01
  3.016775e+01    7.361003e-01
  3.018362e+01    7.131879e-01
  3.019950e+01    7.045388e-01
  3.021537e+01    7.244266e-01
  3.023125e+01    7.372923e-01
  3.024712e+01    7.341852e-01
  3.026300e+01    7.069697e-01
  3.027888e+01    7.180552e-01
  3.029475e+01    7.250559e-01
  3.031063e+01    7.213880e-01
  3.032650e+01    7.209455e-01
  3.034238e+01    7.109339e-01
  3.035825e+01    7.382962e-01
  3.037413e+01    7.169057e-01
  3.039000e+01    7.213957e-01
  3.040588e+01    7.218735e-01
  3.042176e+01    7.121144e-01
  3.043763e+01    7.318723e-01
  3.045351e+01    7.308719e-01
  3.046938e+01    7.206426e-01
  3.048526e+01    7.342861e-01
  3.050113e+01    7.126009e-01
  3.051701e+01    7.240101e-01
  3.053288e+01    7.225506e-01
  3.054876e+01    7.272401e-01
  3.056464e+01    7.159479e-01
  3.058051e+01    7.340244e-01
  3.059639e+01    7.179196e-01
  3.061226e+01    7.044921e-01
  3.062814e+01    7.274137e-01
  3.064401e+01    7.233527e-01
  3.065989e+01    7.141741e-01
  3.067577e+01    7.084533e-01
  3.069164e+01    7.102811e-01
  3.070752e+01    7.082283e-01
  3.072339e+01    7.140417e-01
  3.073927e+01    7.033291e-01
  3.075514e+01    7.017900e-01
  3.077102e+01    7.233101e-01
  3.078689e+01    7.038875e-01
  3.080277e+01    7.100129e-01
  3.081865e+01    6.980938e-01
  3.083452e+01    7.166262e-01
  3.085040e+01    7.218456e-01
  3.086627e+01    7.157316e-01
  3.088215e+01    7.269604e-01
  3.089802e+01    7.280780e-01
  3.091390e+01    7.179599e-01
  3.092977e+01    7.169402e-01
  3.094565e+01    7.103031e-01
  3.096153e+01    7.429620e-01
  3.097740e+01    7.400794e-01
  3.099328e+01    7.458129e-01
  3.100915e+01    7.462757e-01
  3.102503e+01    7.326533e-01
  3.104090e+01    7.311407e-01
  3.105678e+01    7.374237e-01
  3.107265e+01    7.283599e-01
  3.108853e+01    7.369100e-01
  3.110441e+01    7.220984e-01
  3.112028e+01    7.411780e-01
  3.113616e+01    7.238370e-01
  3.115203e+01    7.302837e-01
  3.116791e+01    7.239293e-01
  3.118378e+01    7.310544e-01
  3.119966e+01    7.177061e-01
  3.121553e+01    7.351294e-01
  3.123141e+01    7.089283e-01
  3.124729e+01    7.336575e-01
  3.126316e+01    7.471668e-01
  3.127904e+01    7.342750e-01
  3.129491e+01    7.197661e-01
  3.131079e+01    7.215399e-01
  3.132666e+01    7.324788e-01
  3.134254e+01    7.528155e-01
  3.135841e+01    7.475466e-01
  3.137429e+01    7.669780e-01
  3.139017e+01    7.461197e-01
  3.140604e+01    7.414181e-01
  3.142192e+01    7.518429e-01
  3.143779e+01    7.405413e-01
  3.145367e+01    7.644609e-01
  3.146954e+01    7.807240e-01
  3.148542e+01    7.967378e-01
  3.150129e+01    7.743667e-01
  3.151717e+01    7.815551e-01
  3.153305e+01    7.708164e-01
  3.154892e+01    7.919267e-01
  3.156480e+01    8.105867e-01
  3.158067e+01    7.886150e-01
  3.159655e+01    8.259150e-01
  3.161242e+01    8.017853e-01
  3.162830e+01    8.219947e-01
  3.164418e+01    8.479900e-01
  3.166005e+01    8.575492e-01
  3.167593e+01    8.889039e-01
  3.169180e+01    9.015955e-01
  3.170768e+01    8.983557e-01
  3.172355e+01    9.500370e-01
  3.173943e+01    9.803813e-01
  3.175530e+01    1.017115e+00
  3.177118e+01    1.110512e+00
  3.178706e+01    1.181589e+00
  3.180293e+01    1.244821e+00
  3.181881e+01    1.342186e+00
  3.183468e+01    1.427896e+00
  3.185056e+01    1.605932e+00
  3.186643e+01    1.729438e+00
  3.188231e+01    1.890317e+00
  3.189818e+01    2.069104e+00
  3.191406e+01    2.317846e+00
  3.192994e+01    2.416402e+00
  3.194581e+01    2.500585e+00
  3.196169e+01    2.535048e+00
  3.197756e+01    2.458771e+00
  3.199344e+01    2.325788e+00
  3.200931e+01    2.155255e+00
  3.202519e+01    1.952005e+00
  3.204106e+01    1.746983e+00
  3.205694e+01    1.559224e+00
  3.207282e+01    1.424335e+00
  3.208869e+01    1.308524e+00
  3.210457e+01    1.178236e+00
  3.212044e+01    1.099099e+00
  3.213632e+01    1.058656e+00
  3.215219e+01    1.016139e+00
  3.216807e+01    9.418597e-01
  3.218394e+01    8.945989e-01
  3.219982e+01    9.059994e-01
  3.221570e+01    9.051329e-01
  3.223157e+01    8.539566e-01
  3.224745e+01    8.398436e-01
  3.226332e+01    8.252790e-01
  3.227920e+01    8.059163e-01
  3.229507e+01    7.992897e-01
  3.231095e+01    7.982042e-01
  3.232682e+01    7.731568e-01
  3.234270e+01    7.558043e-01
  3.235858e+01    7.624294e-01
  3.237445e+01    7.673442e-01
  3.239033e+01    7.501680e-01
  3.240620e+01    7.281147e-01
  3.242208e+01    7.573316e-01
  3.243795e+01    7.571361e-01
  3.245383e+01    7.351043e-01
  3.246970e+01    7.494482e-01
  3.248558e+01    7.375465e-01
  3.250146e+01    7.365108e-01
  3.251733e+01    7.472516e-01
  3.253321e+01    7.427735e-01
  3.254908e+01    7.415301e-01
