# == pyFAI calibration ==
# Distance Sample to Detector: 0.3999999939076516 m
# PONI: 9.750e-02, 1.135e-01 m
# Rotations: -0.000175 0.000000 -0.000000 rad
# 
# == Fit2d calibration ==
# Distance Sample-beamCenter: 400.000 mm
# Center: x=1514.000, y=1300.000 pix
# Tilt: 0.010 deg  TiltPlanRot: 0.010 deg
# 
# Detector Detector	 Spline= None	 PixelSize= 7.500e-05, 7.500e-05 m
#    Detector has a mask: False 
#    Detector has a dark current: False 
#    detector has a flat field: False 
# 
# Wavelength: 6.888e-11 m
# Mask applied: user provided
# Dark current applied: False
# Flat field applied: False
# Polarization factor: 0.99
# Normalization factor: 1.0
# --> /home/myspot/data/2024_07_Rosario/Ru-CGO-ex/2024-07-27_002_Ru-CGO-ex_Activtation_ramp_000002_data_000071.dat
#       q_nm^-1             I 
  2.003187e-02    0.000000e+00
  3.590745e-02    6.855699e-02
  5.178302e-02    1.905966e-01
  6.765859e-02    1.450140e-01
  8.353417e-02    9.551090e-02
  9.940974e-02    6.413817e-02
  1.152853e-01    1.057774e-01
  1.311609e-01    4.589266e-02
  1.470365e-01    3.442902e-03
  1.629120e-01    3.795559e-02
  1.787876e-01    2.637092e-02
  1.946632e-01    3.936091e-03
  2.105388e-01    1.823419e-02
  2.264143e-01    1.024184e-02
  2.422899e-01    2.917559e-02
  2.581655e-01    1.227398e-02
  2.740411e-01    1.289997e-02
  2.899166e-01    1.308092e-02
  3.057922e-01    4.916094e-02
  3.216678e-01    5.595041e-02
  3.375433e-01    8.161468e-03
  3.534189e-01    3.377066e-02
  3.692945e-01    7.211681e-03
  3.851701e-01    2.036525e-02
  4.010456e-01    4.161480e-02
  4.169212e-01    4.876056e-02
  4.327968e-01    7.000891e-02
  4.486724e-01    5.599510e-02
  4.645479e-01    6.064674e-02
  4.804235e-01    5.356062e-02
  4.962991e-01    5.114368e-02
  5.121747e-01    7.045134e-02
  5.280502e-01    4.915534e-02
  5.439258e-01    4.972110e-02
  5.598014e-01    4.680714e-02
  5.756770e-01    2.883053e-02
  5.915525e-01    4.477068e-02
  6.074281e-01    3.013112e-02
  6.233037e-01    1.975541e-02
  6.391793e-01    1.526593e-02
  6.550548e-01    2.652337e-02
  6.709304e-01    3.953454e-02
  6.868060e-01    3.261403e-02
  7.026815e-01    3.198705e-02
  7.185571e-01    2.317594e-02
  7.344327e-01    4.173481e-02
  7.503083e-01    6.069596e-02
  7.661838e-01    1.057176e-01
  7.820594e-01    1.196834e-01
  7.979350e-01    1.652511e-01
  8.138106e-01    2.215383e-01
  8.296861e-01    2.872812e-01
  8.455617e-01    2.953349e-01
  8.614373e-01    3.113954e-01
  8.773129e-01    4.278080e-01
  8.931884e-01    5.137303e-01
  9.090640e-01    5.820011e-01
  9.249396e-01    6.125651e-01
  9.408152e-01    7.571344e-01
  9.566907e-01    7.908038e-01
  9.725663e-01    9.050847e-01
  9.884419e-01    9.741062e-01
  1.004317e+00    9.817495e-01
  1.020193e+00    1.066339e+00
  1.036069e+00    1.118581e+00
  1.051944e+00    1.216835e+00
  1.067820e+00    1.308586e+00
  1.083695e+00    1.412098e+00
  1.099571e+00    1.419775e+00
  1.115446e+00    1.239209e+00
  1.131322e+00    1.404248e+00
  1.147198e+00    1.487620e+00
  1.163073e+00    1.528203e+00
  1.178949e+00    1.525429e+00
  1.194824e+00    1.693323e+00
  1.210700e+00    1.917269e+00
  1.226575e+00    2.081291e+00
  1.242451e+00    2.202857e+00
  1.258327e+00    2.294578e+00
  1.274202e+00    2.277502e+00
  1.290078e+00    2.493143e+00
  1.305953e+00    2.510380e+00
  1.321829e+00    2.451275e+00
  1.337705e+00    2.531691e+00
  1.353580e+00    2.501047e+00
  1.369456e+00    2.494984e+00
  1.385331e+00    2.681052e+00
  1.401207e+00    2.690762e+00
  1.417082e+00    2.523261e+00
  1.432958e+00    2.616541e+00
  1.448834e+00    2.634552e+00
  1.464709e+00    2.837947e+00
  1.480585e+00    2.786524e+00
  1.496460e+00    2.788931e+00
  1.512336e+00    2.926330e+00
  1.528211e+00    2.888176e+00
  1.544087e+00    2.956430e+00
  1.559963e+00    3.047842e+00
  1.575838e+00    2.920842e+00
  1.591714e+00    3.066128e+00
  1.607589e+00    3.108886e+00
  1.623465e+00    2.932041e+00
  1.639340e+00    2.837940e+00
  1.655216e+00    2.869487e+00
  1.671092e+00    2.894826e+00
  1.686967e+00    2.844600e+00
  1.702843e+00    2.970565e+00
  1.718718e+00    2.851609e+00
  1.734594e+00    2.714278e+00
  1.750469e+00    2.832121e+00
  1.766345e+00    2.909186e+00
  1.782221e+00    2.844820e+00
  1.798096e+00    2.836601e+00
  1.813972e+00    2.827684e+00
  1.829847e+00    2.795643e+00
  1.845723e+00    2.873668e+00
  1.861598e+00    2.905257e+00
  1.877474e+00    2.799390e+00
  1.893350e+00    2.742412e+00
  1.909225e+00    2.752096e+00
  1.925101e+00    2.822189e+00
  1.940976e+00    2.722383e+00
  1.956852e+00    2.700104e+00
  1.972727e+00    2.684764e+00
  1.988603e+00    2.773382e+00
  2.004479e+00    2.825427e+00
  2.020354e+00    2.727719e+00
  2.036230e+00    2.627301e+00
  2.052105e+00    2.704601e+00
  2.067981e+00    2.751620e+00
  2.083856e+00    2.638683e+00
  2.099732e+00    2.626035e+00
  2.115608e+00    2.666679e+00
  2.131483e+00    2.737026e+00
  2.147359e+00    2.768903e+00
  2.163234e+00    2.740217e+00
  2.179110e+00    2.616099e+00
  2.194985e+00    2.683932e+00
  2.210861e+00    2.714862e+00
  2.226737e+00    2.689560e+00
  2.242612e+00    2.745197e+00
  2.258488e+00    2.709790e+00
  2.274363e+00    2.772136e+00
  2.290239e+00    2.808987e+00
  2.306115e+00    2.792801e+00
  2.321990e+00    2.756473e+00
  2.337866e+00    2.751456e+00
  2.353741e+00    2.702764e+00
  2.369617e+00    2.777129e+00
  2.385492e+00    2.837206e+00
  2.401368e+00    2.718509e+00
  2.417244e+00    2.713494e+00
  2.433119e+00    2.829804e+00
  2.448995e+00    2.776421e+00
  2.464870e+00    2.770952e+00
  2.480746e+00    2.774463e+00
  2.496621e+00    2.717316e+00
  2.512497e+00    2.598191e+00
  2.528373e+00    2.645797e+00
  2.544248e+00    2.718567e+00
  2.560124e+00    2.786210e+00
  2.575999e+00    2.806142e+00
  2.591875e+00    2.818553e+00
  2.607750e+00    2.791716e+00
  2.623626e+00    2.765524e+00
  2.639502e+00    2.683055e+00
  2.655377e+00    2.792189e+00
  2.671253e+00    2.893509e+00
  2.687128e+00    2.831357e+00
  2.703004e+00    2.745200e+00
  2.718879e+00    2.772408e+00
  2.734755e+00    2.811796e+00
  2.750631e+00    2.810910e+00
  2.766506e+00    2.761560e+00
  2.782382e+00    2.774809e+00
  2.798257e+00    2.796809e+00
  2.814133e+00    2.774947e+00
  2.830008e+00    2.754202e+00
  2.845884e+00    2.870879e+00
  2.861760e+00    2.901672e+00
  2.877635e+00    2.946986e+00
  2.893511e+00    2.896153e+00
  2.909386e+00    2.791455e+00
  2.925262e+00    2.834064e+00
  2.941137e+00    2.830608e+00
  2.957013e+00    2.849966e+00
  2.972889e+00    2.792026e+00
  2.988764e+00    2.830404e+00
  3.004640e+00    2.862052e+00
  3.020515e+00    2.928557e+00
  3.036391e+00    2.898251e+00
  3.052266e+00    2.923465e+00
  3.068142e+00    2.889793e+00
  3.084018e+00    2.814651e+00
  3.099893e+00    2.947014e+00
  3.115769e+00    2.905887e+00
  3.131644e+00    2.905764e+00
  3.147520e+00    2.881493e+00
  3.163395e+00    2.889101e+00
  3.179271e+00    3.009572e+00
  3.195147e+00    2.892006e+00
  3.211022e+00    2.865433e+00
  3.226898e+00    2.835967e+00
  3.242773e+00    2.862953e+00
  3.258649e+00    2.897872e+00
  3.274525e+00    2.831397e+00
  3.290400e+00    2.862072e+00
  3.306276e+00    2.871666e+00
  3.322151e+00    2.949122e+00
  3.338027e+00    2.904050e+00
  3.353902e+00    2.935528e+00
  3.369778e+00    2.934199e+00
  3.385654e+00    2.941837e+00
  3.401529e+00    2.913347e+00
  3.417405e+00    2.999527e+00
  3.433280e+00    2.934133e+00
  3.449156e+00    2.939337e+00
  3.465031e+00    2.928859e+00
  3.480907e+00    2.913564e+00
  3.496783e+00    2.922931e+00
  3.512658e+00    2.843635e+00
  3.528534e+00    2.914869e+00
  3.544409e+00    2.947300e+00
  3.560285e+00    2.936997e+00
  3.576160e+00    2.925461e+00
  3.592036e+00    2.980568e+00
  3.607912e+00    2.898902e+00
  3.623787e+00    2.908042e+00
  3.639663e+00    2.996703e+00
  3.655538e+00    2.975850e+00
  3.671414e+00    2.979712e+00
  3.687289e+00    2.939257e+00
  3.703165e+00    2.914925e+00
  3.719041e+00    2.872260e+00
  3.734916e+00    2.865448e+00
  3.750792e+00    2.977860e+00
  3.766667e+00    3.025306e+00
  3.782543e+00    2.996678e+00
  3.798418e+00    2.957836e+00
  3.814294e+00    2.983033e+00
  3.830170e+00    2.942612e+00
  3.846045e+00    3.044046e+00
  3.861921e+00    3.028883e+00
  3.877796e+00    3.003807e+00
  3.893672e+00    2.991293e+00
  3.909547e+00    2.925443e+00
  3.925423e+00    2.858254e+00
  3.941299e+00    2.979115e+00
  3.957174e+00    3.024363e+00
  3.973050e+00    2.945234e+00
  3.988925e+00    3.013535e+00
  4.004801e+00    3.055093e+00
  4.020676e+00    3.048724e+00
  4.036552e+00    3.061513e+00
  4.052428e+00    3.043095e+00
  4.068303e+00    3.022839e+00
  4.084179e+00    2.968047e+00
  4.100054e+00    3.001122e+00
  4.115930e+00    2.988949e+00
  4.131806e+00    2.977013e+00
  4.147681e+00    2.991753e+00
  4.163557e+00    3.028157e+00
  4.179432e+00    3.061169e+00
  4.195308e+00    2.956502e+00
  4.211183e+00    3.041730e+00
  4.227059e+00    3.036991e+00
  4.242935e+00    2.987404e+00
  4.258810e+00    2.937276e+00
  4.274686e+00    2.982140e+00
  4.290561e+00    2.980434e+00
  4.306437e+00    3.002915e+00
  4.322312e+00    2.999057e+00
  4.338188e+00    3.026501e+00
  4.354064e+00    3.003627e+00
  4.369939e+00    3.033648e+00
  4.385815e+00    2.989863e+00
  4.401690e+00    3.077974e+00
  4.417566e+00    3.086234e+00
  4.433441e+00    3.077392e+00
  4.449317e+00    3.088759e+00
  4.465193e+00    3.049513e+00
  4.481068e+00    2.977423e+00
  4.496944e+00    3.022849e+00
  4.512819e+00    3.006719e+00
  4.528695e+00    2.987689e+00
  4.544570e+00    3.025240e+00
  4.560446e+00    3.045001e+00
  4.576322e+00    3.101562e+00
  4.592197e+00    2.997948e+00
  4.608073e+00    2.995886e+00
  4.623948e+00    3.069066e+00
  4.639824e+00    3.066977e+00
  4.655699e+00    3.007408e+00
  4.671575e+00    2.946405e+00
  4.687451e+00    2.925579e+00
  4.703326e+00    3.017141e+00
  4.719202e+00    3.010068e+00
  4.735077e+00    2.986976e+00
  4.750953e+00    3.012657e+00
  4.766828e+00    3.107162e+00
  4.782704e+00    3.076698e+00
  4.798580e+00    3.090151e+00
  4.814455e+00    3.109726e+00
  4.830331e+00    3.111326e+00
  4.846206e+00    3.140446e+00
  4.862082e+00    3.199168e+00
  4.877957e+00    3.268861e+00
  4.893833e+00    3.173968e+00
  4.909709e+00    3.100730e+00
  4.925584e+00    3.129678e+00
  4.941460e+00    3.116780e+00
  4.957335e+00    3.002054e+00
  4.973211e+00    3.125290e+00
  4.989086e+00    3.102150e+00
  5.004962e+00    3.071471e+00
  5.020838e+00    3.029368e+00
  5.036713e+00    3.087236e+00
  5.052589e+00    3.096485e+00
  5.068464e+00    3.091269e+00
  5.084340e+00    3.013959e+00
  5.100216e+00    3.042228e+00
  5.116091e+00    3.097329e+00
  5.131967e+00    3.052012e+00
  5.147842e+00    3.113268e+00
  5.163718e+00    3.117649e+00
  5.179593e+00    3.120722e+00
  5.195469e+00    3.120084e+00
  5.211345e+00    3.055814e+00
  5.227220e+00    3.056701e+00
  5.243096e+00    3.089899e+00
  5.258971e+00    3.079091e+00
  5.274847e+00    3.124401e+00
  5.290722e+00    3.097220e+00
  5.306598e+00    3.097272e+00
  5.322474e+00    3.177324e+00
  5.338349e+00    3.154108e+00
  5.354225e+00    3.044127e+00
  5.370100e+00    3.056920e+00
  5.385976e+00    3.059063e+00
  5.401851e+00    3.128681e+00
  5.417727e+00    3.054808e+00
  5.433603e+00    2.983954e+00
  5.449478e+00    3.005945e+00
  5.465354e+00    3.127378e+00
  5.481229e+00    3.124304e+00
  5.497105e+00    3.091739e+00
  5.512980e+00    3.106114e+00
  5.528856e+00    3.046917e+00
  5.544732e+00    3.041134e+00
  5.560607e+00    3.014167e+00
  5.576483e+00    3.018094e+00
  5.592358e+00    3.093351e+00
  5.608234e+00    3.082142e+00
  5.624109e+00    3.048286e+00
  5.639985e+00    3.074625e+00
  5.655861e+00    3.097448e+00
  5.671736e+00    3.061942e+00
  5.687612e+00    3.143459e+00
  5.703487e+00    3.082488e+00
  5.719363e+00    3.015396e+00
  5.735238e+00    3.033103e+00
  5.751114e+00    2.998143e+00
  5.766990e+00    3.020801e+00
  5.782865e+00    3.070247e+00
  5.798741e+00    3.107712e+00
  5.814616e+00    3.084778e+00
  5.830492e+00    3.093308e+00
  5.846367e+00    3.014580e+00
  5.862243e+00    3.003064e+00
  5.878119e+00    3.021680e+00
  5.893994e+00    3.018632e+00
  5.909870e+00    2.985118e+00
  5.925745e+00    2.954138e+00
  5.941621e+00    2.983990e+00
  5.957497e+00    3.012213e+00
  5.973372e+00    3.055708e+00
  5.989248e+00    3.058126e+00
  6.005123e+00    3.031001e+00
  6.020999e+00    3.003220e+00
  6.036874e+00    3.006129e+00
  6.052750e+00    3.019236e+00
  6.068626e+00    3.046603e+00
  6.084501e+00    3.155099e+00
  6.100377e+00    3.117605e+00
  6.116252e+00    3.035102e+00
  6.132128e+00    3.066304e+00
  6.148003e+00    3.073964e+00
  6.163879e+00    3.046882e+00
  6.179755e+00    2.989123e+00
  6.195630e+00    2.998606e+00
  6.211506e+00    3.007238e+00
  6.227381e+00    3.050884e+00
  6.243257e+00    3.045766e+00
  6.259132e+00    3.000322e+00
  6.275008e+00    2.988104e+00
  6.290884e+00    2.945129e+00
  6.306759e+00    3.006273e+00
  6.322635e+00    3.005692e+00
  6.338510e+00    3.023884e+00
  6.354386e+00    3.052208e+00
  6.370261e+00    3.008598e+00
  6.386137e+00    3.053690e+00
  6.402013e+00    3.025636e+00
  6.417888e+00    2.964172e+00
  6.433764e+00    2.946652e+00
  6.449639e+00    2.930922e+00
  6.465515e+00    2.935217e+00
  6.481390e+00    2.966290e+00
  6.497266e+00    3.027366e+00
  6.513142e+00    3.035479e+00
  6.529017e+00    3.037235e+00
  6.544893e+00    3.060457e+00
  6.560768e+00    3.036951e+00
  6.576644e+00    2.982700e+00
  6.592519e+00    3.015928e+00
  6.608395e+00    3.035858e+00
  6.624271e+00    3.058010e+00
  6.640146e+00    3.075786e+00
  6.656022e+00    3.107166e+00
  6.671897e+00    3.055300e+00
  6.687773e+00    3.042443e+00
  6.703648e+00    2.994587e+00
  6.719524e+00    2.987754e+00
  6.735400e+00    2.977847e+00
  6.751275e+00    3.010230e+00
  6.767151e+00    3.041308e+00
  6.783026e+00    2.999720e+00
  6.798902e+00    2.966201e+00
  6.814777e+00    2.899470e+00
  6.830653e+00    2.978845e+00
  6.846529e+00    3.007511e+00
  6.862404e+00    3.005015e+00
  6.878280e+00    3.029830e+00
  6.894155e+00    2.982898e+00
  6.910031e+00    3.008692e+00
  6.925907e+00    2.976311e+00
  6.941782e+00    3.008188e+00
  6.957658e+00    2.987298e+00
  6.973533e+00    3.036983e+00
  6.989409e+00    2.997049e+00
  7.005284e+00    2.959597e+00
  7.021160e+00    2.988970e+00
  7.037036e+00    2.985818e+00
  7.052911e+00    2.969388e+00
  7.068787e+00    2.994783e+00
  7.084662e+00    2.977412e+00
  7.100538e+00    2.951926e+00
  7.116413e+00    2.955166e+00
  7.132289e+00    2.974093e+00
  7.148165e+00    2.978586e+00
  7.164040e+00    2.977708e+00
  7.179916e+00    3.011616e+00
  7.195791e+00    3.003696e+00
  7.211667e+00    2.948831e+00
  7.227542e+00    2.922752e+00
  7.243418e+00    2.959934e+00
  7.259294e+00    2.951802e+00
  7.275169e+00    2.965086e+00
  7.291045e+00    2.957464e+00
  7.306920e+00    2.959931e+00
  7.322796e+00    2.958369e+00
  7.338671e+00    2.926976e+00
  7.354547e+00    2.936528e+00
  7.370423e+00    2.951704e+00
  7.386298e+00    2.972874e+00
  7.402174e+00    2.905776e+00
  7.418049e+00    2.960189e+00
  7.433925e+00    2.932694e+00
  7.449800e+00    2.927475e+00
  7.465676e+00    3.014529e+00
  7.481552e+00    2.938510e+00
  7.497427e+00    2.899278e+00
  7.513303e+00    2.961950e+00
  7.529178e+00    2.988049e+00
  7.545054e+00    2.971904e+00
  7.560929e+00    2.942632e+00
  7.576805e+00    2.941928e+00
  7.592681e+00    2.889683e+00
  7.608556e+00    2.922252e+00
  7.624432e+00    2.940268e+00
  7.640307e+00    2.913475e+00
  7.656183e+00    2.928180e+00
  7.672058e+00    2.948090e+00
  7.687934e+00    2.913809e+00
  7.703810e+00    2.925106e+00
  7.719685e+00    2.930002e+00
  7.735561e+00    2.926389e+00
  7.751436e+00    2.914199e+00
  7.767312e+00    2.880716e+00
  7.783187e+00    2.865851e+00
  7.799063e+00    2.944157e+00
  7.814939e+00    2.921891e+00
  7.830814e+00    2.865017e+00
  7.846690e+00    2.925633e+00
  7.862565e+00    2.904997e+00
  7.878441e+00    2.893876e+00
  7.894317e+00    2.879280e+00
  7.910192e+00    2.918727e+00
  7.926068e+00    2.935806e+00
  7.941943e+00    2.906688e+00
  7.957819e+00    2.852899e+00
  7.973694e+00    2.921396e+00
  7.989570e+00    2.934609e+00
  8.005446e+00    2.899650e+00
  8.021321e+00    2.920702e+00
  8.037197e+00    2.961998e+00
  8.053072e+00    2.959576e+00
  8.068948e+00    2.904725e+00
  8.084823e+00    2.894201e+00
  8.100699e+00    2.909454e+00
  8.116575e+00    2.903557e+00
  8.132450e+00    2.936964e+00
  8.148326e+00    2.902735e+00
  8.164201e+00    2.992346e+00
  8.180077e+00    2.984750e+00
  8.195952e+00    2.956388e+00
  8.211828e+00    2.975122e+00
  8.227704e+00    2.917794e+00
  8.243579e+00    2.964889e+00
  8.259455e+00    2.912506e+00
  8.275330e+00    2.896560e+00
  8.291206e+00    2.915167e+00
  8.307081e+00    2.877593e+00
  8.322957e+00    2.859378e+00
  8.338833e+00    2.860188e+00
  8.354708e+00    2.934004e+00
  8.370584e+00    2.915463e+00
  8.386459e+00    2.898911e+00
  8.402335e+00    2.900848e+00
  8.418210e+00    2.872749e+00
  8.434086e+00    2.885030e+00
  8.449962e+00    2.837635e+00
  8.465837e+00    2.900281e+00
  8.481713e+00    2.947619e+00
  8.497588e+00    2.919700e+00
  8.513464e+00    2.895149e+00
  8.529339e+00    2.890602e+00
  8.545215e+00    2.866969e+00
  8.561091e+00    2.824131e+00
  8.576966e+00    2.871059e+00
  8.592842e+00    2.864235e+00
  8.608717e+00    2.855778e+00
  8.624593e+00    2.876295e+00
  8.640468e+00    2.893261e+00
  8.656344e+00    2.899123e+00
  8.672220e+00    2.922809e+00
  8.688095e+00    2.859112e+00
  8.703971e+00    2.825708e+00
  8.719846e+00    2.809953e+00
  8.735722e+00    2.821529e+00
  8.751598e+00    2.856167e+00
  8.767473e+00    2.853465e+00
  8.783349e+00    2.831367e+00
  8.799224e+00    2.805045e+00
  8.815100e+00    2.844467e+00
  8.830975e+00    2.875384e+00
  8.846851e+00    2.802691e+00
  8.862727e+00    2.812722e+00
  8.878602e+00    2.848315e+00
  8.894478e+00    2.799595e+00
  8.910353e+00    2.781881e+00
  8.926229e+00    2.848326e+00
  8.942104e+00    2.863850e+00
  8.957980e+00    2.863229e+00
  8.973856e+00    2.812244e+00
  8.989731e+00    2.831665e+00
  9.005607e+00    2.812061e+00
  9.021482e+00    2.791381e+00
  9.037358e+00    2.802166e+00
  9.053233e+00    2.844360e+00
  9.069109e+00    2.770928e+00
  9.084985e+00    2.762450e+00
  9.100860e+00    2.751710e+00
  9.116736e+00    2.782820e+00
  9.132611e+00    2.751176e+00
  9.148487e+00    2.707633e+00
  9.164362e+00    2.743845e+00
  9.180238e+00    2.744255e+00
  9.196114e+00    2.706395e+00
  9.211989e+00    2.705440e+00
  9.227865e+00    2.782902e+00
  9.243740e+00    2.771000e+00
  9.259616e+00    2.743687e+00
  9.275491e+00    2.783155e+00
  9.291367e+00    2.770499e+00
  9.307243e+00    2.737383e+00
  9.323118e+00    2.745292e+00
  9.338994e+00    2.723770e+00
  9.354869e+00    2.697835e+00
  9.370745e+00    2.751872e+00
  9.386620e+00    2.773876e+00
  9.402496e+00    2.706525e+00
  9.418372e+00    2.719149e+00
  9.434247e+00    2.690320e+00
  9.450123e+00    2.706921e+00
  9.465998e+00    2.734008e+00
  9.481874e+00    2.771864e+00
  9.497749e+00    2.758104e+00
  9.513625e+00    2.758899e+00
  9.529501e+00    2.742097e+00
  9.545376e+00    2.703319e+00
  9.561252e+00    2.769101e+00
  9.577127e+00    2.784401e+00
  9.593003e+00    2.751135e+00
  9.608878e+00    2.747354e+00
  9.624754e+00    2.751272e+00
  9.640630e+00    2.741001e+00
  9.656505e+00    2.696552e+00
  9.672381e+00    2.737931e+00
  9.688256e+00    2.757867e+00
  9.704132e+00    2.692990e+00
  9.720008e+00    2.668890e+00
  9.735883e+00    2.752229e+00
  9.751759e+00    2.721841e+00
  9.767634e+00    2.700335e+00
  9.783510e+00    2.688406e+00
  9.799385e+00    2.713209e+00
  9.815261e+00    2.669841e+00
  9.831137e+00    2.697829e+00
  9.847012e+00    2.708900e+00
  9.862888e+00    2.672002e+00
  9.878763e+00    2.650987e+00
  9.894639e+00    2.648885e+00
  9.910514e+00    2.676011e+00
  9.926390e+00    2.668229e+00
  9.942266e+00    2.677155e+00
  9.958141e+00    2.660934e+00
  9.974017e+00    2.655420e+00
  9.989892e+00    2.680673e+00
  1.000577e+01    2.708046e+00
  1.002164e+01    2.681673e+00
  1.003752e+01    2.615554e+00
  1.005339e+01    2.639453e+00
  1.006927e+01    2.601332e+00
  1.008515e+01    2.682974e+00
  1.010102e+01    2.663846e+00
  1.011690e+01    2.619928e+00
  1.013277e+01    2.626698e+00
  1.014865e+01    2.612316e+00
  1.016452e+01    2.623903e+00
  1.018040e+01    2.658102e+00
  1.019627e+01    2.626723e+00
  1.021215e+01    2.617938e+00
  1.022803e+01    2.596553e+00
  1.024390e+01    2.600186e+00
  1.025978e+01    2.612092e+00
  1.027565e+01    2.566990e+00
  1.029153e+01    2.560553e+00
  1.030740e+01    2.552912e+00
  1.032328e+01    2.568203e+00
  1.033915e+01    2.617049e+00
  1.035503e+01    2.634544e+00
  1.037091e+01    2.588986e+00
  1.038678e+01    2.614257e+00
  1.040266e+01    2.622885e+00
  1.041853e+01    2.564971e+00
  1.043441e+01    2.553371e+00
  1.045028e+01    2.547808e+00
  1.046616e+01    2.587351e+00
  1.048204e+01    2.602132e+00
  1.049791e+01    2.588464e+00
  1.051379e+01    2.571851e+00
  1.052966e+01    2.594489e+00
  1.054554e+01    2.607350e+00
  1.056141e+01    2.580961e+00
  1.057729e+01    2.524042e+00
  1.059316e+01    2.549692e+00
  1.060904e+01    2.568450e+00
  1.062492e+01    2.586887e+00
  1.064079e+01    2.596090e+00
  1.065667e+01    2.546095e+00
  1.067254e+01    2.518209e+00
  1.068842e+01    2.555727e+00
  1.070429e+01    2.529532e+00
  1.072017e+01    2.498305e+00
  1.073604e+01    2.522886e+00
  1.075192e+01    2.529621e+00
  1.076780e+01    2.486931e+00
  1.078367e+01    2.538436e+00
  1.079955e+01    2.523147e+00
  1.081542e+01    2.558369e+00
  1.083130e+01    2.548360e+00
  1.084717e+01    2.542400e+00
  1.086305e+01    2.543701e+00
  1.087892e+01    2.509206e+00
  1.089480e+01    2.543180e+00
  1.091068e+01    2.528779e+00
  1.092655e+01    2.481045e+00
  1.094243e+01    2.493189e+00
  1.095830e+01    2.474865e+00
  1.097418e+01    2.486291e+00
  1.099005e+01    2.473285e+00
  1.100593e+01    2.485024e+00
  1.102180e+01    2.469878e+00
  1.103768e+01    2.492945e+00
  1.105356e+01    2.477109e+00
  1.106943e+01    2.424300e+00
  1.108531e+01    2.429372e+00
  1.110118e+01    2.441855e+00
  1.111706e+01    2.462952e+00
  1.113293e+01    2.451524e+00
  1.114881e+01    2.455356e+00
  1.116468e+01    2.465554e+00
  1.118056e+01    2.424747e+00
  1.119644e+01    2.443680e+00
  1.121231e+01    2.475091e+00
  1.122819e+01    2.461679e+00
  1.124406e+01    2.421779e+00
  1.125994e+01    2.416949e+00
  1.127581e+01    2.394063e+00
  1.129169e+01    2.477614e+00
  1.130756e+01    2.443616e+00
  1.132344e+01    2.426113e+00
  1.133932e+01    2.426072e+00
  1.135519e+01    2.438213e+00
  1.137107e+01    2.399953e+00
  1.138694e+01    2.461556e+00
  1.140282e+01    2.370652e+00
  1.141869e+01    2.365678e+00
  1.143457e+01    2.380749e+00
  1.145045e+01    2.406939e+00
  1.146632e+01    2.419333e+00
  1.148220e+01    2.413461e+00
  1.149807e+01    2.361118e+00
  1.151395e+01    2.414250e+00
  1.152982e+01    2.396722e+00
  1.154570e+01    2.414950e+00
  1.156157e+01    2.388718e+00
  1.157745e+01    2.392093e+00
  1.159333e+01    2.406691e+00
  1.160920e+01    2.361552e+00
  1.162508e+01    2.348048e+00
  1.164095e+01    2.361838e+00
  1.165683e+01    2.334641e+00
  1.167270e+01    2.342674e+00
  1.168858e+01    2.347173e+00
  1.170445e+01    2.342743e+00
  1.172033e+01    2.367133e+00
  1.173621e+01    2.374313e+00
  1.175208e+01    2.366802e+00
  1.176796e+01    2.358992e+00
  1.178383e+01    2.378461e+00
  1.179971e+01    2.354539e+00
  1.181558e+01    2.347379e+00
  1.183146e+01    2.362633e+00
  1.184733e+01    2.356269e+00
  1.186321e+01    2.336052e+00
  1.187909e+01    2.318098e+00
  1.189496e+01    2.331787e+00
  1.191084e+01    2.314485e+00
  1.192671e+01    2.316575e+00
  1.194259e+01    2.330307e+00
  1.195846e+01    2.303389e+00
  1.197434e+01    2.301298e+00
  1.199021e+01    2.320495e+00
  1.200609e+01    2.273531e+00
  1.202197e+01    2.301247e+00
  1.203784e+01    2.305773e+00
  1.205372e+01    2.301384e+00
  1.206959e+01    2.327695e+00
  1.208547e+01    2.374374e+00
  1.210134e+01    2.336363e+00
  1.211722e+01    2.314286e+00
  1.213309e+01    2.310766e+00
  1.214897e+01    2.319619e+00
  1.216485e+01    2.285617e+00
  1.218072e+01    2.310111e+00
  1.219660e+01    2.251504e+00
  1.221247e+01    2.268098e+00
  1.222835e+01    2.344088e+00
  1.224422e+01    2.318532e+00
  1.226010e+01    2.292120e+00
  1.227597e+01    2.312683e+00
  1.229185e+01    2.347538e+00
  1.230773e+01    2.293447e+00
  1.232360e+01    2.298314e+00
  1.233948e+01    2.345312e+00
  1.235535e+01    2.350530e+00
  1.237123e+01    2.307055e+00
  1.238710e+01    2.309054e+00
  1.240298e+01    2.315309e+00
  1.241886e+01    2.329204e+00
  1.243473e+01    2.341279e+00
  1.245061e+01    2.327211e+00
  1.246648e+01    2.291715e+00
  1.248236e+01    2.285524e+00
  1.249823e+01    2.321442e+00
  1.251411e+01    2.347451e+00
  1.252998e+01    2.377110e+00
  1.254586e+01    2.349730e+00
  1.256174e+01    2.307591e+00
  1.257761e+01    2.349178e+00
  1.259349e+01    2.363486e+00
  1.260936e+01    2.392885e+00
  1.262524e+01    2.376139e+00
  1.264111e+01    2.426577e+00
  1.265699e+01    2.415940e+00
  1.267286e+01    2.389393e+00
  1.268874e+01    2.421931e+00
  1.270462e+01    2.458443e+00
  1.272049e+01    2.545352e+00
  1.273637e+01    2.540503e+00
  1.275224e+01    2.521836e+00
  1.276812e+01    2.565673e+00
  1.278399e+01    2.600173e+00
  1.279987e+01    2.613307e+00
  1.281574e+01    2.698606e+00
  1.283162e+01    2.785993e+00
  1.284750e+01    2.829393e+00
  1.286337e+01    2.913736e+00
  1.287925e+01    3.007733e+00
  1.289512e+01    3.094532e+00
  1.291100e+01    3.263005e+00
  1.292687e+01    3.482081e+00
  1.294275e+01    3.672791e+00
  1.295862e+01    3.939485e+00
  1.297450e+01    4.276696e+00
  1.299038e+01    4.683161e+00
  1.300625e+01    5.165529e+00
  1.302213e+01    5.923385e+00
  1.303800e+01    6.877411e+00
  1.305388e+01    7.953612e+00
  1.306975e+01    9.255400e+00
  1.308563e+01    1.062468e+01
  1.310150e+01    1.209509e+01
  1.311738e+01    1.341016e+01
  1.313326e+01    1.486195e+01
  1.314913e+01    1.618954e+01
  1.316501e+01    1.743192e+01
  1.318088e+01    1.835729e+01
  1.319676e+01    1.845936e+01
  1.321263e+01    1.786639e+01
  1.322851e+01    1.644457e+01
  1.324438e+01    1.422301e+01
  1.326026e+01    1.200827e+01
  1.327614e+01    1.002137e+01
  1.329201e+01    8.407796e+00
  1.330789e+01    7.262486e+00
  1.332376e+01    6.271698e+00
  1.333964e+01    5.494589e+00
  1.335551e+01    4.883179e+00
  1.337139e+01    4.425052e+00
  1.338727e+01    4.090305e+00
  1.340314e+01    3.737204e+00
  1.341902e+01    3.505967e+00
  1.343489e+01    3.307434e+00
  1.345077e+01    3.121788e+00
  1.346664e+01    2.988979e+00
  1.348252e+01    2.866995e+00
  1.349839e+01    2.824378e+00
  1.351427e+01    2.683913e+00
  1.353015e+01    2.644127e+00
  1.354602e+01    2.600868e+00
  1.356190e+01    2.545731e+00
  1.357777e+01    2.496932e+00
  1.359365e+01    2.517070e+00
  1.360952e+01    2.444038e+00
  1.362540e+01    2.398602e+00
  1.364127e+01    2.392706e+00
  1.365715e+01    2.331719e+00
  1.367303e+01    2.346553e+00
  1.368890e+01    2.285024e+00
  1.370478e+01    2.286830e+00
  1.372065e+01    2.251331e+00
  1.373653e+01    2.235359e+00
  1.375240e+01    2.258459e+00
  1.376828e+01    2.235478e+00
  1.378415e+01    2.177872e+00
  1.380003e+01    2.171611e+00
  1.381591e+01    2.195431e+00
  1.383178e+01    2.167219e+00
  1.384766e+01    2.152014e+00
  1.386353e+01    2.112208e+00
  1.387941e+01    2.141265e+00
  1.389528e+01    2.123457e+00
  1.391116e+01    2.077561e+00
  1.392703e+01    2.072846e+00
  1.394291e+01    2.104331e+00
  1.395879e+01    2.068432e+00
  1.397466e+01    2.049570e+00
  1.399054e+01    2.037922e+00
  1.400641e+01    2.044862e+00
  1.402229e+01    2.017706e+00
  1.403816e+01    2.050115e+00
  1.405404e+01    2.021868e+00
  1.406991e+01    2.018653e+00
  1.408579e+01    2.035766e+00
  1.410167e+01    2.020782e+00
  1.411754e+01    2.013642e+00
  1.413342e+01    1.999425e+00
  1.414929e+01    1.973316e+00
  1.416517e+01    1.959394e+00
  1.418104e+01    1.981053e+00
  1.419692e+01    1.979420e+00
  1.421279e+01    1.968140e+00
  1.422867e+01    1.971368e+00
  1.424455e+01    1.968008e+00
  1.426042e+01    1.979020e+00
  1.427630e+01    1.954151e+00
  1.429217e+01    1.908870e+00
  1.430805e+01    1.924477e+00
  1.432392e+01    1.945952e+00
  1.433980e+01    1.966825e+00
  1.435568e+01    1.952635e+00
  1.437155e+01    1.909371e+00
  1.438743e+01    1.909904e+00
  1.440330e+01    1.910788e+00
  1.441918e+01    1.902047e+00
  1.443505e+01    1.924847e+00
  1.445093e+01    1.918503e+00
  1.446680e+01    1.901792e+00
  1.448268e+01    1.901271e+00
  1.449856e+01    1.932764e+00
  1.451443e+01    1.923500e+00
  1.453031e+01    1.922807e+00
  1.454618e+01    1.915201e+00
  1.456206e+01    1.942212e+00
  1.457793e+01    1.921609e+00
  1.459381e+01    1.883500e+00
  1.460968e+01    1.884182e+00
  1.462556e+01    1.923728e+00
  1.464144e+01    1.926851e+00
  1.465731e+01    1.943192e+00
  1.467319e+01    1.900550e+00
  1.468906e+01    1.960849e+00
  1.470494e+01    1.945668e+00
  1.472081e+01    1.929802e+00
  1.473669e+01    1.922362e+00
  1.475256e+01    1.907332e+00
  1.476844e+01    1.920428e+00
  1.478432e+01    1.914469e+00
  1.480019e+01    1.904579e+00
  1.481607e+01    1.911013e+00
  1.483194e+01    1.895341e+00
  1.484782e+01    1.906848e+00
  1.486369e+01    1.942047e+00
  1.487957e+01    1.917051e+00
  1.489544e+01    1.942005e+00
  1.491132e+01    1.987260e+00
  1.492720e+01    1.977406e+00
  1.494307e+01    2.008136e+00
  1.495895e+01    1.997591e+00
  1.497482e+01    1.997362e+00
  1.499070e+01    2.075033e+00
  1.500657e+01    2.147967e+00
  1.502245e+01    2.174345e+00
  1.503832e+01    2.245896e+00
  1.505420e+01    2.330050e+00
  1.507008e+01    2.434056e+00
  1.508595e+01    2.613775e+00
  1.510183e+01    2.833737e+00
  1.511770e+01    2.986680e+00
  1.513358e+01    3.227034e+00
  1.514945e+01    3.589484e+00
  1.516533e+01    4.023402e+00
  1.518120e+01    4.451346e+00
  1.519708e+01    4.871109e+00
  1.521296e+01    5.286647e+00
  1.522883e+01    5.622833e+00
  1.524471e+01    5.858809e+00
  1.526058e+01    6.053557e+00
  1.527646e+01    6.219030e+00
  1.529233e+01    6.264274e+00
  1.530821e+01    6.072165e+00
  1.532409e+01    5.627523e+00
  1.533996e+01    5.019025e+00
  1.535584e+01    4.426516e+00
  1.537171e+01    3.916009e+00
  1.538759e+01    3.491449e+00
  1.540346e+01    3.116927e+00
  1.541934e+01    2.843927e+00
  1.543521e+01    2.659901e+00
  1.545109e+01    2.491017e+00
  1.546697e+01    2.327255e+00
  1.548284e+01    2.264308e+00
  1.549872e+01    2.135779e+00
  1.551459e+01    2.082522e+00
  1.553047e+01    2.032963e+00
  1.554634e+01    1.977083e+00
  1.556222e+01    1.956734e+00
  1.557809e+01    1.903026e+00
  1.559397e+01    1.848765e+00
  1.560985e+01    1.885117e+00
  1.562572e+01    1.850403e+00
  1.564160e+01    1.795041e+00
  1.565747e+01    1.777139e+00
  1.567335e+01    1.790954e+00
  1.568922e+01    1.715807e+00
  1.570510e+01    1.753244e+00
  1.572097e+01    1.726808e+00
  1.573685e+01    1.769518e+00
  1.575273e+01    1.727553e+00
  1.576860e+01    1.695303e+00
  1.578448e+01    1.693901e+00
  1.580035e+01    1.702277e+00
  1.581623e+01    1.678143e+00
  1.583210e+01    1.669314e+00
  1.584798e+01    1.667734e+00
  1.586385e+01    1.662720e+00
  1.587973e+01    1.631638e+00
  1.589561e+01    1.617524e+00
  1.591148e+01    1.623089e+00
  1.592736e+01    1.661831e+00
  1.594323e+01    1.646295e+00
  1.595911e+01    1.615030e+00
  1.597498e+01    1.589973e+00
  1.599086e+01    1.566818e+00
  1.600673e+01    1.604875e+00
  1.602261e+01    1.591848e+00
  1.603849e+01    1.591158e+00
  1.605436e+01    1.611860e+00
  1.607024e+01    1.585482e+00
  1.608611e+01    1.577798e+00
  1.610199e+01    1.591059e+00
  1.611786e+01    1.626227e+00
  1.613374e+01    1.631261e+00
  1.614961e+01    1.590464e+00
  1.616549e+01    1.576126e+00
  1.618137e+01    1.586829e+00
  1.619724e+01    1.571467e+00
  1.621312e+01    1.576022e+00
  1.622899e+01    1.552230e+00
  1.624487e+01    1.538246e+00
  1.626074e+01    1.554431e+00
  1.627662e+01    1.530007e+00
  1.629250e+01    1.530382e+00
  1.630837e+01    1.559556e+00
  1.632425e+01    1.536491e+00
  1.634012e+01    1.546495e+00
  1.635600e+01    1.557313e+00
  1.637187e+01    1.539536e+00
  1.638775e+01    1.529118e+00
  1.640362e+01    1.527559e+00
  1.641950e+01    1.536797e+00
  1.643538e+01    1.517190e+00
  1.645125e+01    1.513712e+00
  1.646713e+01    1.497651e+00
  1.648300e+01    1.512020e+00
  1.649888e+01    1.521030e+00
  1.651475e+01    1.519286e+00
  1.653063e+01    1.497386e+00
  1.654650e+01    1.481343e+00
  1.656238e+01    1.494493e+00
  1.657826e+01    1.516043e+00
  1.659413e+01    1.508444e+00
  1.661001e+01    1.504725e+00
  1.662588e+01    1.500913e+00
  1.664176e+01    1.517451e+00
  1.665763e+01    1.472845e+00
  1.667351e+01    1.475063e+00
  1.668938e+01    1.480460e+00
  1.670526e+01    1.495452e+00
  1.672114e+01    1.477016e+00
  1.673701e+01    1.501998e+00
  1.675289e+01    1.479299e+00
  1.676876e+01    1.445822e+00
  1.678464e+01    1.464267e+00
  1.680051e+01    1.459174e+00
  1.681639e+01    1.421477e+00
  1.683226e+01    1.424271e+00
  1.684814e+01    1.438515e+00
  1.686402e+01    1.435240e+00
  1.687989e+01    1.442556e+00
  1.689577e+01    1.455150e+00
  1.691164e+01    1.466783e+00
  1.692752e+01    1.480089e+00
  1.694339e+01    1.473291e+00
  1.695927e+01    1.472663e+00
  1.697514e+01    1.425305e+00
  1.699102e+01    1.430075e+00
  1.700690e+01    1.465190e+00
  1.702277e+01    1.446448e+00
  1.703865e+01    1.409941e+00
  1.705452e+01    1.410187e+00
  1.707040e+01    1.448313e+00
  1.708627e+01    1.432236e+00
  1.710215e+01    1.413998e+00
  1.711802e+01    1.425887e+00
  1.713390e+01    1.429537e+00
  1.714978e+01    1.376538e+00
  1.716565e+01    1.385237e+00
  1.718153e+01    1.407706e+00
  1.719740e+01    1.408711e+00
  1.721328e+01    1.405899e+00
  1.722915e+01    1.408545e+00
  1.724503e+01    1.401551e+00
  1.726091e+01    1.387705e+00
  1.727678e+01    1.405999e+00
  1.729266e+01    1.373450e+00
  1.730853e+01    1.360386e+00
  1.732441e+01    1.371897e+00
  1.734028e+01    1.380306e+00
  1.735616e+01    1.385119e+00
  1.737203e+01    1.370956e+00
  1.738791e+01    1.376206e+00
  1.740379e+01    1.384791e+00
  1.741966e+01    1.364188e+00
  1.743554e+01    1.356961e+00
  1.745141e+01    1.378519e+00
  1.746729e+01    1.353449e+00
  1.748316e+01    1.355282e+00
  1.749904e+01    1.387123e+00
  1.751491e+01    1.356498e+00
  1.753079e+01    1.365651e+00
  1.754667e+01    1.362411e+00
  1.756254e+01    1.344288e+00
  1.757842e+01    1.338453e+00
  1.759429e+01    1.336300e+00
  1.761017e+01    1.346779e+00
  1.762604e+01    1.329086e+00
  1.764192e+01    1.335108e+00
  1.765779e+01    1.351302e+00
  1.767367e+01    1.390844e+00
  1.768955e+01    1.358658e+00
  1.770542e+01    1.329444e+00
  1.772130e+01    1.319746e+00
  1.773717e+01    1.343599e+00
  1.775305e+01    1.330274e+00
  1.776892e+01    1.301345e+00
  1.778480e+01    1.303198e+00
  1.780067e+01    1.339640e+00
  1.781655e+01    1.311922e+00
  1.783243e+01    1.299682e+00
  1.784830e+01    1.336119e+00
  1.786418e+01    1.325637e+00
  1.788005e+01    1.323030e+00
  1.789593e+01    1.325021e+00
  1.791180e+01    1.300251e+00
  1.792768e+01    1.286082e+00
  1.794355e+01    1.284818e+00
  1.795943e+01    1.313497e+00
  1.797531e+01    1.336039e+00
  1.799118e+01    1.328528e+00
  1.800706e+01    1.295918e+00
  1.802293e+01    1.290989e+00
  1.803881e+01    1.301052e+00
  1.805468e+01    1.280373e+00
  1.807056e+01    1.287161e+00
  1.808643e+01    1.276692e+00
  1.810231e+01    1.307269e+00
  1.811819e+01    1.299244e+00
  1.813406e+01    1.280617e+00
  1.814994e+01    1.297141e+00
  1.816581e+01    1.280569e+00
  1.818169e+01    1.270519e+00
  1.819756e+01    1.295092e+00
  1.821344e+01    1.261274e+00
  1.822932e+01    1.266468e+00
  1.824519e+01    1.299624e+00
  1.826107e+01    1.306479e+00
  1.827694e+01    1.302297e+00
  1.829282e+01    1.269377e+00
  1.830869e+01    1.237837e+00
  1.832457e+01    1.259774e+00
  1.834044e+01    1.283358e+00
  1.835632e+01    1.251139e+00
  1.837220e+01    1.264184e+00
  1.838807e+01    1.270153e+00
  1.840395e+01    1.272605e+00
  1.841982e+01    1.280584e+00
  1.843570e+01    1.261583e+00
  1.845157e+01    1.235486e+00
  1.846745e+01    1.236588e+00
  1.848332e+01    1.266644e+00
  1.849920e+01    1.264482e+00
  1.851508e+01    1.236906e+00
  1.853095e+01    1.264841e+00
  1.854683e+01    1.236273e+00
  1.856270e+01    1.223390e+00
  1.857858e+01    1.219976e+00
  1.859445e+01    1.237322e+00
  1.861033e+01    1.213006e+00
  1.862620e+01    1.179537e+00
  1.864208e+01    1.208173e+00
  1.865796e+01    1.253485e+00
  1.867383e+01    1.218755e+00
  1.868971e+01    1.207613e+00
  1.870558e+01    1.196662e+00
  1.872146e+01    1.188567e+00
  1.873733e+01    1.203956e+00
  1.875321e+01    1.226287e+00
  1.876908e+01    1.208428e+00
  1.878496e+01    1.196868e+00
  1.880084e+01    1.214339e+00
  1.881671e+01    1.227859e+00
  1.883259e+01    1.220567e+00
  1.884846e+01    1.195787e+00
  1.886434e+01    1.196557e+00
  1.888021e+01    1.216208e+00
  1.889609e+01    1.197918e+00
  1.891196e+01    1.216457e+00
  1.892784e+01    1.200182e+00
  1.894372e+01    1.190053e+00
  1.895959e+01    1.181001e+00
  1.897547e+01    1.184404e+00
  1.899134e+01    1.189535e+00
  1.900722e+01    1.192648e+00
  1.902309e+01    1.205002e+00
  1.903897e+01    1.208886e+00
  1.905484e+01    1.185089e+00
  1.907072e+01    1.197502e+00
  1.908660e+01    1.194073e+00
  1.910247e+01    1.193749e+00
  1.911835e+01    1.195732e+00
  1.913422e+01    1.198977e+00
  1.915010e+01    1.173649e+00
  1.916597e+01    1.187637e+00
  1.918185e+01    1.191312e+00
  1.919773e+01    1.194711e+00
  1.921360e+01    1.171711e+00
  1.922948e+01    1.175873e+00
  1.924535e+01    1.164455e+00
  1.926123e+01    1.183539e+00
  1.927710e+01    1.174200e+00
  1.929298e+01    1.194642e+00
  1.930885e+01    1.205907e+00
  1.932473e+01    1.192753e+00
  1.934061e+01    1.186662e+00
  1.935648e+01    1.183857e+00
  1.937236e+01    1.179549e+00
  1.938823e+01    1.185346e+00
  1.940411e+01    1.163786e+00
  1.941998e+01    1.162845e+00
  1.943586e+01    1.172344e+00
  1.945173e+01    1.161447e+00
  1.946761e+01    1.151388e+00
  1.948349e+01    1.145888e+00
  1.949936e+01    1.146882e+00
  1.951524e+01    1.155321e+00
  1.953111e+01    1.182820e+00
  1.954699e+01    1.169418e+00
  1.956286e+01    1.129476e+00
  1.957874e+01    1.132205e+00
  1.959461e+01    1.137462e+00
  1.961049e+01    1.153801e+00
  1.962637e+01    1.138175e+00
  1.964224e+01    1.146037e+00
  1.965812e+01    1.136812e+00
  1.967399e+01    1.120729e+00
  1.968987e+01    1.152921e+00
  1.970574e+01    1.156615e+00
  1.972162e+01    1.144037e+00
  1.973749e+01    1.131252e+00
  1.975337e+01    1.145158e+00
  1.976925e+01    1.152754e+00
  1.978512e+01    1.115624e+00
  1.980100e+01    1.136354e+00
  1.981687e+01    1.115237e+00
  1.983275e+01    1.117579e+00
  1.984862e+01    1.128584e+00
  1.986450e+01    1.125891e+00
  1.988037e+01    1.104009e+00
  1.989625e+01    1.110575e+00
  1.991213e+01    1.119074e+00
  1.992800e+01    1.116584e+00
  1.994388e+01    1.121130e+00
  1.995975e+01    1.112630e+00
  1.997563e+01    1.106405e+00
  1.999150e+01    1.098330e+00
  2.000738e+01    1.098783e+00
  2.002325e+01    1.119481e+00
  2.003913e+01    1.115577e+00
  2.005501e+01    1.121789e+00
  2.007088e+01    1.107543e+00
  2.008676e+01    1.124536e+00
  2.010263e+01    1.121765e+00
  2.011851e+01    1.134532e+00
  2.013438e+01    1.121655e+00
  2.015026e+01    1.117768e+00
  2.016614e+01    1.127362e+00
  2.018201e+01    1.109284e+00
  2.019789e+01    1.097293e+00
  2.021376e+01    1.107162e+00
  2.022964e+01    1.107320e+00
  2.024551e+01    1.103738e+00
  2.026139e+01    1.100343e+00
  2.027726e+01    1.108271e+00
  2.029314e+01    1.110140e+00
  2.030902e+01    1.110750e+00
  2.032489e+01    1.113799e+00
  2.034077e+01    1.090215e+00
  2.035664e+01    1.105794e+00
  2.037252e+01    1.110781e+00
  2.038839e+01    1.103044e+00
  2.040427e+01    1.088585e+00
  2.042014e+01    1.078992e+00
  2.043602e+01    1.091779e+00
  2.045190e+01    1.080730e+00
  2.046777e+01    1.091655e+00
  2.048365e+01    1.095123e+00
  2.049952e+01    1.069137e+00
  2.051540e+01    1.071870e+00
  2.053127e+01    1.081110e+00
  2.054715e+01    1.100889e+00
  2.056302e+01    1.101129e+00
  2.057890e+01    1.080450e+00
  2.059478e+01    1.081800e+00
  2.061065e+01    1.078469e+00
  2.062653e+01    1.063681e+00
  2.064240e+01    1.075226e+00
  2.065828e+01    1.080786e+00
  2.067415e+01    1.093534e+00
  2.069003e+01    1.086526e+00
  2.070590e+01    1.061378e+00
  2.072178e+01    1.053832e+00
  2.073766e+01    1.054936e+00
  2.075353e+01    1.064191e+00
  2.076941e+01    1.070268e+00
  2.078528e+01    1.062398e+00
  2.080116e+01    1.061692e+00
  2.081703e+01    1.063242e+00
  2.083291e+01    1.066260e+00
  2.084878e+01    1.075869e+00
  2.086466e+01    1.081342e+00
  2.088054e+01    1.070858e+00
  2.089641e+01    1.074866e+00
  2.091229e+01    1.083309e+00
  2.092816e+01    1.095748e+00
  2.094404e+01    1.089035e+00
  2.095991e+01    1.065778e+00
  2.097579e+01    1.040137e+00
  2.099166e+01    1.067492e+00
  2.100754e+01    1.106397e+00
  2.102342e+01    1.090363e+00
  2.103929e+01    1.096620e+00
  2.105517e+01    1.077204e+00
  2.107104e+01    1.058319e+00
  2.108692e+01    1.066364e+00
  2.110279e+01    1.084157e+00
  2.111867e+01    1.088953e+00
  2.113455e+01    1.089895e+00
  2.115042e+01    1.081939e+00
  2.116630e+01    1.105794e+00
  2.118217e+01    1.087986e+00
  2.119805e+01    1.060751e+00
  2.121392e+01    1.079752e+00
  2.122980e+01    1.108195e+00
  2.124567e+01    1.078275e+00
  2.126155e+01    1.091806e+00
  2.127743e+01    1.115493e+00
  2.129330e+01    1.108696e+00
  2.130918e+01    1.118111e+00
  2.132505e+01    1.143159e+00
  2.134093e+01    1.141733e+00
  2.135680e+01    1.154674e+00
  2.137268e+01    1.167821e+00
  2.138855e+01    1.173792e+00
  2.140443e+01    1.177784e+00
  2.142031e+01    1.185007e+00
  2.143618e+01    1.202257e+00
  2.145206e+01    1.237941e+00
  2.146793e+01    1.260544e+00
  2.148381e+01    1.246907e+00
  2.149968e+01    1.249434e+00
  2.151556e+01    1.290580e+00
  2.153143e+01    1.321142e+00
  2.154731e+01    1.381932e+00
  2.156319e+01    1.440474e+00
  2.157906e+01    1.478163e+00
  2.159494e+01    1.492348e+00
  2.161081e+01    1.560608e+00
  2.162669e+01    1.642316e+00
  2.164256e+01    1.743803e+00
  2.165844e+01    1.867777e+00
  2.167431e+01    1.993665e+00
  2.169019e+01    2.173804e+00
  2.170607e+01    2.370999e+00
  2.172194e+01    2.648181e+00
  2.173782e+01    2.988916e+00
  2.175369e+01    3.403732e+00
  2.176957e+01    3.841669e+00
  2.178544e+01    4.414355e+00
  2.180132e+01    5.092071e+00
  2.181719e+01    5.860633e+00
  2.183307e+01    6.595195e+00
  2.184895e+01    7.393726e+00
  2.186482e+01    8.215597e+00
  2.188070e+01    9.012267e+00
  2.189657e+01    9.677509e+00
  2.191245e+01    1.018178e+01
  2.192832e+01    1.024851e+01
  2.194420e+01    9.921726e+00
  2.196007e+01    9.166022e+00
  2.197595e+01    8.118505e+00
  2.199183e+01    6.991838e+00
  2.200770e+01    5.901526e+00
  2.202358e+01    4.969701e+00
  2.203945e+01    4.205250e+00
  2.205533e+01    3.619805e+00
  2.207120e+01    3.191512e+00
  2.208708e+01    2.845082e+00
  2.210296e+01    2.545181e+00
  2.211883e+01    2.294950e+00
  2.213471e+01    2.086732e+00
  2.215058e+01    1.928904e+00
  2.216646e+01    1.792148e+00
  2.218233e+01    1.658653e+00
  2.219821e+01    1.563206e+00
  2.221408e+01    1.485901e+00
  2.222996e+01    1.428936e+00
  2.224584e+01    1.356344e+00
  2.226171e+01    1.338235e+00
  2.227759e+01    1.294756e+00
  2.229346e+01    1.255825e+00
  2.230934e+01    1.216934e+00
  2.232521e+01    1.205775e+00
  2.234109e+01    1.185951e+00
  2.235696e+01    1.149237e+00
  2.237284e+01    1.147550e+00
  2.238872e+01    1.129620e+00
  2.240459e+01    1.135939e+00
  2.242047e+01    1.107344e+00
  2.243634e+01    1.076524e+00
  2.245222e+01    1.100177e+00
  2.246809e+01    1.066055e+00
  2.248397e+01    1.035072e+00
  2.249984e+01    1.046162e+00
  2.251572e+01    1.050837e+00
  2.253160e+01    1.035175e+00
  2.254747e+01    9.967730e-01
  2.256335e+01    9.977520e-01
  2.257922e+01    9.950562e-01
  2.259510e+01    1.002402e+00
  2.261097e+01    1.024026e+00
  2.262685e+01    1.001271e+00
  2.264272e+01    9.746752e-01
  2.265860e+01    9.971056e-01
  2.267448e+01    9.684417e-01
  2.269035e+01    9.782229e-01
  2.270623e+01    9.644683e-01
  2.272210e+01    9.400492e-01
  2.273798e+01    9.404519e-01
  2.275385e+01    9.508995e-01
  2.276973e+01    9.675176e-01
  2.278560e+01    9.436833e-01
  2.280148e+01    9.184484e-01
  2.281736e+01    9.370254e-01
  2.283323e+01    9.289735e-01
  2.284911e+01    9.265499e-01
  2.286498e+01    9.377113e-01
  2.288086e+01    9.047066e-01
  2.289673e+01    9.096780e-01
  2.291261e+01    9.185402e-01
  2.292848e+01    9.065945e-01
  2.294436e+01    8.991980e-01
  2.296024e+01    9.029983e-01
  2.297611e+01    8.964131e-01
  2.299199e+01    9.033507e-01
  2.300786e+01    9.172372e-01
  2.302374e+01    9.144061e-01
  2.303961e+01    8.939952e-01
  2.305549e+01    9.133429e-01
  2.307137e+01    9.130636e-01
  2.308724e+01    8.847748e-01
  2.310312e+01    8.980621e-01
  2.311899e+01    8.969883e-01
  2.313487e+01    8.758888e-01
  2.315074e+01    8.842271e-01
  2.316662e+01    8.852755e-01
  2.318249e+01    8.921869e-01
  2.319837e+01    8.846515e-01
  2.321425e+01    8.699603e-01
  2.323012e+01    8.650370e-01
  2.324600e+01    8.726341e-01
  2.326187e+01    8.513324e-01
  2.327775e+01    8.663311e-01
  2.329362e+01    8.655022e-01
  2.330950e+01    8.738599e-01
  2.332537e+01    8.657616e-01
  2.334125e+01    8.570865e-01
  2.335713e+01    8.558954e-01
  2.337300e+01    8.510767e-01
  2.338888e+01    8.364124e-01
  2.340475e+01    8.419317e-01
  2.342063e+01    8.541157e-01
  2.343650e+01    8.484234e-01
  2.345238e+01    8.454162e-01
  2.346825e+01    8.466923e-01
  2.348413e+01    8.361496e-01
  2.350001e+01    8.296214e-01
  2.351588e+01    8.407991e-01
  2.353176e+01    8.486621e-01
  2.354763e+01    8.536292e-01
  2.356351e+01    8.489054e-01
  2.357938e+01    8.536329e-01
  2.359526e+01    8.472340e-01
  2.361113e+01    8.362825e-01
  2.362701e+01    8.524582e-01
  2.364289e+01    8.462729e-01
  2.365876e+01    8.448854e-01
  2.367464e+01    8.416627e-01
  2.369051e+01    8.229679e-01
  2.370639e+01    8.113441e-01
  2.372226e+01    8.075708e-01
  2.373814e+01    8.220029e-01
  2.375401e+01    8.318945e-01
  2.376989e+01    8.419192e-01
  2.378577e+01    8.138725e-01
  2.380164e+01    7.963329e-01
  2.381752e+01    8.078308e-01
  2.383339e+01    7.996427e-01
  2.384927e+01    8.154482e-01
  2.386514e+01    8.090327e-01
  2.388102e+01    7.784687e-01
  2.389689e+01    7.872812e-01
  2.391277e+01    7.923212e-01
  2.392865e+01    8.098477e-01
  2.394452e+01    8.058734e-01
  2.396040e+01    7.951376e-01
  2.397627e+01    7.876652e-01
  2.399215e+01    7.864633e-01
  2.400802e+01    7.770220e-01
  2.402390e+01    7.715356e-01
  2.403978e+01    7.991394e-01
  2.405565e+01    8.099273e-01
  2.407153e+01    7.824741e-01
  2.408740e+01    7.672738e-01
  2.410328e+01    7.915881e-01
  2.411915e+01    7.772070e-01
  2.413503e+01    7.893274e-01
  2.415090e+01    7.847744e-01
  2.416678e+01    7.822574e-01
  2.418266e+01    7.816143e-01
  2.419853e+01    7.932934e-01
  2.421441e+01    7.934647e-01
  2.423028e+01    7.988310e-01
  2.424616e+01    7.729554e-01
  2.426203e+01    7.814474e-01
  2.427791e+01    7.923294e-01
  2.429378e+01    8.056512e-01
  2.430966e+01    7.728099e-01
  2.432554e+01    7.750347e-01
  2.434141e+01    7.865463e-01
  2.435729e+01    7.768651e-01
  2.437316e+01    7.862868e-01
  2.438904e+01    8.003212e-01
  2.440491e+01    7.826141e-01
  2.442079e+01    7.859490e-01
  2.443666e+01    7.910193e-01
  2.445254e+01    7.842120e-01
  2.446842e+01    7.971185e-01
  2.448429e+01    8.011209e-01
  2.450017e+01    7.736373e-01
  2.451604e+01    7.954344e-01
  2.453192e+01    8.176469e-01
  2.454779e+01    8.002024e-01
  2.456367e+01    7.792923e-01
  2.457954e+01    7.931696e-01
  2.459542e+01    7.917717e-01
  2.461130e+01    7.925776e-01
  2.462717e+01    7.892219e-01
  2.464305e+01    7.922188e-01
  2.465892e+01    8.069925e-01
  2.467480e+01    7.957104e-01
  2.469067e+01    7.782971e-01
  2.470655e+01    7.925591e-01
  2.472242e+01    7.886458e-01
  2.473830e+01    7.831976e-01
  2.475418e+01    7.645618e-01
  2.477005e+01    7.778736e-01
  2.478593e+01    7.906666e-01
  2.480180e+01    7.786061e-01
  2.481768e+01    7.836629e-01
  2.483355e+01    7.914025e-01
  2.484943e+01    7.985051e-01
  2.486530e+01    8.027672e-01
  2.488118e+01    7.902944e-01
  2.489706e+01    7.841427e-01
  2.491293e+01    7.808117e-01
  2.492881e+01    7.925507e-01
  2.494468e+01    7.984384e-01
  2.496056e+01    7.970265e-01
  2.497643e+01    8.077750e-01
  2.499231e+01    8.092652e-01
  2.500819e+01    8.031758e-01
  2.502406e+01    7.953654e-01
  2.503994e+01    8.066009e-01
  2.505581e+01    8.343766e-01
  2.507169e+01    8.188408e-01
  2.508756e+01    8.261868e-01
  2.510344e+01    8.331808e-01
  2.511931e+01    8.007086e-01
  2.513519e+01    8.153765e-01
  2.515107e+01    8.216422e-01
  2.516694e+01    8.257453e-01
  2.518282e+01    8.291197e-01
  2.519869e+01    8.246243e-01
  2.521457e+01    8.375872e-01
  2.523044e+01    8.485881e-01
  2.524632e+01    8.529390e-01
  2.526219e+01    8.469171e-01
  2.527807e+01    8.571441e-01
  2.529395e+01    8.481572e-01
  2.530982e+01    8.593025e-01
  2.532570e+01    8.826995e-01
  2.534157e+01    8.904042e-01
  2.535745e+01    8.681700e-01
  2.537332e+01    8.732758e-01
  2.538920e+01    8.831530e-01
  2.540507e+01    9.094582e-01
  2.542095e+01    8.912384e-01
  2.543683e+01    9.001145e-01
  2.545270e+01    9.393116e-01
  2.546858e+01    9.370264e-01
  2.548445e+01    9.391539e-01
  2.550033e+01    9.708840e-01
  2.551620e+01    1.007688e+00
  2.553208e+01    9.930526e-01
  2.554795e+01    1.019500e+00
  2.556383e+01    1.036853e+00
  2.557971e+01    1.064934e+00
  2.559558e+01    1.078746e+00
  2.561146e+01    1.116262e+00
  2.562733e+01    1.138574e+00
  2.564321e+01    1.169742e+00
  2.565908e+01    1.221693e+00
  2.567496e+01    1.310461e+00
  2.569083e+01    1.366719e+00
  2.570671e+01    1.442464e+00
  2.572259e+01    1.511642e+00
  2.573846e+01    1.628147e+00
  2.575434e+01    1.735176e+00
  2.577021e+01    1.883810e+00
  2.578609e+01    2.090907e+00
  2.580196e+01    2.362599e+00
  2.581784e+01    2.670487e+00
  2.583371e+01    3.005551e+00
  2.584959e+01    3.396884e+00
  2.586547e+01    3.958139e+00
  2.588134e+01    4.546450e+00
  2.589722e+01    5.198078e+00
  2.591309e+01    5.907321e+00
  2.592897e+01    6.591275e+00
  2.594484e+01    7.249333e+00
  2.596072e+01    7.931514e+00
  2.597660e+01    8.327448e+00
  2.599247e+01    8.489053e+00
  2.600835e+01    8.285674e+00
  2.602422e+01    7.744926e+00
  2.604010e+01    7.009242e+00
  2.605597e+01    6.171642e+00
  2.607185e+01    5.283721e+00
  2.608772e+01    4.516149e+00
  2.610360e+01    3.844133e+00
  2.611948e+01    3.347789e+00
  2.613535e+01    2.911418e+00
  2.615123e+01    2.550660e+00
  2.616710e+01    2.274789e+00
  2.618298e+01    2.088233e+00
  2.619885e+01    1.893961e+00
  2.621473e+01    1.725624e+00
  2.623060e+01    1.622172e+00
  2.624648e+01    1.491130e+00
  2.626236e+01    1.404712e+00
  2.627823e+01    1.359785e+00
  2.629411e+01    1.282725e+00
  2.630998e+01    1.216784e+00
  2.632586e+01    1.197263e+00
  2.634173e+01    1.157965e+00
  2.635761e+01    1.109577e+00
  2.637348e+01    1.109825e+00
  2.638936e+01    1.088816e+00
  2.640524e+01    1.054428e+00
  2.642111e+01    1.042471e+00
  2.643699e+01    1.012524e+00
  2.645286e+01    9.754336e-01
  2.646874e+01    9.728618e-01
  2.648461e+01    9.541032e-01
  2.650049e+01    9.663755e-01
  2.651636e+01    9.667168e-01
  2.653224e+01    9.445848e-01
  2.654812e+01    9.414805e-01
  2.656399e+01    9.622266e-01
  2.657987e+01    9.503905e-01
  2.659574e+01    9.269547e-01
  2.661162e+01    9.382241e-01
  2.662749e+01    9.210491e-01
  2.664337e+01    9.100507e-01
  2.665924e+01    9.139880e-01
  2.667512e+01    9.091837e-01
  2.669100e+01    9.034128e-01
  2.670687e+01    9.032599e-01
  2.672275e+01    9.002314e-01
  2.673862e+01    8.937930e-01
  2.675450e+01    8.982778e-01
  2.677037e+01    9.065889e-01
  2.678625e+01    8.985854e-01
  2.680212e+01    9.136121e-01
  2.681800e+01    9.171317e-01
  2.683388e+01    9.140902e-01
  2.684975e+01    8.756011e-01
  2.686563e+01    9.111732e-01
  2.688150e+01    9.208251e-01
  2.689738e+01    9.145360e-01
  2.691325e+01    9.203616e-01
  2.692913e+01    9.471752e-01
  2.694501e+01    9.376955e-01
  2.696088e+01    9.529784e-01
  2.697676e+01    9.646640e-01
  2.699263e+01    9.756656e-01
  2.700851e+01    9.916185e-01
  2.702438e+01    1.030464e+00
  2.704026e+01    1.060526e+00
  2.705613e+01    1.125215e+00
  2.707201e+01    1.166373e+00
  2.708789e+01    1.253999e+00
  2.710376e+01    1.305387e+00
  2.711964e+01    1.399117e+00
  2.713551e+01    1.508760e+00
  2.715139e+01    1.644823e+00
  2.716726e+01    1.796240e+00
  2.718314e+01    1.972907e+00
  2.719901e+01    2.130979e+00
  2.721489e+01    2.267723e+00
  2.723077e+01    2.398471e+00
  2.724664e+01    2.465270e+00
  2.726252e+01    2.452828e+00
  2.727839e+01    2.349332e+00
  2.729427e+01    2.235382e+00
  2.731014e+01    2.028296e+00
  2.732602e+01    1.855820e+00
  2.734189e+01    1.725300e+00
  2.735777e+01    1.567950e+00
  2.737365e+01    1.405460e+00
  2.738952e+01    1.310552e+00
  2.740540e+01    1.216422e+00
  2.742127e+01    1.164913e+00
  2.743715e+01    1.089128e+00
  2.745302e+01    1.042725e+00
  2.746890e+01    9.989302e-01
  2.748477e+01    1.005840e+00
  2.750065e+01    9.729215e-01
  2.751653e+01    9.390806e-01
  2.753240e+01    9.295692e-01
  2.754828e+01    9.200718e-01
  2.756415e+01    9.009182e-01
  2.758003e+01    8.648163e-01
  2.759590e+01    8.537742e-01
  2.761178e+01    8.420358e-01
  2.762765e+01    8.265052e-01
  2.764353e+01    8.519914e-01
  2.765941e+01    8.593586e-01
  2.767528e+01    8.530494e-01
  2.769116e+01    8.256861e-01
  2.770703e+01    8.226064e-01
  2.772291e+01    8.333357e-01
  2.773878e+01    8.290205e-01
  2.775466e+01    8.285961e-01
  2.777054e+01    8.385713e-01
  2.778641e+01    8.235242e-01
  2.780229e+01    8.131409e-01
  2.781816e+01    8.099043e-01
  2.783404e+01    8.199643e-01
  2.784991e+01    8.342620e-01
  2.786579e+01    8.170110e-01
  2.788166e+01    8.146259e-01
  2.789754e+01    7.881613e-01
  2.791342e+01    7.819985e-01
  2.792929e+01    8.017313e-01
  2.794517e+01    8.035733e-01
  2.796104e+01    7.909075e-01
  2.797692e+01    7.933353e-01
  2.799279e+01    7.980896e-01
  2.800867e+01    7.828086e-01
  2.802454e+01    8.032885e-01
  2.804042e+01    7.926570e-01
  2.805630e+01    7.804893e-01
  2.807217e+01    8.005866e-01
  2.808805e+01    7.899149e-01
  2.810392e+01    7.637405e-01
  2.811980e+01    7.922112e-01
  2.813567e+01    7.955648e-01
  2.815155e+01    8.066068e-01
  2.816742e+01    7.988570e-01
  2.818330e+01    7.773488e-01
  2.819918e+01    7.905190e-01
  2.821505e+01    8.046977e-01
  2.823093e+01    7.994516e-01
  2.824680e+01    7.933084e-01
  2.826268e+01    7.983336e-01
  2.827855e+01    7.693766e-01
  2.829443e+01    7.469396e-01
  2.831030e+01    7.736967e-01
  2.832618e+01    7.754586e-01
  2.834206e+01    7.831470e-01
  2.835793e+01    7.581378e-01
  2.837381e+01    7.719695e-01
  2.838968e+01    7.873992e-01
  2.840556e+01    7.853277e-01
  2.842143e+01    7.627493e-01
  2.843731e+01    7.731931e-01
  2.845318e+01    7.608205e-01
  2.846906e+01    7.688456e-01
  2.848494e+01    7.586005e-01
  2.850081e+01    7.697294e-01
  2.851669e+01    7.659607e-01
  2.853256e+01    7.649473e-01
  2.854844e+01    7.674956e-01
  2.856431e+01    7.778562e-01
  2.858019e+01    7.712333e-01
  2.859606e+01    7.544881e-01
  2.861194e+01    7.446416e-01
  2.862782e+01    7.401935e-01
  2.864369e+01    7.634673e-01
  2.865957e+01    7.610433e-01
  2.867544e+01    7.522725e-01
  2.869132e+01    7.636690e-01
  2.870719e+01    7.642491e-01
  2.872307e+01    7.688980e-01
  2.873895e+01    7.508680e-01
  2.875482e+01    7.590330e-01
  2.877070e+01    7.409204e-01
  2.878657e+01    7.297361e-01
  2.880245e+01    7.459674e-01
  2.881832e+01    7.471984e-01
  2.883420e+01    7.404014e-01
  2.885007e+01    7.581816e-01
  2.886595e+01    7.418904e-01
  2.888183e+01    7.430046e-01
  2.889770e+01    7.414601e-01
  2.891358e+01    7.359603e-01
  2.892945e+01    7.418820e-01
  2.894533e+01    7.575672e-01
  2.896120e+01    7.458051e-01
  2.897708e+01    7.375411e-01
  2.899295e+01    7.368903e-01
  2.900883e+01    7.446490e-01
  2.902471e+01    7.526624e-01
  2.904058e+01    7.498537e-01
  2.905646e+01    7.302080e-01
  2.907233e+01    7.546997e-01
  2.908821e+01    7.320847e-01
  2.910408e+01    7.400583e-01
  2.911996e+01    7.613220e-01
  2.913583e+01    7.525405e-01
  2.915171e+01    7.408982e-01
  2.916759e+01    7.350217e-01
  2.918346e+01    7.252232e-01
  2.919934e+01    7.364348e-01
  2.921521e+01    7.457579e-01
  2.923109e+01    7.429183e-01
  2.924696e+01    7.256539e-01
  2.926284e+01    7.507198e-01
  2.927871e+01    7.697213e-01
  2.929459e+01    7.362909e-01
  2.931047e+01    7.279074e-01
  2.932634e+01    7.376424e-01
  2.934222e+01    7.090189e-01
  2.935809e+01    7.456417e-01
  2.937397e+01    7.574721e-01
  2.938984e+01    7.540727e-01
  2.940572e+01    7.254181e-01
  2.942159e+01    7.421484e-01
  2.943747e+01    7.238052e-01
  2.945335e+01    7.426589e-01
  2.946922e+01    7.332969e-01
  2.948510e+01    7.303282e-01
  2.950097e+01    7.108403e-01
  2.951685e+01    7.285008e-01
  2.953272e+01    7.464444e-01
  2.954860e+01    7.352324e-01
  2.956447e+01    7.227554e-01
  2.958035e+01    7.102907e-01
  2.959623e+01    7.180017e-01
  2.961210e+01    7.124301e-01
  2.962798e+01    7.221262e-01
  2.964385e+01    7.429560e-01
  2.965973e+01    7.363545e-01
  2.967560e+01    7.302899e-01
  2.969148e+01    7.206932e-01
  2.970736e+01    7.389944e-01
  2.972323e+01    7.336278e-01
  2.973911e+01    7.489013e-01
  2.975498e+01    7.326191e-01
  2.977086e+01    7.033537e-01
  2.978673e+01    7.195780e-01
  2.980261e+01    7.257062e-01
  2.981848e+01    7.268011e-01
  2.983436e+01    7.266098e-01
  2.985024e+01    7.143314e-01
  2.986611e+01    7.205052e-01
  2.988199e+01    6.976097e-01
  2.989786e+01    7.070664e-01
  2.991374e+01    7.278270e-01
  2.992961e+01    7.004133e-01
  2.994549e+01    7.341133e-01
  2.996136e+01    7.353644e-01
  2.997724e+01    7.177688e-01
  2.999312e+01    7.088002e-01
  3.000899e+01    7.352027e-01
  3.002487e+01    7.332761e-01
  3.004074e+01    7.311165e-01
  3.005662e+01    7.477345e-01
  3.007249e+01    7.346945e-01
  3.008837e+01    7.338282e-01
  3.010424e+01    7.189255e-01
  3.012012e+01    7.049034e-01
  3.013600e+01    7.092572e-01
  3.015187e+01    7.265012e-01
  3.016775e+01    7.132952e-01
  3.018362e+01    7.164762e-01
  3.019950e+01    7.201316e-01
  3.021537e+01    7.145557e-01
  3.023125e+01    7.233062e-01
  3.024712e+01    7.037898e-01
  3.026300e+01    6.969405e-01
  3.027888e+01    7.164525e-01
  3.029475e+01    7.236372e-01
  3.031063e+01    7.138713e-01
  3.032650e+01    7.205416e-01
  3.034238e+01    7.033750e-01
  3.035825e+01    7.008355e-01
  3.037413e+01    7.122598e-01
  3.039000e+01    7.095447e-01
  3.040588e+01    7.181675e-01
  3.042176e+01    6.963944e-01
  3.043763e+01    6.897272e-01
  3.045351e+01    7.222665e-01
  3.046938e+01    7.279298e-01
  3.048526e+01    7.133119e-01
  3.050113e+01    7.113342e-01
  3.051701e+01    7.037310e-01
  3.053288e+01    7.127711e-01
  3.054876e+01    7.236010e-01
  3.056464e+01    6.963499e-01
  3.058051e+01    7.111059e-01
  3.059639e+01    7.297452e-01
  3.061226e+01    7.173430e-01
  3.062814e+01    7.113233e-01
  3.064401e+01    7.151655e-01
  3.065989e+01    6.942317e-01
  3.067577e+01    7.026843e-01
  3.069164e+01    6.926135e-01
  3.070752e+01    7.057308e-01
  3.072339e+01    7.029507e-01
  3.073927e+01    7.065554e-01
  3.075514e+01    7.005041e-01
  3.077102e+01    7.237657e-01
  3.078689e+01    7.243381e-01
  3.080277e+01    7.106142e-01
  3.081865e+01    6.939739e-01
  3.083452e+01    6.900375e-01
  3.085040e+01    7.288809e-01
  3.086627e+01    7.239402e-01
  3.088215e+01    7.293743e-01
  3.089802e+01    7.322755e-01
  3.091390e+01    7.250832e-01
  3.092977e+01    7.186670e-01
  3.094565e+01    7.396485e-01
  3.096153e+01    7.288432e-01
  3.097740e+01    7.216485e-01
  3.099328e+01    7.161375e-01
  3.100915e+01    7.146011e-01
  3.102503e+01    7.043778e-01
  3.104090e+01    7.026005e-01
  3.105678e+01    7.188653e-01
  3.107265e+01    7.005032e-01
  3.108853e+01    7.097937e-01
  3.110441e+01    7.192443e-01
  3.112028e+01    7.225657e-01
  3.113616e+01    7.234805e-01
  3.115203e+01    7.164538e-01
  3.116791e+01    7.066796e-01
  3.118378e+01    7.132409e-01
  3.119966e+01    7.142717e-01
  3.121553e+01    7.130120e-01
  3.123141e+01    7.220101e-01
  3.124729e+01    7.327274e-01
  3.126316e+01    7.226102e-01
  3.127904e+01    7.107015e-01
  3.129491e+01    7.293208e-01
  3.131079e+01    7.108070e-01
  3.132666e+01    7.151029e-01
  3.134254e+01    7.214513e-01
  3.135841e+01    7.368157e-01
  3.137429e+01    7.440875e-01
  3.139017e+01    7.518909e-01
  3.140604e+01    7.394580e-01
  3.142192e+01    7.528461e-01
  3.143779e+01    7.399864e-01
  3.145367e+01    7.525853e-01
  3.146954e+01    7.634673e-01
  3.148542e+01    7.501329e-01
  3.150129e+01    7.486983e-01
  3.151717e+01    7.612296e-01
  3.153305e+01    7.726060e-01
  3.154892e+01    7.919406e-01
  3.156480e+01    7.959521e-01
  3.158067e+01    7.838791e-01
  3.159655e+01    7.847849e-01
  3.161242e+01    8.180342e-01
  3.162830e+01    8.553913e-01
  3.164418e+01    8.436844e-01
  3.166005e+01    8.838338e-01
  3.167593e+01    8.707746e-01
  3.169180e+01    9.120347e-01
  3.170768e+01    9.164523e-01
  3.172355e+01    9.354416e-01
  3.173943e+01    9.903620e-01
  3.175530e+01    1.052778e+00
  3.177118e+01    1.120439e+00
  3.178706e+01    1.159495e+00
  3.180293e+01    1.265284e+00
  3.181881e+01    1.359021e+00
  3.183468e+01    1.505838e+00
  3.185056e+01    1.618380e+00
  3.186643e+01    1.783401e+00
  3.188231e+01    1.947222e+00
  3.189818e+01    2.117695e+00
  3.191406e+01    2.311157e+00
  3.192994e+01    2.465233e+00
  3.194581e+01    2.466460e+00
  3.196169e+01    2.389637e+00
  3.197756e+01    2.335700e+00
  3.199344e+01    2.173748e+00
  3.200931e+01    1.998854e+00
  3.202519e+01    1.820042e+00
  3.204106e+01    1.623194e+00
  3.205694e+01    1.477422e+00
  3.207282e+01    1.325846e+00
  3.208869e+01    1.219586e+00
  3.210457e+01    1.143984e+00
  3.212044e+01    1.070197e+00
  3.213632e+01    1.013419e+00
  3.215219e+01    9.815875e-01
  3.216807e+01    9.369066e-01
  3.218394e+01    9.222057e-01
  3.219982e+01    8.854113e-01
  3.221570e+01    8.736423e-01
  3.223157e+01    8.621784e-01
  3.224745e+01    8.391512e-01
  3.226332e+01    8.112750e-01
  3.227920e+01    8.093404e-01
  3.229507e+01    7.877244e-01
  3.231095e+01    7.988236e-01
  3.232682e+01    7.895273e-01
  3.234270e+01    7.757823e-01
  3.235858e+01    7.349960e-01
  3.237445e+01    7.422626e-01
  3.239033e+01    7.453731e-01
  3.240620e+01    7.554350e-01
  3.242208e+01    7.644913e-01
  3.243795e+01    7.378644e-01
  3.245383e+01    7.295331e-01
  3.246970e+01    7.465897e-01
  3.248558e+01    7.229592e-01
  3.250146e+01    7.374477e-01
  3.251733e+01    7.495484e-01
  3.253321e+01    7.600721e-01
  3.254908e+01    7.475128e-01
