# == pyFAI calibration ==
# Distance Sample to Detector: 0.3999999939076516 m
# PONI: 9.750e-02, 1.135e-01 m
# Rotations: -0.000175 0.000000 -0.000000 rad
# 
# == Fit2d calibration ==
# Distance Sample-beamCenter: 400.000 mm
# Center: x=1514.000, y=1300.000 pix
# Tilt: 0.010 deg  TiltPlanRot: 0.010 deg
# 
# Detector Detector	 Spline= None	 PixelSize= 7.500e-05, 7.500e-05 m
#    Detector has a mask: False 
#    Detector has a dark current: False 
#    detector has a flat field: False 
# 
# Wavelength: 6.888e-11 m
# Mask applied: user provided
# Dark current applied: False
# Flat field applied: False
# Polarization factor: 0.99
# Normalization factor: 1.0
# --> /home/myspot/data/2024_07_Rosario/Ru-CGO-ex/2024-07-27_002_Ru-CGO-ex_Activtation_ramp_000002_data_000057.dat
#       q_nm^-1             I 
  2.003187e-02    0.000000e+00
  3.590745e-02    0.000000e+00
  5.178302e-02    0.000000e+00
  6.765859e-02    9.920382e-02
  8.353417e-02    1.568898e-01
  9.940974e-02    4.595982e-02
  1.152853e-01    2.737308e-02
  1.311609e-01    1.689545e-02
  1.470365e-01    2.690472e-02
  1.629120e-01    4.703444e-02
  1.787876e-01    7.403757e-02
  1.946632e-01    3.082621e-02
  2.105388e-01    3.399134e-02
  2.264143e-01    2.346937e-02
  2.422899e-01    9.606132e-03
  2.581655e-01    3.095460e-02
  2.740411e-01    1.315401e-02
  2.899166e-01    3.258339e-02
  3.057922e-01    5.969597e-02
  3.216678e-01    6.378272e-02
  3.375433e-01    6.162006e-02
  3.534189e-01    2.381773e-02
  3.692945e-01    5.837658e-02
  3.851701e-01    4.887650e-02
  4.010456e-01    8.854249e-03
  4.169212e-01    4.230192e-02
  4.327968e-01    2.036692e-02
  4.486724e-01    1.476681e-02
  4.645479e-01    2.230258e-02
  4.804235e-01    2.271597e-02
  4.962991e-01    3.183394e-02
  5.121747e-01    5.877848e-02
  5.280502e-01    3.614978e-02
  5.439258e-01    1.081142e-02
  5.598014e-01    2.515809e-02
  5.756770e-01    3.885904e-02
  5.915525e-01    2.962017e-02
  6.074281e-01    1.016863e-02
  6.233037e-01    1.730176e-02
  6.391793e-01    4.483318e-02
  6.550548e-01    4.244832e-02
  6.709304e-01    4.589272e-02
  6.868060e-01    3.841695e-02
  7.026815e-01    4.864651e-02
  7.185571e-01    5.073037e-02
  7.344327e-01    4.484076e-02
  7.503083e-01    4.127075e-02
  7.661838e-01    7.738849e-02
  7.820594e-01    1.191227e-01
  7.979350e-01    2.101613e-01
  8.138106e-01    2.808829e-01
  8.296861e-01    2.686415e-01
  8.455617e-01    2.867487e-01
  8.614373e-01    3.194291e-01
  8.773129e-01    3.970207e-01
  8.931884e-01    4.272343e-01
  9.090640e-01    4.962628e-01
  9.249396e-01    5.933153e-01
  9.408152e-01    7.001234e-01
  9.566907e-01    7.420062e-01
  9.725663e-01    8.545588e-01
  9.884419e-01    9.027475e-01
  1.004317e+00    1.035075e+00
  1.020193e+00    1.150869e+00
  1.036069e+00    1.180819e+00
  1.051944e+00    1.243759e+00
  1.067820e+00    1.241524e+00
  1.083695e+00    1.380251e+00
  1.099571e+00    1.496253e+00
  1.115446e+00    1.376426e+00
  1.131322e+00    1.295591e+00
  1.147198e+00    1.408033e+00
  1.163073e+00    1.425478e+00
  1.178949e+00    1.550096e+00
  1.194824e+00    1.652472e+00
  1.210700e+00    1.891070e+00
  1.226575e+00    2.098882e+00
  1.242451e+00    2.278614e+00
  1.258327e+00    2.426963e+00
  1.274202e+00    2.328221e+00
  1.290078e+00    2.295790e+00
  1.305953e+00    2.374221e+00
  1.321829e+00    2.422084e+00
  1.337705e+00    2.525201e+00
  1.353580e+00    2.503369e+00
  1.369456e+00    2.560578e+00
  1.385331e+00    2.711984e+00
  1.401207e+00    2.703798e+00
  1.417082e+00    2.669949e+00
  1.432958e+00    2.693977e+00
  1.448834e+00    2.753898e+00
  1.464709e+00    2.775000e+00
  1.480585e+00    2.879030e+00
  1.496460e+00    2.891921e+00
  1.512336e+00    2.902938e+00
  1.528211e+00    2.919868e+00
  1.544087e+00    2.870021e+00
  1.559963e+00    3.048368e+00
  1.575838e+00    3.095335e+00
  1.591714e+00    3.013550e+00
  1.607589e+00    2.910514e+00
  1.623465e+00    2.979179e+00
  1.639340e+00    2.885824e+00
  1.655216e+00    2.958116e+00
  1.671092e+00    2.957091e+00
  1.686967e+00    2.927359e+00
  1.702843e+00    2.885024e+00
  1.718718e+00    2.895542e+00
  1.734594e+00    2.813417e+00
  1.750469e+00    2.742105e+00
  1.766345e+00    2.854116e+00
  1.782221e+00    2.785891e+00
  1.798096e+00    2.813306e+00
  1.813972e+00    2.824942e+00
  1.829847e+00    2.773160e+00
  1.845723e+00    2.767930e+00
  1.861598e+00    2.921394e+00
  1.877474e+00    2.946156e+00
  1.893350e+00    2.838290e+00
  1.909225e+00    2.817423e+00
  1.925101e+00    2.795583e+00
  1.940976e+00    2.847613e+00
  1.956852e+00    2.679748e+00
  1.972727e+00    2.658808e+00
  1.988603e+00    2.693902e+00
  2.004479e+00    2.735125e+00
  2.020354e+00    2.757203e+00
  2.036230e+00    2.753575e+00
  2.052105e+00    2.830663e+00
  2.067981e+00    2.731966e+00
  2.083856e+00    2.712006e+00
  2.099732e+00    2.830368e+00
  2.115608e+00    2.791324e+00
  2.131483e+00    2.771827e+00
  2.147359e+00    2.826133e+00
  2.163234e+00    2.848093e+00
  2.179110e+00    2.686037e+00
  2.194985e+00    2.755078e+00
  2.210861e+00    2.796530e+00
  2.226737e+00    2.742449e+00
  2.242612e+00    2.792626e+00
  2.258488e+00    2.712054e+00
  2.274363e+00    2.767845e+00
  2.290239e+00    2.775651e+00
  2.306115e+00    2.809699e+00
  2.321990e+00    2.774546e+00
  2.337866e+00    2.696082e+00
  2.353741e+00    2.631444e+00
  2.369617e+00    2.759346e+00
  2.385492e+00    2.820067e+00
  2.401368e+00    2.842020e+00
  2.417244e+00    2.766952e+00
  2.433119e+00    2.713941e+00
  2.448995e+00    2.813016e+00
  2.464870e+00    2.811671e+00
  2.480746e+00    2.721121e+00
  2.496621e+00    2.738377e+00
  2.512497e+00    2.768008e+00
  2.528373e+00    2.849563e+00
  2.544248e+00    2.822694e+00
  2.560124e+00    2.846091e+00
  2.575999e+00    2.876411e+00
  2.591875e+00    2.785994e+00
  2.607750e+00    2.760417e+00
  2.623626e+00    2.839742e+00
  2.639502e+00    2.910491e+00
  2.655377e+00    2.875460e+00
  2.671253e+00    2.774366e+00
  2.687128e+00    2.884305e+00
  2.703004e+00    2.916215e+00
  2.718879e+00    2.836763e+00
  2.734755e+00    2.865927e+00
  2.750631e+00    2.961058e+00
  2.766506e+00    2.840743e+00
  2.782382e+00    2.831100e+00
  2.798257e+00    2.899495e+00
  2.814133e+00    2.772163e+00
  2.830008e+00    2.879943e+00
  2.845884e+00    2.803739e+00
  2.861760e+00    2.837576e+00
  2.877635e+00    2.874651e+00
  2.893511e+00    2.957203e+00
  2.909386e+00    2.823978e+00
  2.925262e+00    2.710857e+00
  2.941137e+00    2.856717e+00
  2.957013e+00    2.910953e+00
  2.972889e+00    2.923248e+00
  2.988764e+00    2.906483e+00
  3.004640e+00    2.919820e+00
  3.020515e+00    2.881153e+00
  3.036391e+00    2.872888e+00
  3.052266e+00    2.953280e+00
  3.068142e+00    2.884358e+00
  3.084018e+00    2.855772e+00
  3.099893e+00    2.912875e+00
  3.115769e+00    2.984703e+00
  3.131644e+00    2.975343e+00
  3.147520e+00    2.974389e+00
  3.163395e+00    2.936965e+00
  3.179271e+00    2.925027e+00
  3.195147e+00    2.916407e+00
  3.211022e+00    2.915188e+00
  3.226898e+00    3.018447e+00
  3.242773e+00    2.979558e+00
  3.258649e+00    2.968033e+00
  3.274525e+00    2.916344e+00
  3.290400e+00    2.846409e+00
  3.306276e+00    2.946174e+00
  3.322151e+00    2.908009e+00
  3.338027e+00    2.979598e+00
  3.353902e+00    2.982486e+00
  3.369778e+00    3.025724e+00
  3.385654e+00    3.008669e+00
  3.401529e+00    2.932392e+00
  3.417405e+00    2.969093e+00
  3.433280e+00    2.974027e+00
  3.449156e+00    2.986689e+00
  3.465031e+00    2.945981e+00
  3.480907e+00    3.006994e+00
  3.496783e+00    3.031234e+00
  3.512658e+00    2.962163e+00
  3.528534e+00    2.955750e+00
  3.544409e+00    2.945942e+00
  3.560285e+00    2.938045e+00
  3.576160e+00    2.925512e+00
  3.592036e+00    3.023089e+00
  3.607912e+00    3.002895e+00
  3.623787e+00    2.938066e+00
  3.639663e+00    2.940253e+00
  3.655538e+00    2.941000e+00
  3.671414e+00    3.030571e+00
  3.687289e+00    3.020399e+00
  3.703165e+00    2.949138e+00
  3.719041e+00    2.856802e+00
  3.734916e+00    2.980906e+00
  3.750792e+00    3.038350e+00
  3.766667e+00    2.945352e+00
  3.782543e+00    2.964272e+00
  3.798418e+00    2.995915e+00
  3.814294e+00    2.976059e+00
  3.830170e+00    2.977358e+00
  3.846045e+00    3.016212e+00
  3.861921e+00    3.014379e+00
  3.877796e+00    3.065723e+00
  3.893672e+00    3.088538e+00
  3.909547e+00    3.061329e+00
  3.925423e+00    3.040721e+00
  3.941299e+00    2.977739e+00
  3.957174e+00    2.992659e+00
  3.973050e+00    3.042133e+00
  3.988925e+00    3.049041e+00
  4.004801e+00    3.047828e+00
  4.020676e+00    3.121043e+00
  4.036552e+00    3.088739e+00
  4.052428e+00    2.912028e+00
  4.068303e+00    3.040133e+00
  4.084179e+00    3.107047e+00
  4.100054e+00    3.051064e+00
  4.115930e+00    2.999413e+00
  4.131806e+00    2.981107e+00
  4.147681e+00    3.001639e+00
  4.163557e+00    3.170787e+00
  4.179432e+00    3.054388e+00
  4.195308e+00    3.005953e+00
  4.211183e+00    3.000829e+00
  4.227059e+00    2.995809e+00
  4.242935e+00    2.928001e+00
  4.258810e+00    3.017829e+00
  4.274686e+00    3.087966e+00
  4.290561e+00    3.072875e+00
  4.306437e+00    3.050750e+00
  4.322312e+00    3.075367e+00
  4.338188e+00    3.086343e+00
  4.354064e+00    3.103105e+00
  4.369939e+00    3.107210e+00
  4.385815e+00    3.025773e+00
  4.401690e+00    3.032504e+00
  4.417566e+00    3.019889e+00
  4.433441e+00    3.075275e+00
  4.449317e+00    3.142462e+00
  4.465193e+00    3.078758e+00
  4.481068e+00    3.093370e+00
  4.496944e+00    3.102614e+00
  4.512819e+00    3.123917e+00
  4.528695e+00    3.138142e+00
  4.544570e+00    3.111332e+00
  4.560446e+00    3.062947e+00
  4.576322e+00    3.092620e+00
  4.592197e+00    3.110085e+00
  4.608073e+00    3.095429e+00
  4.623948e+00    3.119838e+00
  4.639824e+00    3.099651e+00
  4.655699e+00    3.098875e+00
  4.671575e+00    3.057665e+00
  4.687451e+00    3.018939e+00
  4.703326e+00    3.112554e+00
  4.719202e+00    3.039170e+00
  4.735077e+00    3.208767e+00
  4.750953e+00    3.287824e+00
  4.766828e+00    3.168431e+00
  4.782704e+00    3.037184e+00
  4.798580e+00    3.055816e+00
  4.814455e+00    3.155318e+00
  4.830331e+00    3.092629e+00
  4.846206e+00    3.126885e+00
  4.862082e+00    3.121824e+00
  4.877957e+00    3.132025e+00
  4.893833e+00    3.160532e+00
  4.909709e+00    3.146442e+00
  4.925584e+00    3.103335e+00
  4.941460e+00    3.120268e+00
  4.957335e+00    3.146477e+00
  4.973211e+00    3.135189e+00
  4.989086e+00    3.172667e+00
  5.004962e+00    3.129533e+00
  5.020838e+00    3.087224e+00
  5.036713e+00    3.104189e+00
  5.052589e+00    3.117954e+00
  5.068464e+00    3.197628e+00
  5.084340e+00    3.212179e+00
  5.100216e+00    3.112228e+00
  5.116091e+00    3.096308e+00
  5.131967e+00    3.132656e+00
  5.147842e+00    3.268211e+00
  5.163718e+00    3.268570e+00
  5.179593e+00    3.089020e+00
  5.195469e+00    3.073302e+00
  5.211345e+00    3.138040e+00
  5.227220e+00    3.163184e+00
  5.243096e+00    3.202994e+00
  5.258971e+00    3.157212e+00
  5.274847e+00    3.102657e+00
  5.290722e+00    3.087649e+00
  5.306598e+00    3.178576e+00
  5.322474e+00    3.152852e+00
  5.338349e+00    3.139683e+00
  5.354225e+00    3.139115e+00
  5.370100e+00    3.143076e+00
  5.385976e+00    3.212020e+00
  5.401851e+00    3.177276e+00
  5.417727e+00    3.061931e+00
  5.433603e+00    3.105602e+00
  5.449478e+00    3.137315e+00
  5.465354e+00    3.091990e+00
  5.481229e+00    3.134152e+00
  5.497105e+00    3.106109e+00
  5.512980e+00    3.102663e+00
  5.528856e+00    3.164204e+00
  5.544732e+00    3.163807e+00
  5.560607e+00    3.118718e+00
  5.576483e+00    3.114099e+00
  5.592358e+00    3.094520e+00
  5.608234e+00    3.090750e+00
  5.624109e+00    3.061775e+00
  5.639985e+00    3.069600e+00
  5.655861e+00    3.072547e+00
  5.671736e+00    3.034404e+00
  5.687612e+00    3.042336e+00
  5.703487e+00    3.013324e+00
  5.719363e+00    2.979727e+00
  5.735238e+00    3.026673e+00
  5.751114e+00    3.091449e+00
  5.766990e+00    3.128370e+00
  5.782865e+00    3.098714e+00
  5.798741e+00    3.030176e+00
  5.814616e+00    3.053988e+00
  5.830492e+00    3.117677e+00
  5.846367e+00    3.114987e+00
  5.862243e+00    2.991815e+00
  5.878119e+00    3.027410e+00
  5.893994e+00    3.042449e+00
  5.909870e+00    3.007669e+00
  5.925745e+00    2.994459e+00
  5.941621e+00    2.992188e+00
  5.957497e+00    3.038689e+00
  5.973372e+00    3.009302e+00
  5.989248e+00    3.014701e+00
  6.005123e+00    3.055289e+00
  6.020999e+00    3.065695e+00
  6.036874e+00    3.050186e+00
  6.052750e+00    3.005224e+00
  6.068626e+00    3.054598e+00
  6.084501e+00    3.087409e+00
  6.100377e+00    3.171896e+00
  6.116252e+00    3.179798e+00
  6.132128e+00    3.030159e+00
  6.148003e+00    3.102600e+00
  6.163879e+00    3.092927e+00
  6.179755e+00    3.030060e+00
  6.195630e+00    3.008686e+00
  6.211506e+00    3.060783e+00
  6.227381e+00    3.040303e+00
  6.243257e+00    3.064063e+00
  6.259132e+00    3.048722e+00
  6.275008e+00    3.055656e+00
  6.290884e+00    3.063046e+00
  6.306759e+00    3.114053e+00
  6.322635e+00    3.063262e+00
  6.338510e+00    3.058058e+00
  6.354386e+00    3.022989e+00
  6.370261e+00    3.031089e+00
  6.386137e+00    3.035781e+00
  6.402013e+00    3.053015e+00
  6.417888e+00    3.023214e+00
  6.433764e+00    3.029910e+00
  6.449639e+00    3.006687e+00
  6.465515e+00    3.028027e+00
  6.481390e+00    3.051203e+00
  6.497266e+00    2.991108e+00
  6.513142e+00    3.042912e+00
  6.529017e+00    3.082516e+00
  6.544893e+00    2.998727e+00
  6.560768e+00    3.044230e+00
  6.576644e+00    3.064234e+00
  6.592519e+00    3.047126e+00
  6.608395e+00    3.003037e+00
  6.624271e+00    2.999512e+00
  6.640146e+00    2.978501e+00
  6.656022e+00    2.999481e+00
  6.671897e+00    3.005176e+00
  6.687773e+00    3.003200e+00
  6.703648e+00    2.979438e+00
  6.719524e+00    2.997467e+00
  6.735400e+00    3.036988e+00
  6.751275e+00    3.104455e+00
  6.767151e+00    3.012020e+00
  6.783026e+00    3.036412e+00
  6.798902e+00    2.999576e+00
  6.814777e+00    2.988854e+00
  6.830653e+00    3.059445e+00
  6.846529e+00    3.079950e+00
  6.862404e+00    3.077868e+00
  6.878280e+00    3.010043e+00
  6.894155e+00    3.053693e+00
  6.910031e+00    3.052851e+00
  6.925907e+00    3.030939e+00
  6.941782e+00    3.130528e+00
  6.957658e+00    3.066750e+00
  6.973533e+00    3.021347e+00
  6.989409e+00    3.039659e+00
  7.005284e+00    3.027356e+00
  7.021160e+00    3.022207e+00
  7.037036e+00    3.035567e+00
  7.052911e+00    3.012886e+00
  7.068787e+00    2.936014e+00
  7.084662e+00    3.001427e+00
  7.100538e+00    3.039215e+00
  7.116413e+00    2.999579e+00
  7.132289e+00    2.978502e+00
  7.148165e+00    2.986814e+00
  7.164040e+00    2.985769e+00
  7.179916e+00    3.090309e+00
  7.195791e+00    3.044216e+00
  7.211667e+00    2.952855e+00
  7.227542e+00    2.991912e+00
  7.243418e+00    3.019527e+00
  7.259294e+00    3.027828e+00
  7.275169e+00    3.011203e+00
  7.291045e+00    3.033382e+00
  7.306920e+00    3.031566e+00
  7.322796e+00    2.994995e+00
  7.338671e+00    3.017703e+00
  7.354547e+00    2.966226e+00
  7.370423e+00    3.014326e+00
  7.386298e+00    3.049338e+00
  7.402174e+00    3.046116e+00
  7.418049e+00    3.021306e+00
  7.433925e+00    3.026463e+00
  7.449800e+00    3.047663e+00
  7.465676e+00    3.115050e+00
  7.481552e+00    3.104310e+00
  7.497427e+00    3.035506e+00
  7.513303e+00    2.988821e+00
  7.529178e+00    2.975072e+00
  7.545054e+00    2.929795e+00
  7.560929e+00    2.938152e+00
  7.576805e+00    2.955461e+00
  7.592681e+00    2.973641e+00
  7.608556e+00    2.928586e+00
  7.624432e+00    2.932118e+00
  7.640307e+00    2.919526e+00
  7.656183e+00    2.937309e+00
  7.672058e+00    3.008285e+00
  7.687934e+00    2.968744e+00
  7.703810e+00    2.995183e+00
  7.719685e+00    2.939908e+00
  7.735561e+00    2.923757e+00
  7.751436e+00    2.906680e+00
  7.767312e+00    2.846143e+00
  7.783187e+00    2.931226e+00
  7.799063e+00    2.909414e+00
  7.814939e+00    2.919380e+00
  7.830814e+00    2.912661e+00
  7.846690e+00    2.954497e+00
  7.862565e+00    2.943752e+00
  7.878441e+00    2.923479e+00
  7.894317e+00    2.957360e+00
  7.910192e+00    2.995529e+00
  7.926068e+00    3.017532e+00
  7.941943e+00    2.935776e+00
  7.957819e+00    2.898236e+00
  7.973694e+00    2.944701e+00
  7.989570e+00    2.954042e+00
  8.005446e+00    2.946169e+00
  8.021321e+00    2.976550e+00
  8.037197e+00    2.946550e+00
  8.053072e+00    2.950665e+00
  8.068948e+00    2.971942e+00
  8.084823e+00    2.932585e+00
  8.100699e+00    2.963495e+00
  8.116575e+00    2.929139e+00
  8.132450e+00    2.957748e+00
  8.148326e+00    2.942991e+00
  8.164201e+00    2.982375e+00
  8.180077e+00    2.970895e+00
  8.195952e+00    2.908508e+00
  8.211828e+00    2.940479e+00
  8.227704e+00    2.956725e+00
  8.243579e+00    2.963001e+00
  8.259455e+00    2.844266e+00
  8.275330e+00    2.872805e+00
  8.291206e+00    2.924754e+00
  8.307081e+00    2.953499e+00
  8.322957e+00    2.930540e+00
  8.338833e+00    2.888012e+00
  8.354708e+00    2.900503e+00
  8.370584e+00    2.909658e+00
  8.386459e+00    2.899976e+00
  8.402335e+00    2.922889e+00
  8.418210e+00    2.847939e+00
  8.434086e+00    2.923223e+00
  8.449962e+00    2.892755e+00
  8.465837e+00    2.854757e+00
  8.481713e+00    2.886376e+00
  8.497588e+00    2.959563e+00
  8.513464e+00    2.888170e+00
  8.529339e+00    2.862839e+00
  8.545215e+00    2.865957e+00
  8.561091e+00    2.831738e+00
  8.576966e+00    2.859654e+00
  8.592842e+00    2.880034e+00
  8.608717e+00    2.840964e+00
  8.624593e+00    2.860055e+00
  8.640468e+00    2.831496e+00
  8.656344e+00    2.870165e+00
  8.672220e+00    2.843545e+00
  8.688095e+00    2.829561e+00
  8.703971e+00    2.855168e+00
  8.719846e+00    2.869886e+00
  8.735722e+00    2.879980e+00
  8.751598e+00    2.839828e+00
  8.767473e+00    2.856577e+00
  8.783349e+00    2.867339e+00
  8.799224e+00    2.863768e+00
  8.815100e+00    2.829153e+00
  8.830975e+00    2.794971e+00
  8.846851e+00    2.854164e+00
  8.862727e+00    2.845055e+00
  8.878602e+00    2.855173e+00
  8.894478e+00    2.833184e+00
  8.910353e+00    2.809182e+00
  8.926229e+00    2.842542e+00
  8.942104e+00    2.831851e+00
  8.957980e+00    2.833272e+00
  8.973856e+00    2.794907e+00
  8.989731e+00    2.760601e+00
  9.005607e+00    2.826401e+00
  9.021482e+00    2.816333e+00
  9.037358e+00    2.826334e+00
  9.053233e+00    2.853344e+00
  9.069109e+00    2.881387e+00
  9.084985e+00    2.864859e+00
  9.100860e+00    2.868294e+00
  9.116736e+00    2.866945e+00
  9.132611e+00    2.841509e+00
  9.148487e+00    2.818390e+00
  9.164362e+00    2.806750e+00
  9.180238e+00    2.782830e+00
  9.196114e+00    2.809805e+00
  9.211989e+00    2.754110e+00
  9.227865e+00    2.686578e+00
  9.243740e+00    2.727624e+00
  9.259616e+00    2.766093e+00
  9.275491e+00    2.774486e+00
  9.291367e+00    2.768037e+00
  9.307243e+00    2.750493e+00
  9.323118e+00    2.770042e+00
  9.338994e+00    2.777426e+00
  9.354869e+00    2.782754e+00
  9.370745e+00    2.712357e+00
  9.386620e+00    2.716498e+00
  9.402496e+00    2.753744e+00
  9.418372e+00    2.767598e+00
  9.434247e+00    2.775353e+00
  9.450123e+00    2.712843e+00
  9.465998e+00    2.755079e+00
  9.481874e+00    2.727768e+00
  9.497749e+00    2.793180e+00
  9.513625e+00    2.810927e+00
  9.529501e+00    2.761385e+00
  9.545376e+00    2.789683e+00
  9.561252e+00    2.742433e+00
  9.577127e+00    2.751340e+00
  9.593003e+00    2.768411e+00
  9.608878e+00    2.790811e+00
  9.624754e+00    2.743176e+00
  9.640630e+00    2.740504e+00
  9.656505e+00    2.721554e+00
  9.672381e+00    2.772284e+00
  9.688256e+00    2.787251e+00
  9.704132e+00    2.750859e+00
  9.720008e+00    2.685317e+00
  9.735883e+00    2.675509e+00
  9.751759e+00    2.716410e+00
  9.767634e+00    2.765526e+00
  9.783510e+00    2.783072e+00
  9.799385e+00    2.754832e+00
  9.815261e+00    2.713136e+00
  9.831137e+00    2.689087e+00
  9.847012e+00    2.701109e+00
  9.862888e+00    2.706031e+00
  9.878763e+00    2.675076e+00
  9.894639e+00    2.666713e+00
  9.910514e+00    2.672069e+00
  9.926390e+00    2.669463e+00
  9.942266e+00    2.644895e+00
  9.958141e+00    2.709131e+00
  9.974017e+00    2.746093e+00
  9.989892e+00    2.710924e+00
  1.000577e+01    2.680486e+00
  1.002164e+01    2.682716e+00
  1.003752e+01    2.644473e+00
  1.005339e+01    2.603418e+00
  1.006927e+01    2.629380e+00
  1.008515e+01    2.612303e+00
  1.010102e+01    2.659677e+00
  1.011690e+01    2.707765e+00
  1.013277e+01    2.726473e+00
  1.014865e+01    2.698924e+00
  1.016452e+01    2.674449e+00
  1.018040e+01    2.665195e+00
  1.019627e+01    2.675737e+00
  1.021215e+01    2.657840e+00
  1.022803e+01    2.640489e+00
  1.024390e+01    2.627196e+00
  1.025978e+01    2.659908e+00
  1.027565e+01    2.634044e+00
  1.029153e+01    2.586599e+00
  1.030740e+01    2.686320e+00
  1.032328e+01    2.649064e+00
  1.033915e+01    2.646338e+00
  1.035503e+01    2.658391e+00
  1.037091e+01    2.623834e+00
  1.038678e+01    2.661725e+00
  1.040266e+01    2.647753e+00
  1.041853e+01    2.627019e+00
  1.043441e+01    2.629822e+00
  1.045028e+01    2.625980e+00
  1.046616e+01    2.635109e+00
  1.048204e+01    2.592110e+00
  1.049791e+01    2.604785e+00
  1.051379e+01    2.633384e+00
  1.052966e+01    2.620852e+00
  1.054554e+01    2.568542e+00
  1.056141e+01    2.573885e+00
  1.057729e+01    2.566717e+00
  1.059316e+01    2.614929e+00
  1.060904e+01    2.563957e+00
  1.062492e+01    2.556808e+00
  1.064079e+01    2.588227e+00
  1.065667e+01    2.564487e+00
  1.067254e+01    2.563042e+00
  1.068842e+01    2.571901e+00
  1.070429e+01    2.592717e+00
  1.072017e+01    2.542151e+00
  1.073604e+01    2.494576e+00
  1.075192e+01    2.532778e+00
  1.076780e+01    2.558944e+00
  1.078367e+01    2.572627e+00
  1.079955e+01    2.569686e+00
  1.081542e+01    2.520488e+00
  1.083130e+01    2.500122e+00
  1.084717e+01    2.510231e+00
  1.086305e+01    2.533891e+00
  1.087892e+01    2.542191e+00
  1.089480e+01    2.524075e+00
  1.091068e+01    2.528183e+00
  1.092655e+01    2.503831e+00
  1.094243e+01    2.526604e+00
  1.095830e+01    2.503148e+00
  1.097418e+01    2.500674e+00
  1.099005e+01    2.504152e+00
  1.100593e+01    2.536777e+00
  1.102180e+01    2.527089e+00
  1.103768e+01    2.454994e+00
  1.105356e+01    2.484179e+00
  1.106943e+01    2.492536e+00
  1.108531e+01    2.485097e+00
  1.110118e+01    2.549521e+00
  1.111706e+01    2.536457e+00
  1.113293e+01    2.543014e+00
  1.114881e+01    2.532140e+00
  1.116468e+01    2.508612e+00
  1.118056e+01    2.476559e+00
  1.119644e+01    2.436118e+00
  1.121231e+01    2.430093e+00
  1.122819e+01    2.472984e+00
  1.124406e+01    2.429676e+00
  1.125994e+01    2.492522e+00
  1.127581e+01    2.497795e+00
  1.129169e+01    2.409896e+00
  1.130756e+01    2.400496e+00
  1.132344e+01    2.434633e+00
  1.133932e+01    2.423391e+00
  1.135519e+01    2.424551e+00
  1.137107e+01    2.454524e+00
  1.138694e+01    2.467397e+00
  1.140282e+01    2.384224e+00
  1.141869e+01    2.408543e+00
  1.143457e+01    2.442411e+00
  1.145045e+01    2.433901e+00
  1.146632e+01    2.464519e+00
  1.148220e+01    2.439155e+00
  1.149807e+01    2.419106e+00
  1.151395e+01    2.434529e+00
  1.152982e+01    2.429464e+00
  1.154570e+01    2.398537e+00
  1.156157e+01    2.376781e+00
  1.157745e+01    2.369372e+00
  1.159333e+01    2.377447e+00
  1.160920e+01    2.391477e+00
  1.162508e+01    2.435417e+00
  1.164095e+01    2.390846e+00
  1.165683e+01    2.336547e+00
  1.167270e+01    2.323655e+00
  1.168858e+01    2.422787e+00
  1.170445e+01    2.367024e+00
  1.172033e+01    2.367297e+00
  1.173621e+01    2.373242e+00
  1.175208e+01    2.410400e+00
  1.176796e+01    2.357213e+00
  1.178383e+01    2.381957e+00
  1.179971e+01    2.383864e+00
  1.181558e+01    2.363895e+00
  1.183146e+01    2.357870e+00
  1.184733e+01    2.393828e+00
  1.186321e+01    2.376764e+00
  1.187909e+01    2.389607e+00
  1.189496e+01    2.362695e+00
  1.191084e+01    2.350675e+00
  1.192671e+01    2.353955e+00
  1.194259e+01    2.345047e+00
  1.195846e+01    2.296201e+00
  1.197434e+01    2.322916e+00
  1.199021e+01    2.327122e+00
  1.200609e+01    2.337485e+00
  1.202197e+01    2.344360e+00
  1.203784e+01    2.375884e+00
  1.205372e+01    2.307901e+00
  1.206959e+01    2.304783e+00
  1.208547e+01    2.321801e+00
  1.210134e+01    2.324587e+00
  1.211722e+01    2.335323e+00
  1.213309e+01    2.333535e+00
  1.214897e+01    2.309570e+00
  1.216485e+01    2.347043e+00
  1.218072e+01    2.379374e+00
  1.219660e+01    2.343379e+00
  1.221247e+01    2.311507e+00
  1.222835e+01    2.306768e+00
  1.224422e+01    2.325662e+00
  1.226010e+01    2.357886e+00
  1.227597e+01    2.349659e+00
  1.229185e+01    2.333106e+00
  1.230773e+01    2.313827e+00
  1.232360e+01    2.276994e+00
  1.233948e+01    2.307446e+00
  1.235535e+01    2.346793e+00
  1.237123e+01    2.325198e+00
  1.238710e+01    2.375069e+00
  1.240298e+01    2.366173e+00
  1.241886e+01    2.335073e+00
  1.243473e+01    2.361317e+00
  1.245061e+01    2.374573e+00
  1.246648e+01    2.386582e+00
  1.248236e+01    2.384805e+00
  1.249823e+01    2.407358e+00
  1.251411e+01    2.404485e+00
  1.252998e+01    2.349325e+00
  1.254586e+01    2.321284e+00
  1.256174e+01    2.396511e+00
  1.257761e+01    2.377403e+00
  1.259349e+01    2.390502e+00
  1.260936e+01    2.427348e+00
  1.262524e+01    2.396286e+00
  1.264111e+01    2.446551e+00
  1.265699e+01    2.506385e+00
  1.267286e+01    2.459035e+00
  1.268874e+01    2.488567e+00
  1.270462e+01    2.552400e+00
  1.272049e+01    2.546990e+00
  1.273637e+01    2.568916e+00
  1.275224e+01    2.559396e+00
  1.276812e+01    2.591447e+00
  1.278399e+01    2.597583e+00
  1.279987e+01    2.687033e+00
  1.281574e+01    2.754618e+00
  1.283162e+01    2.779879e+00
  1.284750e+01    2.873205e+00
  1.286337e+01    2.949148e+00
  1.287925e+01    3.014837e+00
  1.289512e+01    3.159363e+00
  1.291100e+01    3.343080e+00
  1.292687e+01    3.512407e+00
  1.294275e+01    3.719051e+00
  1.295862e+01    3.945666e+00
  1.297450e+01    4.266867e+00
  1.299038e+01    4.703326e+00
  1.300625e+01    5.272424e+00
  1.302213e+01    5.971306e+00
  1.303800e+01    6.862199e+00
  1.305388e+01    7.933987e+00
  1.306975e+01    9.256381e+00
  1.308563e+01    1.066458e+01
  1.310150e+01    1.206934e+01
  1.311738e+01    1.354924e+01
  1.313326e+01    1.497385e+01
  1.314913e+01    1.639355e+01
  1.316501e+01    1.761583e+01
  1.318088e+01    1.855722e+01
  1.319676e+01    1.909039e+01
  1.321263e+01    1.853383e+01
  1.322851e+01    1.703452e+01
  1.324438e+01    1.488088e+01
  1.326026e+01    1.258340e+01
  1.327614e+01    1.055965e+01
  1.329201e+01    8.865563e+00
  1.330789e+01    7.536622e+00
  1.332376e+01    6.529281e+00
  1.333964e+01    5.747246e+00
  1.335551e+01    5.155759e+00
  1.337139e+01    4.627820e+00
  1.338727e+01    4.241102e+00
  1.340314e+01    3.816014e+00
  1.341902e+01    3.564493e+00
  1.343489e+01    3.376615e+00
  1.345077e+01    3.217762e+00
  1.346664e+01    3.122917e+00
  1.348252e+01    3.040722e+00
  1.349839e+01    2.910448e+00
  1.351427e+01    2.742363e+00
  1.353015e+01    2.642119e+00
  1.354602e+01    2.568468e+00
  1.356190e+01    2.566152e+00
  1.357777e+01    2.569539e+00
  1.359365e+01    2.463907e+00
  1.360952e+01    2.419793e+00
  1.362540e+01    2.397642e+00
  1.364127e+01    2.375947e+00
  1.365715e+01    2.323565e+00
  1.367303e+01    2.344407e+00
  1.368890e+01    2.299185e+00
  1.370478e+01    2.312500e+00
  1.372065e+01    2.255980e+00
  1.373653e+01    2.251523e+00
  1.375240e+01    2.243031e+00
  1.376828e+01    2.216612e+00
  1.378415e+01    2.204976e+00
  1.380003e+01    2.159242e+00
  1.381591e+01    2.170640e+00
  1.383178e+01    2.198197e+00
  1.384766e+01    2.193670e+00
  1.386353e+01    2.132575e+00
  1.387941e+01    2.111233e+00
  1.389528e+01    2.108778e+00
  1.391116e+01    2.088601e+00
  1.392703e+01    2.114549e+00
  1.394291e+01    2.100104e+00
  1.395879e+01    2.102838e+00
  1.397466e+01    2.092614e+00
  1.399054e+01    2.096223e+00
  1.400641e+01    2.088702e+00
  1.402229e+01    2.035873e+00
  1.403816e+01    2.045816e+00
  1.405404e+01    2.059007e+00
  1.406991e+01    2.051021e+00
  1.408579e+01    2.012347e+00
  1.410167e+01    2.008020e+00
  1.411754e+01    2.013579e+00
  1.413342e+01    2.010500e+00
  1.414929e+01    2.032497e+00
  1.416517e+01    2.042363e+00
  1.418104e+01    2.003910e+00
  1.419692e+01    1.980429e+00
  1.421279e+01    2.012270e+00
  1.422867e+01    1.982579e+00
  1.424455e+01    1.983699e+00
  1.426042e+01    2.022091e+00
  1.427630e+01    2.025559e+00
  1.429217e+01    1.987868e+00
  1.430805e+01    1.975404e+00
  1.432392e+01    2.005817e+00
  1.433980e+01    1.947689e+00
  1.435568e+01    1.925022e+00
  1.437155e+01    1.950759e+00
  1.438743e+01    1.946405e+00
  1.440330e+01    1.949650e+00
  1.441918e+01    1.914968e+00
  1.443505e+01    1.941338e+00
  1.445093e+01    1.922114e+00
  1.446680e+01    1.904245e+00
  1.448268e+01    1.898191e+00
  1.449856e+01    1.947538e+00
  1.451443e+01    1.974584e+00
  1.453031e+01    1.923591e+00
  1.454618e+01    1.913403e+00
  1.456206e+01    1.906043e+00
  1.457793e+01    1.901385e+00
  1.459381e+01    1.917022e+00
  1.460968e+01    1.921672e+00
  1.462556e+01    1.944911e+00
  1.464144e+01    1.957633e+00
  1.465731e+01    1.953819e+00
  1.467319e+01    1.931991e+00
  1.468906e+01    1.908805e+00
  1.470494e+01    1.911211e+00
  1.472081e+01    1.891234e+00
  1.473669e+01    1.941560e+00
  1.475256e+01    1.927667e+00
  1.476844e+01    1.887025e+00
  1.478432e+01    1.883770e+00
  1.480019e+01    1.914566e+00
  1.481607e+01    1.963207e+00
  1.483194e+01    1.947837e+00
  1.484782e+01    1.944045e+00
  1.486369e+01    1.906388e+00
  1.487957e+01    1.947554e+00
  1.489544e+01    1.956742e+00
  1.491132e+01    1.986019e+00
  1.492720e+01    2.005005e+00
  1.494307e+01    2.004123e+00
  1.495895e+01    2.062103e+00
  1.497482e+01    2.118687e+00
  1.499070e+01    2.133109e+00
  1.500657e+01    2.159247e+00
  1.502245e+01    2.211057e+00
  1.503832e+01    2.301069e+00
  1.505420e+01    2.365043e+00
  1.507008e+01    2.484415e+00
  1.508595e+01    2.613191e+00
  1.510183e+01    2.782589e+00
  1.511770e+01    2.993452e+00
  1.513358e+01    3.245222e+00
  1.514945e+01    3.619916e+00
  1.516533e+01    4.022388e+00
  1.518120e+01    4.456948e+00
  1.519708e+01    4.917790e+00
  1.521296e+01    5.263844e+00
  1.522883e+01    5.660110e+00
  1.524471e+01    5.924495e+00
  1.526058e+01    6.129669e+00
  1.527646e+01    6.336082e+00
  1.529233e+01    6.413224e+00
  1.530821e+01    6.194462e+00
  1.532409e+01    5.802065e+00
  1.533996e+01    5.273736e+00
  1.535584e+01    4.604209e+00
  1.537171e+01    4.072830e+00
  1.538759e+01    3.613846e+00
  1.540346e+01    3.212311e+00
  1.541934e+01    2.956903e+00
  1.543521e+01    2.737652e+00
  1.545109e+01    2.587322e+00
  1.546697e+01    2.430763e+00
  1.548284e+01    2.283584e+00
  1.549872e+01    2.197754e+00
  1.551459e+01    2.130634e+00
  1.553047e+01    2.030389e+00
  1.554634e+01    2.013179e+00
  1.556222e+01    2.019676e+00
  1.557809e+01    1.936180e+00
  1.559397e+01    1.907960e+00
  1.560985e+01    1.882415e+00
  1.562572e+01    1.846426e+00
  1.564160e+01    1.857540e+00
  1.565747e+01    1.849702e+00
  1.567335e+01    1.804101e+00
  1.568922e+01    1.789874e+00
  1.570510e+01    1.803787e+00
  1.572097e+01    1.756941e+00
  1.573685e+01    1.755674e+00
  1.575273e+01    1.743326e+00
  1.576860e+01    1.735471e+00
  1.578448e+01    1.700488e+00
  1.580035e+01    1.715317e+00
  1.581623e+01    1.724284e+00
  1.583210e+01    1.685327e+00
  1.584798e+01    1.674853e+00
  1.586385e+01    1.682716e+00
  1.587973e+01    1.713637e+00
  1.589561e+01    1.660333e+00
  1.591148e+01    1.655423e+00
  1.592736e+01    1.677318e+00
  1.594323e+01    1.671549e+00
  1.595911e+01    1.626080e+00
  1.597498e+01    1.631872e+00
  1.599086e+01    1.628896e+00
  1.600673e+01    1.634091e+00
  1.602261e+01    1.611702e+00
  1.603849e+01    1.602458e+00
  1.605436e+01    1.632686e+00
  1.607024e+01    1.644475e+00
  1.608611e+01    1.610416e+00
  1.610199e+01    1.594552e+00
  1.611786e+01    1.582291e+00
  1.613374e+01    1.598192e+00
  1.614961e+01    1.606161e+00
  1.616549e+01    1.591502e+00
  1.618137e+01    1.585711e+00
  1.619724e+01    1.558410e+00
  1.621312e+01    1.545409e+00
  1.622899e+01    1.570926e+00
  1.624487e+01    1.569577e+00
  1.626074e+01    1.577017e+00
  1.627662e+01    1.590782e+00
  1.629250e+01    1.562243e+00
  1.630837e+01    1.517581e+00
  1.632425e+01    1.555726e+00
  1.634012e+01    1.566239e+00
  1.635600e+01    1.542097e+00
  1.637187e+01    1.543984e+00
  1.638775e+01    1.518132e+00
  1.640362e+01    1.546892e+00
  1.641950e+01    1.557200e+00
  1.643538e+01    1.545875e+00
  1.645125e+01    1.537542e+00
  1.646713e+01    1.531170e+00
  1.648300e+01    1.543516e+00
  1.649888e+01    1.516675e+00
  1.651475e+01    1.506988e+00
  1.653063e+01    1.497477e+00
  1.654650e+01    1.509265e+00
  1.656238e+01    1.510799e+00
  1.657826e+01    1.516980e+00
  1.659413e+01    1.490097e+00
  1.661001e+01    1.539522e+00
  1.662588e+01    1.541566e+00
  1.664176e+01    1.540376e+00
  1.665763e+01    1.509997e+00
  1.667351e+01    1.508961e+00
  1.668938e+01    1.486434e+00
  1.670526e+01    1.472883e+00
  1.672114e+01    1.468386e+00
  1.673701e+01    1.484601e+00
  1.675289e+01    1.470895e+00
  1.676876e+01    1.487727e+00
  1.678464e+01    1.498273e+00
  1.680051e+01    1.493817e+00
  1.681639e+01    1.496983e+00
  1.683226e+01    1.467276e+00
  1.684814e+01    1.463701e+00
  1.686402e+01    1.466771e+00
  1.687989e+01    1.471386e+00
  1.689577e+01    1.462959e+00
  1.691164e+01    1.467078e+00
  1.692752e+01    1.472433e+00
  1.694339e+01    1.459291e+00
  1.695927e+01    1.456744e+00
  1.697514e+01    1.442354e+00
  1.699102e+01    1.443032e+00
  1.700690e+01    1.450112e+00
  1.702277e+01    1.441151e+00
  1.703865e+01    1.426528e+00
  1.705452e+01    1.444107e+00
  1.707040e+01    1.429382e+00
  1.708627e+01    1.441561e+00
  1.710215e+01    1.433652e+00
  1.711802e+01    1.428752e+00
  1.713390e+01    1.409166e+00
  1.714978e+01    1.421359e+00
  1.716565e+01    1.425423e+00
  1.718153e+01    1.411378e+00
  1.719740e+01    1.427530e+00
  1.721328e+01    1.411884e+00
  1.722915e+01    1.406604e+00
  1.724503e+01    1.402599e+00
  1.726091e+01    1.396382e+00
  1.727678e+01    1.418650e+00
  1.729266e+01    1.422718e+00
  1.730853e+01    1.393788e+00
  1.732441e+01    1.397532e+00
  1.734028e+01    1.411762e+00
  1.735616e+01    1.402434e+00
  1.737203e+01    1.403909e+00
  1.738791e+01    1.378675e+00
  1.740379e+01    1.376716e+00
  1.741966e+01    1.396362e+00
  1.743554e+01    1.372234e+00
  1.745141e+01    1.363671e+00
  1.746729e+01    1.396124e+00
  1.748316e+01    1.394203e+00
  1.749904e+01    1.386979e+00
  1.751491e+01    1.384544e+00
  1.753079e+01    1.400409e+00
  1.754667e+01    1.376706e+00
  1.756254e+01    1.357694e+00
  1.757842e+01    1.377490e+00
  1.759429e+01    1.363580e+00
  1.761017e+01    1.353573e+00
  1.762604e+01    1.379702e+00
  1.764192e+01    1.363583e+00
  1.765779e+01    1.346944e+00
  1.767367e+01    1.322131e+00
  1.768955e+01    1.329836e+00
  1.770542e+01    1.332378e+00
  1.772130e+01    1.313552e+00
  1.773717e+01    1.322960e+00
  1.775305e+01    1.323437e+00
  1.776892e+01    1.339373e+00
  1.778480e+01    1.341497e+00
  1.780067e+01    1.329235e+00
  1.781655e+01    1.362996e+00
  1.783243e+01    1.360849e+00
  1.784830e+01    1.330020e+00
  1.786418e+01    1.330852e+00
  1.788005e+01    1.312429e+00
  1.789593e+01    1.301525e+00
  1.791180e+01    1.335762e+00
  1.792768e+01    1.336623e+00
  1.794355e+01    1.317120e+00
  1.795943e+01    1.343363e+00
  1.797531e+01    1.340305e+00
  1.799118e+01    1.309854e+00
  1.800706e+01    1.308165e+00
  1.802293e+01    1.289029e+00
  1.803881e+01    1.324855e+00
  1.805468e+01    1.305562e+00
  1.807056e+01    1.321118e+00
  1.808643e+01    1.323155e+00
  1.810231e+01    1.301381e+00
  1.811819e+01    1.287022e+00
  1.813406e+01    1.306546e+00
  1.814994e+01    1.286235e+00
  1.816581e+01    1.283159e+00
  1.818169e+01    1.281058e+00
  1.819756e+01    1.259009e+00
  1.821344e+01    1.254979e+00
  1.822932e+01    1.271702e+00
  1.824519e+01    1.291855e+00
  1.826107e+01    1.276544e+00
  1.827694e+01    1.283127e+00
  1.829282e+01    1.294704e+00
  1.830869e+01    1.307846e+00
  1.832457e+01    1.321756e+00
  1.834044e+01    1.270740e+00
  1.835632e+01    1.276480e+00
  1.837220e+01    1.273180e+00
  1.838807e+01    1.263194e+00
  1.840395e+01    1.269667e+00
  1.841982e+01    1.295779e+00
  1.843570e+01    1.291448e+00
  1.845157e+01    1.259833e+00
  1.846745e+01    1.275975e+00
  1.848332e+01    1.272050e+00
  1.849920e+01    1.242687e+00
  1.851508e+01    1.241416e+00
  1.853095e+01    1.273347e+00
  1.854683e+01    1.273012e+00
  1.856270e+01    1.270245e+00
  1.857858e+01    1.247656e+00
  1.859445e+01    1.238052e+00
  1.861033e+01    1.229712e+00
  1.862620e+01    1.227129e+00
  1.864208e+01    1.211128e+00
  1.865796e+01    1.260941e+00
  1.867383e+01    1.240414e+00
  1.868971e+01    1.227397e+00
  1.870558e+01    1.257792e+00
  1.872146e+01    1.254470e+00
  1.873733e+01    1.230516e+00
  1.875321e+01    1.241595e+00
  1.876908e+01    1.230723e+00
  1.878496e+01    1.247001e+00
  1.880084e+01    1.250598e+00
  1.881671e+01    1.222024e+00
  1.883259e+01    1.231158e+00
  1.884846e+01    1.224213e+00
  1.886434e+01    1.245370e+00
  1.888021e+01    1.213845e+00
  1.889609e+01    1.225692e+00
  1.891196e+01    1.246654e+00
  1.892784e+01    1.229267e+00
  1.894372e+01    1.228083e+00
  1.895959e+01    1.205863e+00
  1.897547e+01    1.182387e+00
  1.899134e+01    1.241609e+00
  1.900722e+01    1.234807e+00
  1.902309e+01    1.208406e+00
  1.903897e+01    1.209788e+00
  1.905484e+01    1.207793e+00
  1.907072e+01    1.225664e+00
  1.908660e+01    1.218354e+00
  1.910247e+01    1.198400e+00
  1.911835e+01    1.194335e+00
  1.913422e+01    1.185988e+00
  1.915010e+01    1.191903e+00
  1.916597e+01    1.180875e+00
  1.918185e+01    1.193516e+00
  1.919773e+01    1.207085e+00
  1.921360e+01    1.193952e+00
  1.922948e+01    1.210036e+00
  1.924535e+01    1.187574e+00
  1.926123e+01    1.174048e+00
  1.927710e+01    1.160884e+00
  1.929298e+01    1.179471e+00
  1.930885e+01    1.216724e+00
  1.932473e+01    1.209053e+00
  1.934061e+01    1.190627e+00
  1.935648e+01    1.170922e+00
  1.937236e+01    1.172551e+00
  1.938823e+01    1.165540e+00
  1.940411e+01    1.166139e+00
  1.941998e+01    1.143854e+00
  1.943586e+01    1.150081e+00
  1.945173e+01    1.184572e+00
  1.946761e+01    1.165695e+00
  1.948349e+01    1.163321e+00
  1.949936e+01    1.155334e+00
  1.951524e+01    1.162555e+00
  1.953111e+01    1.187331e+00
  1.954699e+01    1.170902e+00
  1.956286e+01    1.162412e+00
  1.957874e+01    1.172183e+00
  1.959461e+01    1.167905e+00
  1.961049e+01    1.154987e+00
  1.962637e+01    1.133461e+00
  1.964224e+01    1.155937e+00
  1.965812e+01    1.154360e+00
  1.967399e+01    1.153036e+00
  1.968987e+01    1.159912e+00
  1.970574e+01    1.172204e+00
  1.972162e+01    1.148877e+00
  1.973749e+01    1.148096e+00
  1.975337e+01    1.124863e+00
  1.976925e+01    1.148925e+00
  1.978512e+01    1.141211e+00
  1.980100e+01    1.153293e+00
  1.981687e+01    1.132652e+00
  1.983275e+01    1.125411e+00
  1.984862e+01    1.110746e+00
  1.986450e+01    1.144201e+00
  1.988037e+01    1.146394e+00
  1.989625e+01    1.158991e+00
  1.991213e+01    1.144563e+00
  1.992800e+01    1.128066e+00
  1.994388e+01    1.146838e+00
  1.995975e+01    1.174832e+00
  1.997563e+01    1.119540e+00
  1.999150e+01    1.122010e+00
  2.000738e+01    1.153510e+00
  2.002325e+01    1.141462e+00
  2.003913e+01    1.097050e+00
  2.005501e+01    1.112860e+00
  2.007088e+01    1.138299e+00
  2.008676e+01    1.115572e+00
  2.010263e+01    1.112897e+00
  2.011851e+01    1.136458e+00
  2.013438e+01    1.114991e+00
  2.015026e+01    1.131486e+00
  2.016614e+01    1.122371e+00
  2.018201e+01    1.110860e+00
  2.019789e+01    1.094179e+00
  2.021376e+01    1.103972e+00
  2.022964e+01    1.115367e+00
  2.024551e+01    1.113216e+00
  2.026139e+01    1.118744e+00
  2.027726e+01    1.089620e+00
  2.029314e+01    1.094951e+00
  2.030902e+01    1.084570e+00
  2.032489e+01    1.109890e+00
  2.034077e+01    1.107113e+00
  2.035664e+01    1.107457e+00
  2.037252e+01    1.090591e+00
  2.038839e+01    1.095577e+00
  2.040427e+01    1.104717e+00
  2.042014e+01    1.079915e+00
  2.043602e+01    1.111518e+00
  2.045190e+01    1.113986e+00
  2.046777e+01    1.095844e+00
  2.048365e+01    1.077204e+00
  2.049952e+01    1.078081e+00
  2.051540e+01    1.106643e+00
  2.053127e+01    1.100559e+00
  2.054715e+01    1.091491e+00
  2.056302e+01    1.071369e+00
  2.057890e+01    1.088457e+00
  2.059478e+01    1.087839e+00
  2.061065e+01    1.071390e+00
  2.062653e+01    1.075133e+00
  2.064240e+01    1.088403e+00
  2.065828e+01    1.100326e+00
  2.067415e+01    1.077659e+00
  2.069003e+01    1.090736e+00
  2.070590e+01    1.092139e+00
  2.072178e+01    1.090388e+00
  2.073766e+01    1.076993e+00
  2.075353e+01    1.089624e+00
  2.076941e+01    1.096753e+00
  2.078528e+01    1.095230e+00
  2.080116e+01    1.096265e+00
  2.081703e+01    1.118291e+00
  2.083291e+01    1.093871e+00
  2.084878e+01    1.097554e+00
  2.086466e+01    1.092451e+00
  2.088054e+01    1.071794e+00
  2.089641e+01    1.079018e+00
  2.091229e+01    1.078474e+00
  2.092816e+01    1.087523e+00
  2.094404e+01    1.087482e+00
  2.095991e+01    1.071294e+00
  2.097579e+01    1.087872e+00
  2.099166e+01    1.087042e+00
  2.100754e+01    1.069146e+00
  2.102342e+01    1.093538e+00
  2.103929e+01    1.112407e+00
  2.105517e+01    1.116128e+00
  2.107104e+01    1.098542e+00
  2.108692e+01    1.094063e+00
  2.110279e+01    1.077308e+00
  2.111867e+01    1.077175e+00
  2.113455e+01    1.078103e+00
  2.115042e+01    1.073213e+00
  2.116630e+01    1.093363e+00
  2.118217e+01    1.093265e+00
  2.119805e+01    1.095199e+00
  2.121392e+01    1.104630e+00
  2.122980e+01    1.096591e+00
  2.124567e+01    1.117745e+00
  2.126155e+01    1.144763e+00
  2.127743e+01    1.121204e+00
  2.129330e+01    1.143342e+00
  2.130918e+01    1.161138e+00
  2.132505e+01    1.144293e+00
  2.134093e+01    1.141700e+00
  2.135680e+01    1.177248e+00
  2.137268e+01    1.183687e+00
  2.138855e+01    1.185444e+00
  2.140443e+01    1.194072e+00
  2.142031e+01    1.203567e+00
  2.143618e+01    1.186737e+00
  2.145206e+01    1.217623e+00
  2.146793e+01    1.228750e+00
  2.148381e+01    1.244353e+00
  2.149968e+01    1.278940e+00
  2.151556e+01    1.315965e+00
  2.153143e+01    1.335822e+00
  2.154731e+01    1.379569e+00
  2.156319e+01    1.418517e+00
  2.157906e+01    1.439907e+00
  2.159494e+01    1.482228e+00
  2.161081e+01    1.572616e+00
  2.162669e+01    1.648010e+00
  2.164256e+01    1.717275e+00
  2.165844e+01    1.840512e+00
  2.167431e+01    2.001029e+00
  2.169019e+01    2.181364e+00
  2.170607e+01    2.420390e+00
  2.172194e+01    2.636797e+00
  2.173782e+01    2.927666e+00
  2.175369e+01    3.373021e+00
  2.176957e+01    3.855228e+00
  2.178544e+01    4.406737e+00
  2.180132e+01    5.062406e+00
  2.181719e+01    5.724261e+00
  2.183307e+01    6.529997e+00
  2.184895e+01    7.341247e+00
  2.186482e+01    8.225390e+00
  2.188070e+01    9.045552e+00
  2.189657e+01    9.789759e+00
  2.191245e+01    1.028396e+01
  2.192832e+01    1.049745e+01
  2.194420e+01    1.029105e+01
  2.196007e+01    9.555020e+00
  2.197595e+01    8.632218e+00
  2.199183e+01    7.441183e+00
  2.200770e+01    6.245057e+00
  2.202358e+01    5.334786e+00
  2.203945e+01    4.519940e+00
  2.205533e+01    3.840053e+00
  2.207120e+01    3.333679e+00
  2.208708e+01    2.919394e+00
  2.210296e+01    2.591562e+00
  2.211883e+01    2.377201e+00
  2.213471e+01    2.150878e+00
  2.215058e+01    1.979739e+00
  2.216646e+01    1.852860e+00
  2.218233e+01    1.746163e+00
  2.219821e+01    1.618915e+00
  2.221408e+01    1.553729e+00
  2.222996e+01    1.468155e+00
  2.224584e+01    1.391869e+00
  2.226171e+01    1.341403e+00
  2.227759e+01    1.329485e+00
  2.229346e+01    1.299321e+00
  2.230934e+01    1.266159e+00
  2.232521e+01    1.261847e+00
  2.234109e+01    1.227241e+00
  2.235696e+01    1.167017e+00
  2.237284e+01    1.155378e+00
  2.238872e+01    1.131487e+00
  2.240459e+01    1.132926e+00
  2.242047e+01    1.120832e+00
  2.243634e+01    1.125221e+00
  2.245222e+01    1.087505e+00
  2.246809e+01    1.078572e+00
  2.248397e+01    1.041869e+00
  2.249984e+01    1.033521e+00
  2.251572e+01    1.051661e+00
  2.253160e+01    1.052172e+00
  2.254747e+01    1.033673e+00
  2.256335e+01    1.030603e+00
  2.257922e+01    1.017917e+00
  2.259510e+01    1.021164e+00
  2.261097e+01    1.006445e+00
  2.262685e+01    9.788308e-01
  2.264272e+01    9.862061e-01
  2.265860e+01    9.816673e-01
  2.267448e+01    9.640043e-01
  2.269035e+01    9.735001e-01
  2.270623e+01    9.805797e-01
  2.272210e+01    9.702997e-01
  2.273798e+01    9.383093e-01
  2.275385e+01    9.366706e-01
  2.276973e+01    9.558284e-01
  2.278560e+01    9.441954e-01
  2.280148e+01    9.600784e-01
  2.281736e+01    9.376855e-01
  2.283323e+01    9.296464e-01
  2.284911e+01    9.496652e-01
  2.286498e+01    9.479614e-01
  2.288086e+01    9.574874e-01
  2.289673e+01    9.270355e-01
  2.291261e+01    9.380777e-01
  2.292848e+01    9.409754e-01
  2.294436e+01    9.278935e-01
  2.296024e+01    9.281217e-01
  2.297611e+01    9.162476e-01
  2.299199e+01    9.043998e-01
  2.300786e+01    9.000190e-01
  2.302374e+01    9.028367e-01
  2.303961e+01    9.058990e-01
  2.305549e+01    8.766034e-01
  2.307137e+01    8.858745e-01
  2.308724e+01    9.068046e-01
  2.310312e+01    9.081378e-01
  2.311899e+01    8.906605e-01
  2.313487e+01    9.031323e-01
  2.315074e+01    8.907639e-01
  2.316662e+01    8.729594e-01
  2.318249e+01    8.665760e-01
  2.319837e+01    8.762284e-01
  2.321425e+01    8.833020e-01
  2.323012e+01    8.733240e-01
  2.324600e+01    8.701526e-01
  2.326187e+01    8.812686e-01
  2.327775e+01    8.701091e-01
  2.329362e+01    8.725653e-01
  2.330950e+01    8.793749e-01
  2.332537e+01    8.818175e-01
  2.334125e+01    8.615146e-01
  2.335713e+01    8.715366e-01
  2.337300e+01    8.751191e-01
  2.338888e+01    8.887108e-01
  2.340475e+01    8.743786e-01
  2.342063e+01    8.711299e-01
  2.343650e+01    8.787006e-01
  2.345238e+01    8.874573e-01
  2.346825e+01    8.737805e-01
  2.348413e+01    8.644807e-01
  2.350001e+01    8.630756e-01
  2.351588e+01    8.705241e-01
  2.353176e+01    8.404890e-01
  2.354763e+01    8.387047e-01
  2.356351e+01    8.451928e-01
  2.357938e+01    8.515874e-01
  2.359526e+01    8.662826e-01
  2.361113e+01    8.463897e-01
  2.362701e+01    8.659989e-01
  2.364289e+01    8.366082e-01
  2.365876e+01    8.310107e-01
  2.367464e+01    8.421245e-01
  2.369051e+01    8.400334e-01
  2.370639e+01    8.265768e-01
  2.372226e+01    8.284215e-01
  2.373814e+01    8.364223e-01
  2.375401e+01    8.247414e-01
  2.376989e+01    8.039188e-01
  2.378577e+01    8.119241e-01
  2.380164e+01    8.050039e-01
  2.381752e+01    8.172320e-01
  2.383339e+01    8.259663e-01
  2.384927e+01    8.160802e-01
  2.386514e+01    8.219619e-01
  2.388102e+01    8.099319e-01
  2.389689e+01    8.227798e-01
  2.391277e+01    8.140195e-01
  2.392865e+01    8.110979e-01
  2.394452e+01    8.181177e-01
  2.396040e+01    8.026834e-01
  2.397627e+01    7.952361e-01
  2.399215e+01    8.024293e-01
  2.400802e+01    7.944486e-01
  2.402390e+01    8.026809e-01
  2.403978e+01    8.187835e-01
  2.405565e+01    8.212944e-01
  2.407153e+01    8.049594e-01
  2.408740e+01    7.689248e-01
  2.410328e+01    7.725013e-01
  2.411915e+01    7.881327e-01
  2.413503e+01    8.047456e-01
  2.415090e+01    8.003495e-01
  2.416678e+01    8.031911e-01
  2.418266e+01    7.845203e-01
  2.419853e+01    7.818082e-01
  2.421441e+01    7.917738e-01
  2.423028e+01    7.816608e-01
  2.424616e+01    7.745445e-01
  2.426203e+01    7.925720e-01
  2.427791e+01    8.094473e-01
  2.429378e+01    8.072274e-01
  2.430966e+01    7.921553e-01
  2.432554e+01    8.132094e-01
  2.434141e+01    8.116490e-01
  2.435729e+01    8.100872e-01
  2.437316e+01    7.917954e-01
  2.438904e+01    7.768919e-01
  2.440491e+01    8.083294e-01
  2.442079e+01    8.103317e-01
  2.443666e+01    7.878295e-01
  2.445254e+01    7.873210e-01
  2.446842e+01    8.054085e-01
  2.448429e+01    7.787220e-01
  2.450017e+01    7.893065e-01
  2.451604e+01    8.162804e-01
  2.453192e+01    8.048955e-01
  2.454779e+01    8.182421e-01
  2.456367e+01    8.041594e-01
  2.457954e+01    7.954959e-01
  2.459542e+01    7.831573e-01
  2.461130e+01    7.899382e-01
  2.462717e+01    7.903332e-01
  2.464305e+01    8.184058e-01
  2.465892e+01    8.030969e-01
  2.467480e+01    7.933455e-01
  2.469067e+01    7.879403e-01
  2.470655e+01    7.879959e-01
  2.472242e+01    8.067189e-01
  2.473830e+01    8.136554e-01
  2.475418e+01    8.011466e-01
  2.477005e+01    8.204880e-01
  2.478593e+01    7.997836e-01
  2.480180e+01    7.831262e-01
  2.481768e+01    7.846638e-01
  2.483355e+01    7.911309e-01
  2.484943e+01    8.040735e-01
  2.486530e+01    7.939403e-01
  2.488118e+01    7.775152e-01
  2.489706e+01    7.857728e-01
  2.491293e+01    7.961046e-01
  2.492881e+01    8.022332e-01
  2.494468e+01    8.114625e-01
  2.496056e+01    7.990404e-01
  2.497643e+01    7.829840e-01
  2.499231e+01    7.906057e-01
  2.500819e+01    7.965564e-01
  2.502406e+01    8.111458e-01
  2.503994e+01    8.256224e-01
  2.505581e+01    8.250718e-01
  2.507169e+01    8.217133e-01
  2.508756e+01    8.247799e-01
  2.510344e+01    8.317268e-01
  2.511931e+01    8.191205e-01
  2.513519e+01    8.194463e-01
  2.515107e+01    8.238518e-01
  2.516694e+01    8.169485e-01
  2.518282e+01    8.414440e-01
  2.519869e+01    8.642951e-01
  2.521457e+01    8.463436e-01
  2.523044e+01    8.659410e-01
  2.524632e+01    8.606817e-01
  2.526219e+01    8.758454e-01
  2.527807e+01    8.797167e-01
  2.529395e+01    8.804382e-01
  2.530982e+01    8.818852e-01
  2.532570e+01    8.665274e-01
  2.534157e+01    8.682846e-01
  2.535745e+01    8.821445e-01
  2.537332e+01    8.765687e-01
  2.538920e+01    9.076364e-01
  2.540507e+01    9.227050e-01
  2.542095e+01    9.317433e-01
  2.543683e+01    9.308600e-01
  2.545270e+01    9.521294e-01
  2.546858e+01    9.293392e-01
  2.548445e+01    9.557378e-01
  2.550033e+01    9.743032e-01
  2.551620e+01    9.738024e-01
  2.553208e+01    1.021899e+00
  2.554795e+01    1.001440e+00
  2.556383e+01    1.036350e+00
  2.557971e+01    1.055728e+00
  2.559558e+01    1.083880e+00
  2.561146e+01    1.101457e+00
  2.562733e+01    1.136537e+00
  2.564321e+01    1.166119e+00
  2.565908e+01    1.215898e+00
  2.567496e+01    1.245685e+00
  2.569083e+01    1.333238e+00
  2.570671e+01    1.416935e+00
  2.572259e+01    1.505075e+00
  2.573846e+01    1.602455e+00
  2.575434e+01    1.716655e+00
  2.577021e+01    1.883139e+00
  2.578609e+01    2.070681e+00
  2.580196e+01    2.295558e+00
  2.581784e+01    2.539955e+00
  2.583371e+01    2.924067e+00
  2.584959e+01    3.371216e+00
  2.586547e+01    3.844429e+00
  2.588134e+01    4.409643e+00
  2.589722e+01    5.075685e+00
  2.591309e+01    5.841165e+00
  2.592897e+01    6.586858e+00
  2.594484e+01    7.330928e+00
  2.596072e+01    7.963838e+00
  2.597660e+01    8.418219e+00
  2.599247e+01    8.704897e+00
  2.600835e+01    8.667851e+00
  2.602422e+01    8.198897e+00
  2.604010e+01    7.476753e+00
  2.605597e+01    6.645535e+00
  2.607185e+01    5.687705e+00
  2.608772e+01    4.840475e+00
  2.610360e+01    4.143086e+00
  2.611948e+01    3.546100e+00
  2.613535e+01    3.081653e+00
  2.615123e+01    2.723307e+00
  2.616710e+01    2.375112e+00
  2.618298e+01    2.159284e+00
  2.619885e+01    1.983316e+00
  2.621473e+01    1.774439e+00
  2.623060e+01    1.669588e+00
  2.624648e+01    1.587913e+00
  2.626236e+01    1.457723e+00
  2.627823e+01    1.403850e+00
  2.629411e+01    1.339783e+00
  2.630998e+01    1.266949e+00
  2.632586e+01    1.214937e+00
  2.634173e+01    1.185259e+00
  2.635761e+01    1.126368e+00
  2.637348e+01    1.091520e+00
  2.638936e+01    1.089673e+00
  2.640524e+01    1.081814e+00
  2.642111e+01    1.042275e+00
  2.643699e+01    1.047372e+00
  2.645286e+01    1.016763e+00
  2.646874e+01    1.000387e+00
  2.648461e+01    9.833876e-01
  2.650049e+01    9.518697e-01
  2.651636e+01    9.658115e-01
  2.653224e+01    9.672672e-01
  2.654812e+01    9.442161e-01
  2.656399e+01    9.340695e-01
  2.657987e+01    9.368572e-01
  2.659574e+01    9.314186e-01
  2.661162e+01    9.356650e-01
  2.662749e+01    9.260857e-01
  2.664337e+01    9.216633e-01
  2.665924e+01    9.247001e-01
  2.667512e+01    9.093093e-01
  2.669100e+01    9.276838e-01
  2.670687e+01    9.288265e-01
  2.672275e+01    9.291624e-01
  2.673862e+01    9.314882e-01
  2.675450e+01    9.263989e-01
  2.677037e+01    9.258825e-01
  2.678625e+01    9.117174e-01
  2.680212e+01    8.993858e-01
  2.681800e+01    9.274869e-01
  2.683388e+01    9.372684e-01
  2.684975e+01    9.191471e-01
  2.686563e+01    9.187375e-01
  2.688150e+01    9.107416e-01
  2.689738e+01    9.280273e-01
  2.691325e+01    9.446316e-01
  2.692913e+01    9.619043e-01
  2.694501e+01    9.634048e-01
  2.696088e+01    9.756517e-01
  2.697676e+01    9.832987e-01
  2.699263e+01    9.969103e-01
  2.700851e+01    1.009909e+00
  2.702438e+01    1.020619e+00
  2.704026e+01    1.076166e+00
  2.705613e+01    1.093210e+00
  2.707201e+01    1.154421e+00
  2.708789e+01    1.226805e+00
  2.710376e+01    1.283966e+00
  2.711964e+01    1.372103e+00
  2.713551e+01    1.482917e+00
  2.715139e+01    1.611690e+00
  2.716726e+01    1.771222e+00
  2.718314e+01    1.943293e+00
  2.719901e+01    2.135884e+00
  2.721489e+01    2.291989e+00
  2.723077e+01    2.389650e+00
  2.724664e+01    2.497866e+00
  2.726252e+01    2.501598e+00
  2.727839e+01    2.483552e+00
  2.729427e+01    2.355820e+00
  2.731014e+01    2.131337e+00
  2.732602e+01    1.954547e+00
  2.734189e+01    1.787612e+00
  2.735777e+01    1.613351e+00
  2.737365e+01    1.464568e+00
  2.738952e+01    1.360691e+00
  2.740540e+01    1.281799e+00
  2.742127e+01    1.197166e+00
  2.743715e+01    1.152121e+00
  2.745302e+01    1.104248e+00
  2.746890e+01    1.053627e+00
  2.748477e+01    1.008335e+00
  2.750065e+01    9.819944e-01
  2.751653e+01    9.677860e-01
  2.753240e+01    9.260856e-01
  2.754828e+01    9.198253e-01
  2.756415e+01    8.948525e-01
  2.758003e+01    9.017389e-01
  2.759590e+01    8.714568e-01
  2.761178e+01    8.489174e-01
  2.762765e+01    8.813627e-01
  2.764353e+01    8.653708e-01
  2.765941e+01    8.542287e-01
  2.767528e+01    8.495587e-01
  2.769116e+01    8.479791e-01
  2.770703e+01    8.442537e-01
  2.772291e+01    8.531293e-01
  2.773878e+01    8.290803e-01
  2.775466e+01    8.285994e-01
  2.777054e+01    8.518916e-01
  2.778641e+01    8.233473e-01
  2.780229e+01    8.336095e-01
  2.781816e+01    8.068935e-01
  2.783404e+01    7.988412e-01
  2.784991e+01    8.005615e-01
  2.786579e+01    8.099616e-01
  2.788166e+01    8.236198e-01
  2.789754e+01    8.410761e-01
  2.791342e+01    8.290524e-01
  2.792929e+01    8.239882e-01
  2.794517e+01    7.966858e-01
  2.796104e+01    7.931737e-01
  2.797692e+01    8.082998e-01
  2.799279e+01    8.110018e-01
  2.800867e+01    8.165728e-01
  2.802454e+01    8.306291e-01
  2.804042e+01    7.994083e-01
  2.805630e+01    7.926815e-01
  2.807217e+01    8.049226e-01
  2.808805e+01    8.017825e-01
  2.810392e+01    7.856474e-01
  2.811980e+01    7.931910e-01
  2.813567e+01    7.746875e-01
  2.815155e+01    7.863256e-01
  2.816742e+01    7.730294e-01
  2.818330e+01    7.828829e-01
  2.819918e+01    7.897387e-01
  2.821505e+01    8.030676e-01
  2.823093e+01    7.880272e-01
  2.824680e+01    7.662673e-01
  2.826268e+01    7.862308e-01
  2.827855e+01    7.950288e-01
  2.829443e+01    7.732726e-01
  2.831030e+01    7.877609e-01
  2.832618e+01    7.958663e-01
  2.834206e+01    7.827028e-01
  2.835793e+01    7.815506e-01
  2.837381e+01    7.875670e-01
  2.838968e+01    7.738479e-01
  2.840556e+01    7.813060e-01
  2.842143e+01    8.078344e-01
  2.843731e+01    7.844808e-01
  2.845318e+01    7.726763e-01
  2.846906e+01    7.824107e-01
  2.848494e+01    7.719063e-01
  2.850081e+01    7.536318e-01
  2.851669e+01    7.700459e-01
  2.853256e+01    7.690291e-01
  2.854844e+01    7.531930e-01
  2.856431e+01    7.625411e-01
  2.858019e+01    7.623384e-01
  2.859606e+01    7.695915e-01
  2.861194e+01    7.813894e-01
  2.862782e+01    7.528456e-01
  2.864369e+01    7.691206e-01
  2.865957e+01    7.725649e-01
  2.867544e+01    7.712214e-01
  2.869132e+01    7.560186e-01
  2.870719e+01    7.683795e-01
  2.872307e+01    7.540889e-01
  2.873895e+01    7.606798e-01
  2.875482e+01    7.604765e-01
  2.877070e+01    7.516116e-01
  2.878657e+01    7.700403e-01
  2.880245e+01    7.615290e-01
  2.881832e+01    7.624372e-01
  2.883420e+01    7.467490e-01
  2.885007e+01    7.502367e-01
  2.886595e+01    7.579145e-01
  2.888183e+01    7.377220e-01
  2.889770e+01    7.343850e-01
  2.891358e+01    7.296058e-01
  2.892945e+01    7.424732e-01
  2.894533e+01    7.406746e-01
  2.896120e+01    7.458060e-01
  2.897708e+01    7.627954e-01
  2.899295e+01    7.584680e-01
  2.900883e+01    7.624118e-01
  2.902471e+01    7.571684e-01
  2.904058e+01    7.594453e-01
  2.905646e+01    7.517651e-01
  2.907233e+01    7.437671e-01
  2.908821e+01    7.347943e-01
  2.910408e+01    7.481014e-01
  2.911996e+01    7.414784e-01
  2.913583e+01    7.409748e-01
  2.915171e+01    7.257641e-01
  2.916759e+01    7.236894e-01
  2.918346e+01    7.209802e-01
  2.919934e+01    7.507889e-01
  2.921521e+01    7.435352e-01
  2.923109e+01    7.214415e-01
  2.924696e+01    7.393053e-01
  2.926284e+01    7.390750e-01
  2.927871e+01    7.357438e-01
  2.929459e+01    7.547966e-01
  2.931047e+01    7.459953e-01
  2.932634e+01    7.332613e-01
  2.934222e+01    7.298324e-01
  2.935809e+01    7.428144e-01
  2.937397e+01    7.258374e-01
  2.938984e+01    7.454761e-01
  2.940572e+01    7.596582e-01
  2.942159e+01    7.541382e-01
  2.943747e+01    7.386081e-01
  2.945335e+01    7.366394e-01
  2.946922e+01    7.345361e-01
  2.948510e+01    7.189443e-01
  2.950097e+01    7.194117e-01
  2.951685e+01    7.235729e-01
  2.953272e+01    7.415892e-01
  2.954860e+01    7.318766e-01
  2.956447e+01    7.275932e-01
  2.958035e+01    7.033067e-01
  2.959623e+01    7.182660e-01
  2.961210e+01    7.407234e-01
  2.962798e+01    7.429827e-01
  2.964385e+01    7.359085e-01
  2.965973e+01    7.545507e-01
  2.967560e+01    7.408932e-01
  2.969148e+01    7.184509e-01
  2.970736e+01    7.062953e-01
  2.972323e+01    7.221819e-01
  2.973911e+01    7.215108e-01
  2.975498e+01    7.347834e-01
  2.977086e+01    7.362314e-01
  2.978673e+01    7.232016e-01
  2.980261e+01    7.117628e-01
  2.981848e+01    7.336243e-01
  2.983436e+01    7.206997e-01
  2.985024e+01    7.196038e-01
  2.986611e+01    7.310163e-01
  2.988199e+01    7.237945e-01
  2.989786e+01    7.328594e-01
  2.991374e+01    7.210115e-01
  2.992961e+01    7.355210e-01
  2.994549e+01    7.537594e-01
  2.996136e+01    7.352057e-01
  2.997724e+01    7.281691e-01
  2.999312e+01    7.398746e-01
  3.000899e+01    7.572103e-01
  3.002487e+01    7.710708e-01
  3.004074e+01    7.564396e-01
  3.005662e+01    7.559409e-01
  3.007249e+01    7.440045e-01
  3.008837e+01    7.312711e-01
  3.010424e+01    7.305474e-01
  3.012012e+01    7.502620e-01
  3.013600e+01    7.490858e-01
  3.015187e+01    7.311797e-01
  3.016775e+01    7.415153e-01
  3.018362e+01    7.145835e-01
  3.019950e+01    7.286309e-01
  3.021537e+01    7.451851e-01
  3.023125e+01    7.284838e-01
  3.024712e+01    7.149619e-01
  3.026300e+01    7.178005e-01
  3.027888e+01    7.225814e-01
  3.029475e+01    7.353250e-01
  3.031063e+01    7.112209e-01
  3.032650e+01    6.930336e-01
  3.034238e+01    6.968503e-01
  3.035825e+01    7.216504e-01
  3.037413e+01    7.242604e-01
  3.039000e+01    7.111952e-01
  3.040588e+01    7.205271e-01
  3.042176e+01    7.357306e-01
  3.043763e+01    7.367998e-01
  3.045351e+01    7.533692e-01
  3.046938e+01    7.390902e-01
  3.048526e+01    7.169136e-01
  3.050113e+01    7.047921e-01
  3.051701e+01    7.003853e-01
  3.053288e+01    6.999937e-01
  3.054876e+01    7.266697e-01
  3.056464e+01    7.105755e-01
  3.058051e+01    7.111256e-01
  3.059639e+01    7.288697e-01
  3.061226e+01    7.245961e-01
  3.062814e+01    7.238145e-01
  3.064401e+01    7.200760e-01
  3.065989e+01    7.258875e-01
  3.067577e+01    7.347625e-01
  3.069164e+01    7.353033e-01
  3.070752e+01    7.381540e-01
  3.072339e+01    7.279438e-01
  3.073927e+01    7.090096e-01
  3.075514e+01    7.243342e-01
  3.077102e+01    7.372462e-01
  3.078689e+01    7.245100e-01
  3.080277e+01    7.233732e-01
  3.081865e+01    7.148332e-01
  3.083452e+01    7.054040e-01
  3.085040e+01    7.075506e-01
  3.086627e+01    7.139840e-01
  3.088215e+01    7.103366e-01
  3.089802e+01    6.979711e-01
  3.091390e+01    7.110909e-01
  3.092977e+01    7.208110e-01
  3.094565e+01    7.293813e-01
  3.096153e+01    7.423242e-01
  3.097740e+01    7.286704e-01
  3.099328e+01    7.251149e-01
  3.100915e+01    7.238069e-01
  3.102503e+01    7.278131e-01
  3.104090e+01    7.345279e-01
  3.105678e+01    7.205256e-01
  3.107265e+01    7.216127e-01
  3.108853e+01    7.246283e-01
  3.110441e+01    7.403818e-01
  3.112028e+01    7.383381e-01
  3.113616e+01    7.399244e-01
  3.115203e+01    7.086372e-01
  3.116791e+01    7.282109e-01
  3.118378e+01    7.391776e-01
  3.119966e+01    7.372744e-01
  3.121553e+01    7.528253e-01
  3.123141e+01    7.300482e-01
  3.124729e+01    7.317773e-01
  3.126316e+01    7.360256e-01
  3.127904e+01    7.480598e-01
  3.129491e+01    7.385660e-01
  3.131079e+01    7.232984e-01
  3.132666e+01    7.448619e-01
  3.134254e+01    7.476036e-01
  3.135841e+01    7.462975e-01
  3.137429e+01    7.630548e-01
  3.139017e+01    7.559809e-01
  3.140604e+01    7.480150e-01
  3.142192e+01    7.763578e-01
  3.143779e+01    7.644557e-01
  3.145367e+01    7.600788e-01
  3.146954e+01    7.737777e-01
  3.148542e+01    7.675008e-01
  3.150129e+01    7.715101e-01
  3.151717e+01    7.584243e-01
  3.153305e+01    7.865731e-01
  3.154892e+01    8.041943e-01
  3.156480e+01    8.013698e-01
  3.158067e+01    7.937930e-01
  3.159655e+01    7.967392e-01
  3.161242e+01    8.244377e-01
  3.162830e+01    8.357001e-01
  3.164418e+01    8.552075e-01
  3.166005e+01    8.640513e-01
  3.167593e+01    8.711320e-01
  3.169180e+01    8.965745e-01
  3.170768e+01    9.488657e-01
  3.172355e+01    9.614717e-01
  3.173943e+01    9.847813e-01
  3.175530e+01    1.032420e+00
  3.177118e+01    1.100425e+00
  3.178706e+01    1.151408e+00
  3.180293e+01    1.236823e+00
  3.181881e+01    1.365966e+00
  3.183468e+01    1.464317e+00
  3.185056e+01    1.599949e+00
  3.186643e+01    1.767994e+00
  3.188231e+01    1.909319e+00
  3.189818e+01    2.093730e+00
  3.191406e+01    2.308122e+00
  3.192994e+01    2.444631e+00
  3.194581e+01    2.470990e+00
  3.196169e+01    2.472925e+00
  3.197756e+01    2.400810e+00
  3.199344e+01    2.270420e+00
  3.200931e+01    2.078094e+00
  3.202519e+01    1.908779e+00
  3.204106e+01    1.707674e+00
  3.205694e+01    1.535892e+00
  3.207282e+01    1.382883e+00
  3.208869e+01    1.256443e+00
  3.210457e+01    1.191134e+00
  3.212044e+01    1.111763e+00
  3.213632e+01    1.025314e+00
  3.215219e+01    1.026389e+00
  3.216807e+01    9.845076e-01
  3.218394e+01    9.157647e-01
  3.219982e+01    8.884595e-01
  3.221570e+01    8.893059e-01
  3.223157e+01    8.772125e-01
  3.224745e+01    8.283688e-01
  3.226332e+01    8.327373e-01
  3.227920e+01    8.309093e-01
  3.229507e+01    8.100744e-01
  3.231095e+01    8.007513e-01
  3.232682e+01    7.806759e-01
  3.234270e+01    7.881663e-01
  3.235858e+01    7.848429e-01
  3.237445e+01    7.449084e-01
  3.239033e+01    7.503733e-01
  3.240620e+01    7.586192e-01
  3.242208e+01    7.584606e-01
  3.243795e+01    7.698666e-01
  3.245383e+01    7.546176e-01
  3.246970e+01    7.526918e-01
  3.248558e+01    7.487352e-01
  3.250146e+01    7.592119e-01
  3.251733e+01    7.521869e-01
  3.253321e+01    7.346451e-01
  3.254908e+01    7.426793e-01
