# == pyFAI calibration ==
# Distance Sample to Detector: 0.3999999939076516 m
# PONI: 9.750e-02, 1.135e-01 m
# Rotations: -0.000175 0.000000 -0.000000 rad
# 
# == Fit2d calibration ==
# Distance Sample-beamCenter: 400.000 mm
# Center: x=1514.000, y=1300.000 pix
# Tilt: 0.010 deg  TiltPlanRot: 0.010 deg
# 
# Detector Detector	 Spline= None	 PixelSize= 7.500e-05, 7.500e-05 m
#    Detector has a mask: False 
#    Detector has a dark current: False 
#    detector has a flat field: False 
# 
# Wavelength: 6.888e-11 m
# Mask applied: user provided
# Dark current applied: False
# Flat field applied: False
# Polarization factor: 0.99
# Normalization factor: 1.0
# --> /home/myspot/data/2024_07_Rosario/Ru-CGO-ex/2024-07-27_002_Ru-CGO-ex_Activtation_ramp_000002_data_000117.dat
#       q_nm^-1             I 
  2.003187e-02    0.000000e+00
  3.590745e-02    7.159096e-02
  5.178302e-02    4.982497e-02
  6.765859e-02    1.985621e-02
  8.353417e-02    1.130121e-01
  9.940974e-02    5.817185e-02
  1.152853e-01    1.798372e-02
  1.311609e-01    5.634461e-02
  1.470365e-01    2.590703e-02
  1.629120e-01    5.142058e-02
  1.787876e-01    1.610206e-02
  1.946632e-01    5.420638e-02
  2.105388e-01    2.233973e-02
  2.264143e-01    1.348831e-02
  2.422899e-01    2.112998e-02
  2.581655e-01    1.747140e-02
  2.740411e-01    3.586060e-02
  2.899166e-01    6.509119e-02
  3.057922e-01    3.986121e-02
  3.216678e-01    1.753437e-02
  3.375433e-01    1.150587e-02
  3.534189e-01    8.267685e-03
  3.692945e-01    2.652353e-02
  3.851701e-01    1.263436e-02
  4.010456e-01    2.242617e-02
  4.169212e-01    4.795488e-02
  4.327968e-01    2.269029e-02
  4.486724e-01    2.987612e-02
  4.645479e-01    2.798286e-02
  4.804235e-01    3.776593e-02
  4.962991e-01    2.694839e-02
  5.121747e-01    1.089339e-02
  5.280502e-01    7.245600e-03
  5.439258e-01    3.612782e-02
  5.598014e-01    4.031365e-02
  5.756770e-01    3.489482e-02
  5.915525e-01    3.755449e-02
  6.074281e-01    4.147279e-02
  6.233037e-01    5.362846e-02
  6.391793e-01    4.690067e-02
  6.550548e-01    3.823205e-02
  6.709304e-01    5.702674e-02
  6.868060e-01    7.039226e-02
  7.026815e-01    5.374826e-02
  7.185571e-01    3.345187e-02
  7.344327e-01    3.241373e-02
  7.503083e-01    3.068028e-02
  7.661838e-01    4.550136e-02
  7.820594e-01    1.127891e-01
  7.979350e-01    1.588800e-01
  8.138106e-01    1.929492e-01
  8.296861e-01    2.468947e-01
  8.455617e-01    3.066290e-01
  8.614373e-01    3.134684e-01
  8.773129e-01    3.846125e-01
  8.931884e-01    4.992324e-01
  9.090640e-01    5.597143e-01
  9.249396e-01    6.276482e-01
  9.408152e-01    6.870114e-01
  9.566907e-01    7.541081e-01
  9.725663e-01    7.558070e-01
  9.884419e-01    8.831184e-01
  1.004317e+00    1.010906e+00
  1.020193e+00    1.054422e+00
  1.036069e+00    1.018276e+00
  1.051944e+00    1.188121e+00
  1.067820e+00    1.314275e+00
  1.083695e+00    1.331653e+00
  1.099571e+00    1.296253e+00
  1.115446e+00    1.342774e+00
  1.131322e+00    1.433417e+00
  1.147198e+00    1.477912e+00
  1.163073e+00    1.424756e+00
  1.178949e+00    1.497167e+00
  1.194824e+00    1.599822e+00
  1.210700e+00    1.777106e+00
  1.226575e+00    1.975672e+00
  1.242451e+00    2.130892e+00
  1.258327e+00    2.336879e+00
  1.274202e+00    2.506718e+00
  1.290078e+00    2.421266e+00
  1.305953e+00    2.542702e+00
  1.321829e+00    2.634056e+00
  1.337705e+00    2.581273e+00
  1.353580e+00    2.479038e+00
  1.369456e+00    2.597567e+00
  1.385331e+00    2.588268e+00
  1.401207e+00    2.636036e+00
  1.417082e+00    2.626979e+00
  1.432958e+00    2.703044e+00
  1.448834e+00    2.567121e+00
  1.464709e+00    2.545124e+00
  1.480585e+00    2.678000e+00
  1.496460e+00    2.801291e+00
  1.512336e+00    2.818954e+00
  1.528211e+00    2.911440e+00
  1.544087e+00    2.882276e+00
  1.559963e+00    2.870631e+00
  1.575838e+00    2.968360e+00
  1.591714e+00    2.779099e+00
  1.607589e+00    2.691345e+00
  1.623465e+00    2.852170e+00
  1.639340e+00    2.904927e+00
  1.655216e+00    2.815412e+00
  1.671092e+00    2.669632e+00
  1.686967e+00    2.651629e+00
  1.702843e+00    2.717427e+00
  1.718718e+00    2.694267e+00
  1.734594e+00    2.701885e+00
  1.750469e+00    2.753966e+00
  1.766345e+00    2.788299e+00
  1.782221e+00    2.845390e+00
  1.798096e+00    2.643858e+00
  1.813972e+00    2.626667e+00
  1.829847e+00    2.615757e+00
  1.845723e+00    2.677172e+00
  1.861598e+00    2.666804e+00
  1.877474e+00    2.600084e+00
  1.893350e+00    2.598030e+00
  1.909225e+00    2.694227e+00
  1.925101e+00    2.743901e+00
  1.940976e+00    2.690149e+00
  1.956852e+00    2.752545e+00
  1.972727e+00    2.730817e+00
  1.988603e+00    2.631721e+00
  2.004479e+00    2.662225e+00
  2.020354e+00    2.682706e+00
  2.036230e+00    2.692115e+00
  2.052105e+00    2.675517e+00
  2.067981e+00    2.698570e+00
  2.083856e+00    2.685723e+00
  2.099732e+00    2.731808e+00
  2.115608e+00    2.772464e+00
  2.131483e+00    2.747289e+00
  2.147359e+00    2.802934e+00
  2.163234e+00    2.694754e+00
  2.179110e+00    2.687644e+00
  2.194985e+00    2.626100e+00
  2.210861e+00    2.712938e+00
  2.226737e+00    2.697767e+00
  2.242612e+00    2.663698e+00
  2.258488e+00    2.668926e+00
  2.274363e+00    2.588762e+00
  2.290239e+00    2.728060e+00
  2.306115e+00    2.734082e+00
  2.321990e+00    2.660849e+00
  2.337866e+00    2.709539e+00
  2.353741e+00    2.756165e+00
  2.369617e+00    2.769745e+00
  2.385492e+00    2.664331e+00
  2.401368e+00    2.675294e+00
  2.417244e+00    2.723961e+00
  2.433119e+00    2.806435e+00
  2.448995e+00    2.860768e+00
  2.464870e+00    2.681479e+00
  2.480746e+00    2.726254e+00
  2.496621e+00    2.690934e+00
  2.512497e+00    2.769462e+00
  2.528373e+00    2.809597e+00
  2.544248e+00    2.749221e+00
  2.560124e+00    2.747320e+00
  2.575999e+00    2.613698e+00
  2.591875e+00    2.775470e+00
  2.607750e+00    2.782856e+00
  2.623626e+00    2.732854e+00
  2.639502e+00    2.788165e+00
  2.655377e+00    2.758483e+00
  2.671253e+00    2.779956e+00
  2.687128e+00    2.705821e+00
  2.703004e+00    2.676933e+00
  2.718879e+00    2.750277e+00
  2.734755e+00    2.697868e+00
  2.750631e+00    2.816177e+00
  2.766506e+00    2.803262e+00
  2.782382e+00    2.702224e+00
  2.798257e+00    2.854153e+00
  2.814133e+00    2.757847e+00
  2.830008e+00    2.790365e+00
  2.845884e+00    2.857170e+00
  2.861760e+00    2.784839e+00
  2.877635e+00    2.755782e+00
  2.893511e+00    2.777220e+00
  2.909386e+00    2.737879e+00
  2.925262e+00    2.851699e+00
  2.941137e+00    2.767371e+00
  2.957013e+00    2.756938e+00
  2.972889e+00    2.720316e+00
  2.988764e+00    2.732682e+00
  3.004640e+00    2.715820e+00
  3.020515e+00    2.695512e+00
  3.036391e+00    2.782368e+00
  3.052266e+00    2.799983e+00
  3.068142e+00    2.815352e+00
  3.084018e+00    2.928151e+00
  3.099893e+00    2.932384e+00
  3.115769e+00    2.795820e+00
  3.131644e+00    2.792722e+00
  3.147520e+00    2.824219e+00
  3.163395e+00    2.819037e+00
  3.179271e+00    2.777954e+00
  3.195147e+00    2.850963e+00
  3.211022e+00    2.873763e+00
  3.226898e+00    2.845173e+00
  3.242773e+00    2.745033e+00
  3.258649e+00    2.799501e+00
  3.274525e+00    2.854724e+00
  3.290400e+00    2.923075e+00
  3.306276e+00    2.891534e+00
  3.322151e+00    2.934360e+00
  3.338027e+00    2.916833e+00
  3.353902e+00    2.853115e+00
  3.369778e+00    2.849348e+00
  3.385654e+00    2.859655e+00
  3.401529e+00    2.861554e+00
  3.417405e+00    2.901203e+00
  3.433280e+00    2.941467e+00
  3.449156e+00    2.933245e+00
  3.465031e+00    2.895629e+00
  3.480907e+00    2.843102e+00
  3.496783e+00    2.882169e+00
  3.512658e+00    2.881500e+00
  3.528534e+00    2.854492e+00
  3.544409e+00    2.873752e+00
  3.560285e+00    2.941275e+00
  3.576160e+00    2.914759e+00
  3.592036e+00    2.852817e+00
  3.607912e+00    2.865632e+00
  3.623787e+00    2.936908e+00
  3.639663e+00    2.918329e+00
  3.655538e+00    2.992864e+00
  3.671414e+00    2.914978e+00
  3.687289e+00    2.879557e+00
  3.703165e+00    2.933451e+00
  3.719041e+00    2.951633e+00
  3.734916e+00    2.999609e+00
  3.750792e+00    2.966992e+00
  3.766667e+00    2.859064e+00
  3.782543e+00    2.926500e+00
  3.798418e+00    2.949115e+00
  3.814294e+00    2.983120e+00
  3.830170e+00    2.902508e+00
  3.846045e+00    2.865821e+00
  3.861921e+00    2.956989e+00
  3.877796e+00    2.939327e+00
  3.893672e+00    2.855552e+00
  3.909547e+00    2.944136e+00
  3.925423e+00    2.967514e+00
  3.941299e+00    2.970309e+00
  3.957174e+00    2.957219e+00
  3.973050e+00    2.945629e+00
  3.988925e+00    2.956806e+00
  4.004801e+00    2.902041e+00
  4.020676e+00    2.933460e+00
  4.036552e+00    2.985125e+00
  4.052428e+00    2.953480e+00
  4.068303e+00    2.946078e+00
  4.084179e+00    3.003783e+00
  4.100054e+00    2.939457e+00
  4.115930e+00    2.910825e+00
  4.131806e+00    3.010283e+00
  4.147681e+00    2.995428e+00
  4.163557e+00    2.956615e+00
  4.179432e+00    2.937817e+00
  4.195308e+00    2.911793e+00
  4.211183e+00    3.000735e+00
  4.227059e+00    3.049010e+00
  4.242935e+00    2.974663e+00
  4.258810e+00    2.953869e+00
  4.274686e+00    2.946484e+00
  4.290561e+00    2.996057e+00
  4.306437e+00    2.941084e+00
  4.322312e+00    2.941832e+00
  4.338188e+00    3.039315e+00
  4.354064e+00    3.070591e+00
  4.369939e+00    2.964179e+00
  4.385815e+00    2.965496e+00
  4.401690e+00    2.971256e+00
  4.417566e+00    2.945261e+00
  4.433441e+00    3.054016e+00
  4.449317e+00    3.000536e+00
  4.465193e+00    2.999091e+00
  4.481068e+00    3.060765e+00
  4.496944e+00    3.043761e+00
  4.512819e+00    2.999013e+00
  4.528695e+00    3.026333e+00
  4.544570e+00    3.042137e+00
  4.560446e+00    3.042600e+00
  4.576322e+00    2.999048e+00
  4.592197e+00    3.057399e+00
  4.608073e+00    3.011252e+00
  4.623948e+00    3.036031e+00
  4.639824e+00    3.072785e+00
  4.655699e+00    3.170163e+00
  4.671575e+00    3.164016e+00
  4.687451e+00    3.156547e+00
  4.703326e+00    3.019964e+00
  4.719202e+00    3.012213e+00
  4.735077e+00    3.065367e+00
  4.750953e+00    3.110085e+00
  4.766828e+00    3.082341e+00
  4.782704e+00    2.953552e+00
  4.798580e+00    2.973832e+00
  4.814455e+00    3.048088e+00
  4.830331e+00    3.070034e+00
  4.846206e+00    3.038156e+00
  4.862082e+00    3.050265e+00
  4.877957e+00    3.079257e+00
  4.893833e+00    3.049906e+00
  4.909709e+00    2.996538e+00
  4.925584e+00    2.990554e+00
  4.941460e+00    2.960127e+00
  4.957335e+00    3.015850e+00
  4.973211e+00    3.111275e+00
  4.989086e+00    3.046576e+00
  5.004962e+00    3.052140e+00
  5.020838e+00    3.045839e+00
  5.036713e+00    3.102826e+00
  5.052589e+00    3.074134e+00
  5.068464e+00    3.178298e+00
  5.084340e+00    3.137618e+00
  5.100216e+00    3.105212e+00
  5.116091e+00    3.060599e+00
  5.131967e+00    3.104072e+00
  5.147842e+00    3.023092e+00
  5.163718e+00    3.031479e+00
  5.179593e+00    3.100818e+00
  5.195469e+00    3.079685e+00
  5.211345e+00    3.111114e+00
  5.227220e+00    3.069902e+00
  5.243096e+00    2.985789e+00
  5.258971e+00    3.031958e+00
  5.274847e+00    3.100921e+00
  5.290722e+00    3.161824e+00
  5.306598e+00    3.101082e+00
  5.322474e+00    3.029445e+00
  5.338349e+00    3.121507e+00
  5.354225e+00    3.112884e+00
  5.370100e+00    3.130130e+00
  5.385976e+00    3.106473e+00
  5.401851e+00    3.062447e+00
  5.417727e+00    3.019149e+00
  5.433603e+00    3.059666e+00
  5.449478e+00    3.032525e+00
  5.465354e+00    3.012166e+00
  5.481229e+00    3.015443e+00
  5.497105e+00    3.020455e+00
  5.512980e+00    3.091224e+00
  5.528856e+00    3.099897e+00
  5.544732e+00    2.965500e+00
  5.560607e+00    3.014752e+00
  5.576483e+00    2.971946e+00
  5.592358e+00    2.930370e+00
  5.608234e+00    3.003250e+00
  5.624109e+00    3.040692e+00
  5.639985e+00    3.090106e+00
  5.655861e+00    3.098335e+00
  5.671736e+00    2.996871e+00
  5.687612e+00    3.064486e+00
  5.703487e+00    3.023200e+00
  5.719363e+00    2.960253e+00
  5.735238e+00    2.968589e+00
  5.751114e+00    2.972847e+00
  5.766990e+00    2.995071e+00
  5.782865e+00    2.994191e+00
  5.798741e+00    2.999201e+00
  5.814616e+00    3.013408e+00
  5.830492e+00    3.028806e+00
  5.846367e+00    3.042629e+00
  5.862243e+00    3.014329e+00
  5.878119e+00    3.019570e+00
  5.893994e+00    2.958848e+00
  5.909870e+00    2.976713e+00
  5.925745e+00    3.004524e+00
  5.941621e+00    2.935186e+00
  5.957497e+00    2.936331e+00
  5.973372e+00    2.871947e+00
  5.989248e+00    2.878358e+00
  6.005123e+00    2.968085e+00
  6.020999e+00    2.926939e+00
  6.036874e+00    2.966151e+00
  6.052750e+00    2.893365e+00
  6.068626e+00    3.040205e+00
  6.084501e+00    2.989155e+00
  6.100377e+00    3.044681e+00
  6.116252e+00    2.975992e+00
  6.132128e+00    3.005979e+00
  6.148003e+00    3.005689e+00
  6.163879e+00    2.981365e+00
  6.179755e+00    3.039747e+00
  6.195630e+00    3.030806e+00
  6.211506e+00    2.984197e+00
  6.227381e+00    2.932302e+00
  6.243257e+00    2.986045e+00
  6.259132e+00    2.976213e+00
  6.275008e+00    2.988809e+00
  6.290884e+00    2.924706e+00
  6.306759e+00    2.978228e+00
  6.322635e+00    2.933406e+00
  6.338510e+00    2.958224e+00
  6.354386e+00    2.930012e+00
  6.370261e+00    2.863739e+00
  6.386137e+00    2.972629e+00
  6.402013e+00    2.993598e+00
  6.417888e+00    2.976446e+00
  6.433764e+00    3.024394e+00
  6.449639e+00    3.005763e+00
  6.465515e+00    2.990498e+00
  6.481390e+00    3.058885e+00
  6.497266e+00    3.030838e+00
  6.513142e+00    2.949390e+00
  6.529017e+00    2.992679e+00
  6.544893e+00    3.000384e+00
  6.560768e+00    2.976718e+00
  6.576644e+00    2.965267e+00
  6.592519e+00    3.024501e+00
  6.608395e+00    3.000740e+00
  6.624271e+00    2.966398e+00
  6.640146e+00    2.974209e+00
  6.656022e+00    3.030289e+00
  6.671897e+00    3.002732e+00
  6.687773e+00    2.991554e+00
  6.703648e+00    2.989963e+00
  6.719524e+00    2.981074e+00
  6.735400e+00    2.971659e+00
  6.751275e+00    2.996397e+00
  6.767151e+00    2.965983e+00
  6.783026e+00    3.001063e+00
  6.798902e+00    3.022301e+00
  6.814777e+00    2.936979e+00
  6.830653e+00    2.931820e+00
  6.846529e+00    2.967734e+00
  6.862404e+00    3.091308e+00
  6.878280e+00    2.927174e+00
  6.894155e+00    2.874905e+00
  6.910031e+00    2.937502e+00
  6.925907e+00    2.940008e+00
  6.941782e+00    2.946891e+00
  6.957658e+00    2.970113e+00
  6.973533e+00    3.023484e+00
  6.989409e+00    3.050188e+00
  7.005284e+00    2.964603e+00
  7.021160e+00    2.933007e+00
  7.037036e+00    2.968283e+00
  7.052911e+00    2.935170e+00
  7.068787e+00    2.951358e+00
  7.084662e+00    2.937559e+00
  7.100538e+00    2.867451e+00
  7.116413e+00    2.880984e+00
  7.132289e+00    2.919575e+00
  7.148165e+00    2.973481e+00
  7.164040e+00    2.900634e+00
  7.179916e+00    2.936438e+00
  7.195791e+00    2.889062e+00
  7.211667e+00    2.891412e+00
  7.227542e+00    2.961360e+00
  7.243418e+00    2.938587e+00
  7.259294e+00    2.924778e+00
  7.275169e+00    2.949684e+00
  7.291045e+00    2.983554e+00
  7.306920e+00    2.988906e+00
  7.322796e+00    2.923490e+00
  7.338671e+00    2.941214e+00
  7.354547e+00    2.923359e+00
  7.370423e+00    2.873811e+00
  7.386298e+00    2.916673e+00
  7.402174e+00    2.894891e+00
  7.418049e+00    2.904513e+00
  7.433925e+00    2.988777e+00
  7.449800e+00    3.058496e+00
  7.465676e+00    3.032260e+00
  7.481552e+00    2.896551e+00
  7.497427e+00    2.845337e+00
  7.513303e+00    2.920387e+00
  7.529178e+00    2.883043e+00
  7.545054e+00    2.950445e+00
  7.560929e+00    2.968148e+00
  7.576805e+00    2.893543e+00
  7.592681e+00    2.964270e+00
  7.608556e+00    2.931080e+00
  7.624432e+00    2.883732e+00
  7.640307e+00    2.874384e+00
  7.656183e+00    2.844003e+00
  7.672058e+00    2.949543e+00
  7.687934e+00    2.926067e+00
  7.703810e+00    2.868739e+00
  7.719685e+00    2.866417e+00
  7.735561e+00    2.839918e+00
  7.751436e+00    2.882465e+00
  7.767312e+00    2.913752e+00
  7.783187e+00    2.905366e+00
  7.799063e+00    2.883404e+00
  7.814939e+00    2.886181e+00
  7.830814e+00    2.851107e+00
  7.846690e+00    2.916040e+00
  7.862565e+00    2.916052e+00
  7.878441e+00    2.817686e+00
  7.894317e+00    2.847504e+00
  7.910192e+00    2.877562e+00
  7.926068e+00    2.837936e+00
  7.941943e+00    2.836981e+00
  7.957819e+00    2.816443e+00
  7.973694e+00    2.824625e+00
  7.989570e+00    2.894481e+00
  8.005446e+00    2.912542e+00
  8.021321e+00    2.884575e+00
  8.037197e+00    2.898782e+00
  8.053072e+00    2.916611e+00
  8.068948e+00    2.864344e+00
  8.084823e+00    2.848068e+00
  8.100699e+00    2.893137e+00
  8.116575e+00    2.869336e+00
  8.132450e+00    2.825649e+00
  8.148326e+00    2.861424e+00
  8.164201e+00    2.975632e+00
  8.180077e+00    2.939103e+00
  8.195952e+00    2.863365e+00
  8.211828e+00    2.922418e+00
  8.227704e+00    2.941525e+00
  8.243579e+00    2.923584e+00
  8.259455e+00    2.895517e+00
  8.275330e+00    2.898118e+00
  8.291206e+00    2.863843e+00
  8.307081e+00    2.812256e+00
  8.322957e+00    2.859755e+00
  8.338833e+00    2.816306e+00
  8.354708e+00    2.772957e+00
  8.370584e+00    2.853227e+00
  8.386459e+00    2.833630e+00
  8.402335e+00    2.778661e+00
  8.418210e+00    2.829102e+00
  8.434086e+00    2.829566e+00
  8.449962e+00    2.858600e+00
  8.465837e+00    2.856439e+00
  8.481713e+00    2.814975e+00
  8.497588e+00    2.832699e+00
  8.513464e+00    2.828214e+00
  8.529339e+00    2.826423e+00
  8.545215e+00    2.781285e+00
  8.561091e+00    2.785137e+00
  8.576966e+00    2.803030e+00
  8.592842e+00    2.840568e+00
  8.608717e+00    2.787681e+00
  8.624593e+00    2.871531e+00
  8.640468e+00    2.837929e+00
  8.656344e+00    2.807836e+00
  8.672220e+00    2.787684e+00
  8.688095e+00    2.837726e+00
  8.703971e+00    2.873431e+00
  8.719846e+00    2.851077e+00
  8.735722e+00    2.795569e+00
  8.751598e+00    2.810583e+00
  8.767473e+00    2.801940e+00
  8.783349e+00    2.814364e+00
  8.799224e+00    2.819901e+00
  8.815100e+00    2.884469e+00
  8.830975e+00    2.810364e+00
  8.846851e+00    2.751491e+00
  8.862727e+00    2.791422e+00
  8.878602e+00    2.734272e+00
  8.894478e+00    2.769664e+00
  8.910353e+00    2.773339e+00
  8.926229e+00    2.772485e+00
  8.942104e+00    2.772933e+00
  8.957980e+00    2.763135e+00
  8.973856e+00    2.781945e+00
  8.989731e+00    2.768594e+00
  9.005607e+00    2.757327e+00
  9.021482e+00    2.783761e+00
  9.037358e+00    2.765960e+00
  9.053233e+00    2.761627e+00
  9.069109e+00    2.768888e+00
  9.084985e+00    2.725072e+00
  9.100860e+00    2.769481e+00
  9.116736e+00    2.781409e+00
  9.132611e+00    2.733427e+00
  9.148487e+00    2.746387e+00
  9.164362e+00    2.708948e+00
  9.180238e+00    2.696765e+00
  9.196114e+00    2.736249e+00
  9.211989e+00    2.733144e+00
  9.227865e+00    2.762485e+00
  9.243740e+00    2.754420e+00
  9.259616e+00    2.738778e+00
  9.275491e+00    2.751737e+00
  9.291367e+00    2.722032e+00
  9.307243e+00    2.740618e+00
  9.323118e+00    2.795738e+00
  9.338994e+00    2.743335e+00
  9.354869e+00    2.740685e+00
  9.370745e+00    2.726068e+00
  9.386620e+00    2.727616e+00
  9.402496e+00    2.716794e+00
  9.418372e+00    2.723898e+00
  9.434247e+00    2.721886e+00
  9.450123e+00    2.761784e+00
  9.465998e+00    2.756818e+00
  9.481874e+00    2.738966e+00
  9.497749e+00    2.715410e+00
  9.513625e+00    2.762428e+00
  9.529501e+00    2.766620e+00
  9.545376e+00    2.710356e+00
  9.561252e+00    2.719115e+00
  9.577127e+00    2.670019e+00
  9.593003e+00    2.655889e+00
  9.608878e+00    2.670761e+00
  9.624754e+00    2.672370e+00
  9.640630e+00    2.636270e+00
  9.656505e+00    2.675910e+00
  9.672381e+00    2.719661e+00
  9.688256e+00    2.704855e+00
  9.704132e+00    2.706089e+00
  9.720008e+00    2.697308e+00
  9.735883e+00    2.676827e+00
  9.751759e+00    2.666235e+00
  9.767634e+00    2.658044e+00
  9.783510e+00    2.693996e+00
  9.799385e+00    2.627653e+00
  9.815261e+00    2.641756e+00
  9.831137e+00    2.588072e+00
  9.847012e+00    2.598544e+00
  9.862888e+00    2.707976e+00
  9.878763e+00    2.692445e+00
  9.894639e+00    2.636892e+00
  9.910514e+00    2.658782e+00
  9.926390e+00    2.596873e+00
  9.942266e+00    2.584545e+00
  9.958141e+00    2.631888e+00
  9.974017e+00    2.652238e+00
  9.989892e+00    2.626245e+00
  1.000577e+01    2.659210e+00
  1.002164e+01    2.644671e+00
  1.003752e+01    2.647745e+00
  1.005339e+01    2.622895e+00
  1.006927e+01    2.607383e+00
  1.008515e+01    2.614144e+00
  1.010102e+01    2.570830e+00
  1.011690e+01    2.576138e+00
  1.013277e+01    2.560317e+00
  1.014865e+01    2.586195e+00
  1.016452e+01    2.594016e+00
  1.018040e+01    2.535388e+00
  1.019627e+01    2.533035e+00
  1.021215e+01    2.644512e+00
  1.022803e+01    2.611145e+00
  1.024390e+01    2.531496e+00
  1.025978e+01    2.583067e+00
  1.027565e+01    2.606872e+00
  1.029153e+01    2.562570e+00
  1.030740e+01    2.568523e+00
  1.032328e+01    2.548737e+00
  1.033915e+01    2.506531e+00
  1.035503e+01    2.533237e+00
  1.037091e+01    2.565454e+00
  1.038678e+01    2.569656e+00
  1.040266e+01    2.519048e+00
  1.041853e+01    2.542294e+00
  1.043441e+01    2.532855e+00
  1.045028e+01    2.540881e+00
  1.046616e+01    2.567778e+00
  1.048204e+01    2.594652e+00
  1.049791e+01    2.536590e+00
  1.051379e+01    2.476438e+00
  1.052966e+01    2.500857e+00
  1.054554e+01    2.490633e+00
  1.056141e+01    2.493139e+00
  1.057729e+01    2.511040e+00
  1.059316e+01    2.555696e+00
  1.060904e+01    2.548008e+00
  1.062492e+01    2.541430e+00
  1.064079e+01    2.536099e+00
  1.065667e+01    2.531594e+00
  1.067254e+01    2.505913e+00
  1.068842e+01    2.500815e+00
  1.070429e+01    2.524025e+00
  1.072017e+01    2.528312e+00
  1.073604e+01    2.534222e+00
  1.075192e+01    2.523312e+00
  1.076780e+01    2.468606e+00
  1.078367e+01    2.489789e+00
  1.079955e+01    2.489073e+00
  1.081542e+01    2.478548e+00
  1.083130e+01    2.475465e+00
  1.084717e+01    2.514097e+00
  1.086305e+01    2.418682e+00
  1.087892e+01    2.459000e+00
  1.089480e+01    2.517999e+00
  1.091068e+01    2.535312e+00
  1.092655e+01    2.507195e+00
  1.094243e+01    2.436847e+00
  1.095830e+01    2.455249e+00
  1.097418e+01    2.494173e+00
  1.099005e+01    2.422818e+00
  1.100593e+01    2.421207e+00
  1.102180e+01    2.462749e+00
  1.103768e+01    2.433771e+00
  1.105356e+01    2.443679e+00
  1.106943e+01    2.388796e+00
  1.108531e+01    2.417979e+00
  1.110118e+01    2.420381e+00
  1.111706e+01    2.388640e+00
  1.113293e+01    2.392756e+00
  1.114881e+01    2.409952e+00
  1.116468e+01    2.441236e+00
  1.118056e+01    2.458447e+00
  1.119644e+01    2.420208e+00
  1.121231e+01    2.388350e+00
  1.122819e+01    2.424269e+00
  1.124406e+01    2.426411e+00
  1.125994e+01    2.401950e+00
  1.127581e+01    2.411334e+00
  1.129169e+01    2.355574e+00
  1.130756e+01    2.375389e+00
  1.132344e+01    2.383923e+00
  1.133932e+01    2.364074e+00
  1.135519e+01    2.396494e+00
  1.137107e+01    2.361079e+00
  1.138694e+01    2.364446e+00
  1.140282e+01    2.366101e+00
  1.141869e+01    2.377672e+00
  1.143457e+01    2.348221e+00
  1.145045e+01    2.332723e+00
  1.146632e+01    2.333990e+00
  1.148220e+01    2.383160e+00
  1.149807e+01    2.393481e+00
  1.151395e+01    2.425595e+00
  1.152982e+01    2.444801e+00
  1.154570e+01    2.391704e+00
  1.156157e+01    2.361560e+00
  1.157745e+01    2.316848e+00
  1.159333e+01    2.300421e+00
  1.160920e+01    2.340845e+00
  1.162508e+01    2.361428e+00
  1.164095e+01    2.351708e+00
  1.165683e+01    2.369769e+00
  1.167270e+01    2.389414e+00
  1.168858e+01    2.359194e+00
  1.170445e+01    2.286579e+00
  1.172033e+01    2.304667e+00
  1.173621e+01    2.303928e+00
  1.175208e+01    2.303458e+00
  1.176796e+01    2.286052e+00
  1.178383e+01    2.334216e+00
  1.179971e+01    2.325543e+00
  1.181558e+01    2.316351e+00
  1.183146e+01    2.325011e+00
  1.184733e+01    2.323802e+00
  1.186321e+01    2.337655e+00
  1.187909e+01    2.343978e+00
  1.189496e+01    2.292889e+00
  1.191084e+01    2.274486e+00
  1.192671e+01    2.270404e+00
  1.194259e+01    2.301656e+00
  1.195846e+01    2.317433e+00
  1.197434e+01    2.311514e+00
  1.199021e+01    2.311456e+00
  1.200609e+01    2.271421e+00
  1.202197e+01    2.284602e+00
  1.203784e+01    2.284431e+00
  1.205372e+01    2.305499e+00
  1.206959e+01    2.274917e+00
  1.208547e+01    2.234425e+00
  1.210134e+01    2.238486e+00
  1.211722e+01    2.268315e+00
  1.213309e+01    2.302114e+00
  1.214897e+01    2.253826e+00
  1.216485e+01    2.291496e+00
  1.218072e+01    2.288814e+00
  1.219660e+01    2.294720e+00
  1.221247e+01    2.283881e+00
  1.222835e+01    2.273055e+00
  1.224422e+01    2.249507e+00
  1.226010e+01    2.229423e+00
  1.227597e+01    2.243370e+00
  1.229185e+01    2.273107e+00
  1.230773e+01    2.304827e+00
  1.232360e+01    2.284802e+00
  1.233948e+01    2.270021e+00
  1.235535e+01    2.264583e+00
  1.237123e+01    2.254038e+00
  1.238710e+01    2.295499e+00
  1.240298e+01    2.329903e+00
  1.241886e+01    2.319821e+00
  1.243473e+01    2.286539e+00
  1.245061e+01    2.300389e+00
  1.246648e+01    2.311148e+00
  1.248236e+01    2.304911e+00
  1.249823e+01    2.297742e+00
  1.251411e+01    2.258023e+00
  1.252998e+01    2.300949e+00
  1.254586e+01    2.321563e+00
  1.256174e+01    2.340431e+00
  1.257761e+01    2.379127e+00
  1.259349e+01    2.337487e+00
  1.260936e+01    2.361315e+00
  1.262524e+01    2.360529e+00
  1.264111e+01    2.363906e+00
  1.265699e+01    2.354494e+00
  1.267286e+01    2.400931e+00
  1.268874e+01    2.388594e+00
  1.270462e+01    2.430610e+00
  1.272049e+01    2.510347e+00
  1.273637e+01    2.496998e+00
  1.275224e+01    2.521405e+00
  1.276812e+01    2.573073e+00
  1.278399e+01    2.591897e+00
  1.279987e+01    2.634848e+00
  1.281574e+01    2.668613e+00
  1.283162e+01    2.771274e+00
  1.284750e+01    2.820144e+00
  1.286337e+01    2.903675e+00
  1.287925e+01    2.975644e+00
  1.289512e+01    3.069542e+00
  1.291100e+01    3.238698e+00
  1.292687e+01    3.441326e+00
  1.294275e+01    3.663728e+00
  1.295862e+01    3.872294e+00
  1.297450e+01    4.256594e+00
  1.299038e+01    4.730023e+00
  1.300625e+01    5.357004e+00
  1.302213e+01    6.043448e+00
  1.303800e+01    6.890202e+00
  1.305388e+01    8.019509e+00
  1.306975e+01    9.466038e+00
  1.308563e+01    1.076730e+01
  1.310150e+01    1.197773e+01
  1.311738e+01    1.328660e+01
  1.313326e+01    1.449325e+01
  1.314913e+01    1.552208e+01
  1.316501e+01    1.660608e+01
  1.318088e+01    1.724761e+01
  1.319676e+01    1.713238e+01
  1.321263e+01    1.609118e+01
  1.322851e+01    1.432347e+01
  1.324438e+01    1.227514e+01
  1.326026e+01    1.031832e+01
  1.327614e+01    8.673828e+00
  1.329201e+01    7.425972e+00
  1.330789e+01    6.373600e+00
  1.332376e+01    5.522347e+00
  1.333964e+01    4.994283e+00
  1.335551e+01    4.491113e+00
  1.337139e+01    4.059114e+00
  1.338727e+01    3.777389e+00
  1.340314e+01    3.566720e+00
  1.341902e+01    3.346372e+00
  1.343489e+01    3.134520e+00
  1.345077e+01    2.971231e+00
  1.346664e+01    2.813703e+00
  1.348252e+01    2.773424e+00
  1.349839e+01    2.730245e+00
  1.351427e+01    2.649373e+00
  1.353015e+01    2.616109e+00
  1.354602e+01    2.488467e+00
  1.356190e+01    2.423437e+00
  1.357777e+01    2.401970e+00
  1.359365e+01    2.403143e+00
  1.360952e+01    2.374433e+00
  1.362540e+01    2.339589e+00
  1.364127e+01    2.322332e+00
  1.365715e+01    2.292599e+00
  1.367303e+01    2.229601e+00
  1.368890e+01    2.215899e+00
  1.370478e+01    2.208903e+00
  1.372065e+01    2.195568e+00
  1.373653e+01    2.152376e+00
  1.375240e+01    2.139586e+00
  1.376828e+01    2.167350e+00
  1.378415e+01    2.112467e+00
  1.380003e+01    2.121008e+00
  1.381591e+01    2.114695e+00
  1.383178e+01    2.053358e+00
  1.384766e+01    2.061984e+00
  1.386353e+01    2.072639e+00
  1.387941e+01    2.030595e+00
  1.389528e+01    2.064224e+00
  1.391116e+01    2.096449e+00
  1.392703e+01    2.087293e+00
  1.394291e+01    2.029708e+00
  1.395879e+01    2.033110e+00
  1.397466e+01    2.016375e+00
  1.399054e+01    2.024745e+00
  1.400641e+01    2.014072e+00
  1.402229e+01    2.023793e+00
  1.403816e+01    2.045170e+00
  1.405404e+01    2.032295e+00
  1.406991e+01    1.979291e+00
  1.408579e+01    2.003980e+00
  1.410167e+01    2.003999e+00
  1.411754e+01    1.976051e+00
  1.413342e+01    2.012197e+00
  1.414929e+01    2.023090e+00
  1.416517e+01    1.990499e+00
  1.418104e+01    1.932709e+00
  1.419692e+01    1.951282e+00
  1.421279e+01    1.992712e+00
  1.422867e+01    1.961426e+00
  1.424455e+01    1.914843e+00
  1.426042e+01    1.916124e+00
  1.427630e+01    1.926280e+00
  1.429217e+01    1.928604e+00
  1.430805e+01    1.937850e+00
  1.432392e+01    1.920837e+00
  1.433980e+01    1.889395e+00
  1.435568e+01    1.880354e+00
  1.437155e+01    1.915974e+00
  1.438743e+01    1.921914e+00
  1.440330e+01    1.909460e+00
  1.441918e+01    1.913033e+00
  1.443505e+01    1.873272e+00
  1.445093e+01    1.914058e+00
  1.446680e+01    1.886352e+00
  1.448268e+01    1.883989e+00
  1.449856e+01    1.895952e+00
  1.451443e+01    1.895304e+00
  1.453031e+01    1.928407e+00
  1.454618e+01    1.925205e+00
  1.456206e+01    1.861873e+00
  1.457793e+01    1.898844e+00
  1.459381e+01    1.883195e+00
  1.460968e+01    1.867253e+00
  1.462556e+01    1.897484e+00
  1.464144e+01    1.904579e+00
  1.465731e+01    1.907335e+00
  1.467319e+01    1.903417e+00
  1.468906e+01    1.881803e+00
  1.470494e+01    1.884500e+00
  1.472081e+01    1.883981e+00
  1.473669e+01    1.861459e+00
  1.475256e+01    1.877277e+00
  1.476844e+01    1.881174e+00
  1.478432e+01    1.922437e+00
  1.480019e+01    1.894747e+00
  1.481607e+01    1.841239e+00
  1.483194e+01    1.876330e+00
  1.484782e+01    1.904969e+00
  1.486369e+01    1.921022e+00
  1.487957e+01    1.919537e+00
  1.489544e+01    1.955205e+00
  1.491132e+01    1.946271e+00
  1.492720e+01    1.986200e+00
  1.494307e+01    2.018327e+00
  1.495895e+01    1.999963e+00
  1.497482e+01    2.038612e+00
  1.499070e+01    2.050016e+00
  1.500657e+01    2.122971e+00
  1.502245e+01    2.186435e+00
  1.503832e+01    2.279448e+00
  1.505420e+01    2.371064e+00
  1.507008e+01    2.459667e+00
  1.508595e+01    2.631410e+00
  1.510183e+01    2.821960e+00
  1.511770e+01    3.049027e+00
  1.513358e+01    3.292167e+00
  1.514945e+01    3.639852e+00
  1.516533e+01    4.035080e+00
  1.518120e+01    4.464581e+00
  1.519708e+01    4.871722e+00
  1.521296e+01    5.148355e+00
  1.522883e+01    5.404482e+00
  1.524471e+01    5.632182e+00
  1.526058e+01    5.848969e+00
  1.527646e+01    5.893400e+00
  1.529233e+01    5.778190e+00
  1.530821e+01    5.528772e+00
  1.532409e+01    5.036308e+00
  1.533996e+01    4.439723e+00
  1.535584e+01    3.888717e+00
  1.537171e+01    3.488559e+00
  1.538759e+01    3.115646e+00
  1.540346e+01    2.863642e+00
  1.541934e+01    2.630808e+00
  1.543521e+01    2.445315e+00
  1.545109e+01    2.298068e+00
  1.546697e+01    2.199059e+00
  1.548284e+01    2.119689e+00
  1.549872e+01    2.068802e+00
  1.551459e+01    1.994239e+00
  1.553047e+01    1.892668e+00
  1.554634e+01    1.916214e+00
  1.556222e+01    1.881047e+00
  1.557809e+01    1.858174e+00
  1.559397e+01    1.833090e+00
  1.560985e+01    1.811156e+00
  1.562572e+01    1.770113e+00
  1.564160e+01    1.768552e+00
  1.565747e+01    1.749946e+00
  1.567335e+01    1.738539e+00
  1.568922e+01    1.733244e+00
  1.570510e+01    1.702691e+00
  1.572097e+01    1.719263e+00
  1.573685e+01    1.706179e+00
  1.575273e+01    1.676986e+00
  1.576860e+01    1.661133e+00
  1.578448e+01    1.660487e+00
  1.580035e+01    1.672639e+00
  1.581623e+01    1.681007e+00
  1.583210e+01    1.640527e+00
  1.584798e+01    1.660921e+00
  1.586385e+01    1.629656e+00
  1.587973e+01    1.613155e+00
  1.589561e+01    1.620165e+00
  1.591148e+01    1.620867e+00
  1.592736e+01    1.577004e+00
  1.594323e+01    1.608615e+00
  1.595911e+01    1.628793e+00
  1.597498e+01    1.614093e+00
  1.599086e+01    1.562015e+00
  1.600673e+01    1.580104e+00
  1.602261e+01    1.591560e+00
  1.603849e+01    1.597737e+00
  1.605436e+01    1.611166e+00
  1.607024e+01    1.608726e+00
  1.608611e+01    1.582117e+00
  1.610199e+01    1.585626e+00
  1.611786e+01    1.560343e+00
  1.613374e+01    1.537371e+00
  1.614961e+01    1.558049e+00
  1.616549e+01    1.575527e+00
  1.618137e+01    1.512460e+00
  1.619724e+01    1.534433e+00
  1.621312e+01    1.532692e+00
  1.622899e+01    1.515305e+00
  1.624487e+01    1.524237e+00
  1.626074e+01    1.527306e+00
  1.627662e+01    1.530203e+00
  1.629250e+01    1.505931e+00
  1.630837e+01    1.522809e+00
  1.632425e+01    1.538853e+00
  1.634012e+01    1.535056e+00
  1.635600e+01    1.525136e+00
  1.637187e+01    1.484239e+00
  1.638775e+01    1.499207e+00
  1.640362e+01    1.526431e+00
  1.641950e+01    1.518554e+00
  1.643538e+01    1.534455e+00
  1.645125e+01    1.516559e+00
  1.646713e+01    1.484806e+00
  1.648300e+01    1.481199e+00
  1.649888e+01    1.476359e+00
  1.651475e+01    1.474667e+00
  1.653063e+01    1.470526e+00
  1.654650e+01    1.510013e+00
  1.656238e+01    1.502319e+00
  1.657826e+01    1.476668e+00
  1.659413e+01    1.463670e+00
  1.661001e+01    1.456838e+00
  1.662588e+01    1.453067e+00
  1.664176e+01    1.439306e+00
  1.665763e+01    1.423337e+00
  1.667351e+01    1.431744e+00
  1.668938e+01    1.431474e+00
  1.670526e+01    1.460893e+00
  1.672114e+01    1.465344e+00
  1.673701e+01    1.441577e+00
  1.675289e+01    1.463912e+00
  1.676876e+01    1.434728e+00
  1.678464e+01    1.450649e+00
  1.680051e+01    1.449729e+00
  1.681639e+01    1.415635e+00
  1.683226e+01    1.419970e+00
  1.684814e+01    1.428107e+00
  1.686402e+01    1.436340e+00
  1.687989e+01    1.449632e+00
  1.689577e+01    1.433009e+00
  1.691164e+01    1.414333e+00
  1.692752e+01    1.450160e+00
  1.694339e+01    1.407334e+00
  1.695927e+01    1.400189e+00
  1.697514e+01    1.448244e+00
  1.699102e+01    1.426411e+00
  1.700690e+01    1.424291e+00
  1.702277e+01    1.410655e+00
  1.703865e+01    1.394201e+00
  1.705452e+01    1.404635e+00
  1.707040e+01    1.380431e+00
  1.708627e+01    1.408477e+00
  1.710215e+01    1.405155e+00
  1.711802e+01    1.405439e+00
  1.713390e+01    1.400580e+00
  1.714978e+01    1.406066e+00
  1.716565e+01    1.410958e+00
  1.718153e+01    1.392252e+00
  1.719740e+01    1.415677e+00
  1.721328e+01    1.374079e+00
  1.722915e+01    1.399686e+00
  1.724503e+01    1.399106e+00
  1.726091e+01    1.395450e+00
  1.727678e+01    1.371707e+00
  1.729266e+01    1.359804e+00
  1.730853e+01    1.363798e+00
  1.732441e+01    1.361636e+00
  1.734028e+01    1.345327e+00
  1.735616e+01    1.365150e+00
  1.737203e+01    1.394834e+00
  1.738791e+01    1.348419e+00
  1.740379e+01    1.351504e+00
  1.741966e+01    1.333281e+00
  1.743554e+01    1.341199e+00
  1.745141e+01    1.343414e+00
  1.746729e+01    1.330925e+00
  1.748316e+01    1.352388e+00
  1.749904e+01    1.332047e+00
  1.751491e+01    1.320147e+00
  1.753079e+01    1.328764e+00
  1.754667e+01    1.326545e+00
  1.756254e+01    1.341636e+00
  1.757842e+01    1.338622e+00
  1.759429e+01    1.333988e+00
  1.761017e+01    1.331360e+00
  1.762604e+01    1.314112e+00
  1.764192e+01    1.336740e+00
  1.765779e+01    1.334261e+00
  1.767367e+01    1.321360e+00
  1.768955e+01    1.343213e+00
  1.770542e+01    1.313827e+00
  1.772130e+01    1.320612e+00
  1.773717e+01    1.320421e+00
  1.775305e+01    1.347959e+00
  1.776892e+01    1.325075e+00
  1.778480e+01    1.319316e+00
  1.780067e+01    1.307162e+00
  1.781655e+01    1.314039e+00
  1.783243e+01    1.295208e+00
  1.784830e+01    1.286351e+00
  1.786418e+01    1.301527e+00
  1.788005e+01    1.287510e+00
  1.789593e+01    1.262452e+00
  1.791180e+01    1.296607e+00
  1.792768e+01    1.268823e+00
  1.794355e+01    1.247865e+00
  1.795943e+01    1.281886e+00
  1.797531e+01    1.309963e+00
  1.799118e+01    1.282001e+00
  1.800706e+01    1.267679e+00
  1.802293e+01    1.296692e+00
  1.803881e+01    1.281453e+00
  1.805468e+01    1.276590e+00
  1.807056e+01    1.290843e+00
  1.808643e+01    1.275465e+00
  1.810231e+01    1.293838e+00
  1.811819e+01    1.287248e+00
  1.813406e+01    1.295009e+00
  1.814994e+01    1.264533e+00
  1.816581e+01    1.251050e+00
  1.818169e+01    1.268125e+00
  1.819756e+01    1.259402e+00
  1.821344e+01    1.275091e+00
  1.822932e+01    1.283376e+00
  1.824519e+01    1.270409e+00
  1.826107e+01    1.252239e+00
  1.827694e+01    1.267492e+00
  1.829282e+01    1.254604e+00
  1.830869e+01    1.237934e+00
  1.832457e+01    1.259682e+00
  1.834044e+01    1.279384e+00
  1.835632e+01    1.242297e+00
  1.837220e+01    1.241079e+00
  1.838807e+01    1.260179e+00
  1.840395e+01    1.236208e+00
  1.841982e+01    1.231294e+00
  1.843570e+01    1.229093e+00
  1.845157e+01    1.222955e+00
  1.846745e+01    1.250024e+00
  1.848332e+01    1.233647e+00
  1.849920e+01    1.249473e+00
  1.851508e+01    1.233900e+00
  1.853095e+01    1.225098e+00
  1.854683e+01    1.249567e+00
  1.856270e+01    1.237596e+00
  1.857858e+01    1.212484e+00
  1.859445e+01    1.204765e+00
  1.861033e+01    1.213272e+00
  1.862620e+01    1.219491e+00
  1.864208e+01    1.205480e+00
  1.865796e+01    1.199303e+00
  1.867383e+01    1.219197e+00
  1.868971e+01    1.238959e+00
  1.870558e+01    1.219047e+00
  1.872146e+01    1.227804e+00
  1.873733e+01    1.223025e+00
  1.875321e+01    1.231195e+00
  1.876908e+01    1.223601e+00
  1.878496e+01    1.216572e+00
  1.880084e+01    1.219943e+00
  1.881671e+01    1.209352e+00
  1.883259e+01    1.180699e+00
  1.884846e+01    1.178071e+00
  1.886434e+01    1.204095e+00
  1.888021e+01    1.217575e+00
  1.889609e+01    1.175046e+00
  1.891196e+01    1.175859e+00
  1.892784e+01    1.179211e+00
  1.894372e+01    1.181461e+00
  1.895959e+01    1.224087e+00
  1.897547e+01    1.202790e+00
  1.899134e+01    1.192885e+00
  1.900722e+01    1.188151e+00
  1.902309e+01    1.202562e+00
  1.903897e+01    1.200570e+00
  1.905484e+01    1.171784e+00
  1.907072e+01    1.175172e+00
  1.908660e+01    1.169604e+00
  1.910247e+01    1.175380e+00
  1.911835e+01    1.198899e+00
  1.913422e+01    1.167909e+00
  1.915010e+01    1.159979e+00
  1.916597e+01    1.169562e+00
  1.918185e+01    1.162712e+00
  1.919773e+01    1.158242e+00
  1.921360e+01    1.172428e+00
  1.922948e+01    1.176222e+00
  1.924535e+01    1.177514e+00
  1.926123e+01    1.171285e+00
  1.927710e+01    1.151469e+00
  1.929298e+01    1.156886e+00
  1.930885e+01    1.173220e+00
  1.932473e+01    1.177523e+00
  1.934061e+01    1.151668e+00
  1.935648e+01    1.175992e+00
  1.937236e+01    1.176893e+00
  1.938823e+01    1.175899e+00
  1.940411e+01    1.172382e+00
  1.941998e+01    1.144046e+00
  1.943586e+01    1.126012e+00
  1.945173e+01    1.142440e+00
  1.946761e+01    1.151658e+00
  1.948349e+01    1.147725e+00
  1.949936e+01    1.156725e+00
  1.951524e+01    1.150026e+00
  1.953111e+01    1.151607e+00
  1.954699e+01    1.129380e+00
  1.956286e+01    1.112318e+00
  1.957874e+01    1.134363e+00
  1.959461e+01    1.146502e+00
  1.961049e+01    1.145722e+00
  1.962637e+01    1.116402e+00
  1.964224e+01    1.132557e+00
  1.965812e+01    1.114627e+00
  1.967399e+01    1.116976e+00
  1.968987e+01    1.113453e+00
  1.970574e+01    1.090694e+00
  1.972162e+01    1.103656e+00
  1.973749e+01    1.136543e+00
  1.975337e+01    1.142146e+00
  1.976925e+01    1.123512e+00
  1.978512e+01    1.132615e+00
  1.980100e+01    1.112064e+00
  1.981687e+01    1.115195e+00
  1.983275e+01    1.108554e+00
  1.984862e+01    1.121089e+00
  1.986450e+01    1.093226e+00
  1.988037e+01    1.096299e+00
  1.989625e+01    1.096511e+00
  1.991213e+01    1.099399e+00
  1.992800e+01    1.109882e+00
  1.994388e+01    1.104744e+00
  1.995975e+01    1.095795e+00
  1.997563e+01    1.098993e+00
  1.999150e+01    1.109789e+00
  2.000738e+01    1.098301e+00
  2.002325e+01    1.079970e+00
  2.003913e+01    1.086490e+00
  2.005501e+01    1.084636e+00
  2.007088e+01    1.084101e+00
  2.008676e+01    1.113343e+00
  2.010263e+01    1.115831e+00
  2.011851e+01    1.097380e+00
  2.013438e+01    1.094877e+00
  2.015026e+01    1.104514e+00
  2.016614e+01    1.090047e+00
  2.018201e+01    1.098159e+00
  2.019789e+01    1.078938e+00
  2.021376e+01    1.069073e+00
  2.022964e+01    1.084681e+00
  2.024551e+01    1.095850e+00
  2.026139e+01    1.095743e+00
  2.027726e+01    1.068875e+00
  2.029314e+01    1.081411e+00
  2.030902e+01    1.087864e+00
  2.032489e+01    1.103814e+00
  2.034077e+01    1.089370e+00
  2.035664e+01    1.083461e+00
  2.037252e+01    1.074894e+00
  2.038839e+01    1.085728e+00
  2.040427e+01    1.079697e+00
  2.042014e+01    1.054060e+00
  2.043602e+01    1.076324e+00
  2.045190e+01    1.081309e+00
  2.046777e+01    1.072732e+00
  2.048365e+01    1.064985e+00
  2.049952e+01    1.078385e+00
  2.051540e+01    1.059149e+00
  2.053127e+01    1.052017e+00
  2.054715e+01    1.069503e+00
  2.056302e+01    1.047698e+00
  2.057890e+01    1.072277e+00
  2.059478e+01    1.065081e+00
  2.061065e+01    1.074085e+00
  2.062653e+01    1.073557e+00
  2.064240e+01    1.065180e+00
  2.065828e+01    1.053614e+00
  2.067415e+01    1.055012e+00
  2.069003e+01    1.079119e+00
  2.070590e+01    1.079419e+00
  2.072178e+01    1.059943e+00
  2.073766e+01    1.050540e+00
  2.075353e+01    1.068562e+00
  2.076941e+01    1.069789e+00
  2.078528e+01    1.065954e+00
  2.080116e+01    1.064432e+00
  2.081703e+01    1.072509e+00
  2.083291e+01    1.066098e+00
  2.084878e+01    1.073528e+00
  2.086466e+01    1.084409e+00
  2.088054e+01    1.052528e+00
  2.089641e+01    1.054971e+00
  2.091229e+01    1.056814e+00
  2.092816e+01    1.053761e+00
  2.094404e+01    1.058214e+00
  2.095991e+01    1.085831e+00
  2.097579e+01    1.086762e+00
  2.099166e+01    1.062435e+00
  2.100754e+01    1.036296e+00
  2.102342e+01    1.052619e+00
  2.103929e+01    1.058517e+00
  2.105517e+01    1.066109e+00
  2.107104e+01    1.067847e+00
  2.108692e+01    1.050818e+00
  2.110279e+01    1.087879e+00
  2.111867e+01    1.097077e+00
  2.113455e+01    1.080665e+00
  2.115042e+01    1.080985e+00
  2.116630e+01    1.082710e+00
  2.118217e+01    1.081223e+00
  2.119805e+01    1.084254e+00
  2.121392e+01    1.085526e+00
  2.122980e+01    1.079160e+00
  2.124567e+01    1.076586e+00
  2.126155e+01    1.097137e+00
  2.127743e+01    1.093468e+00
  2.129330e+01    1.121685e+00
  2.130918e+01    1.105749e+00
  2.132505e+01    1.115388e+00
  2.134093e+01    1.129833e+00
  2.135680e+01    1.136402e+00
  2.137268e+01    1.129358e+00
  2.138855e+01    1.163578e+00
  2.140443e+01    1.156111e+00
  2.142031e+01    1.153528e+00
  2.143618e+01    1.183040e+00
  2.145206e+01    1.188973e+00
  2.146793e+01    1.227503e+00
  2.148381e+01    1.225657e+00
  2.149968e+01    1.245936e+00
  2.151556e+01    1.295117e+00
  2.153143e+01    1.338610e+00
  2.154731e+01    1.376953e+00
  2.156319e+01    1.407202e+00
  2.157906e+01    1.448062e+00
  2.159494e+01    1.506999e+00
  2.161081e+01    1.571466e+00
  2.162669e+01    1.654644e+00
  2.164256e+01    1.757422e+00
  2.165844e+01    1.914407e+00
  2.167431e+01    2.026921e+00
  2.169019e+01    2.186885e+00
  2.170607e+01    2.414989e+00
  2.172194e+01    2.779037e+00
  2.173782e+01    3.118426e+00
  2.175369e+01    3.520692e+00
  2.176957e+01    4.047540e+00
  2.178544e+01    4.653807e+00
  2.180132e+01    5.321918e+00
  2.181719e+01    5.979942e+00
  2.183307e+01    6.751060e+00
  2.184895e+01    7.494821e+00
  2.186482e+01    8.218059e+00
  2.188070e+01    8.950899e+00
  2.189657e+01    9.381583e+00
  2.191245e+01    9.568181e+00
  2.192832e+01    9.280176e+00
  2.194420e+01    8.635586e+00
  2.196007e+01    7.783743e+00
  2.197595e+01    6.792803e+00
  2.199183e+01    5.704981e+00
  2.200770e+01    4.820013e+00
  2.202358e+01    4.158083e+00
  2.203945e+01    3.528345e+00
  2.205533e+01    3.083308e+00
  2.207120e+01    2.715734e+00
  2.208708e+01    2.433247e+00
  2.210296e+01    2.204092e+00
  2.211883e+01    2.007129e+00
  2.213471e+01    1.849450e+00
  2.215058e+01    1.726258e+00
  2.216646e+01    1.633848e+00
  2.218233e+01    1.541523e+00
  2.219821e+01    1.467657e+00
  2.221408e+01    1.417896e+00
  2.222996e+01    1.349079e+00
  2.224584e+01    1.342078e+00
  2.226171e+01    1.271302e+00
  2.227759e+01    1.219418e+00
  2.229346e+01    1.174815e+00
  2.230934e+01    1.149602e+00
  2.232521e+01    1.155107e+00
  2.234109e+01    1.145364e+00
  2.235696e+01    1.113316e+00
  2.237284e+01    1.093269e+00
  2.238872e+01    1.043670e+00
  2.240459e+01    1.058550e+00
  2.242047e+01    1.067379e+00
  2.243634e+01    1.064980e+00
  2.245222e+01    1.063369e+00
  2.246809e+01    1.037120e+00
  2.248397e+01    1.036216e+00
  2.249984e+01    1.025840e+00
  2.251572e+01    9.924488e-01
  2.253160e+01    9.705050e-01
  2.254747e+01    9.890417e-01
  2.256335e+01    9.922271e-01
  2.257922e+01    9.602376e-01
  2.259510e+01    9.807978e-01
  2.261097e+01    9.667462e-01
  2.262685e+01    9.681277e-01
  2.264272e+01    9.680880e-01
  2.265860e+01    9.595412e-01
  2.267448e+01    9.371997e-01
  2.269035e+01    9.310393e-01
  2.270623e+01    9.463233e-01
  2.272210e+01    9.484426e-01
  2.273798e+01    9.403434e-01
  2.275385e+01    9.102371e-01
  2.276973e+01    9.240681e-01
  2.278560e+01    9.356771e-01
  2.280148e+01    9.375900e-01
  2.281736e+01    9.104792e-01
  2.283323e+01    9.081415e-01
  2.284911e+01    9.119364e-01
  2.286498e+01    9.345303e-01
  2.288086e+01    9.329647e-01
  2.289673e+01    8.968551e-01
  2.291261e+01    9.035113e-01
  2.292848e+01    9.194067e-01
  2.294436e+01    9.106127e-01
  2.296024e+01    8.928084e-01
  2.297611e+01    8.898482e-01
  2.299199e+01    8.922415e-01
  2.300786e+01    8.663495e-01
  2.302374e+01    8.733479e-01
  2.303961e+01    8.627266e-01
  2.305549e+01    8.714516e-01
  2.307137e+01    8.711177e-01
  2.308724e+01    8.793965e-01
  2.310312e+01    8.773850e-01
  2.311899e+01    8.838598e-01
  2.313487e+01    8.742061e-01
  2.315074e+01    8.669677e-01
  2.316662e+01    8.749642e-01
  2.318249e+01    8.606890e-01
  2.319837e+01    8.530591e-01
  2.321425e+01    8.688582e-01
  2.323012e+01    8.726291e-01
  2.324600e+01    8.401254e-01
  2.326187e+01    8.519104e-01
  2.327775e+01    8.649082e-01
  2.329362e+01    8.553484e-01
  2.330950e+01    8.448358e-01
  2.332537e+01    8.277215e-01
  2.334125e+01    8.365462e-01
  2.335713e+01    8.649522e-01
  2.337300e+01    8.634475e-01
  2.338888e+01    8.558534e-01
  2.340475e+01    8.243263e-01
  2.342063e+01    8.356307e-01
  2.343650e+01    8.654987e-01
  2.345238e+01    8.421240e-01
  2.346825e+01    8.204178e-01
  2.348413e+01    8.173497e-01
  2.350001e+01    8.216486e-01
  2.351588e+01    8.257999e-01
  2.353176e+01    8.314345e-01
  2.354763e+01    8.386052e-01
  2.356351e+01    8.289366e-01
  2.357938e+01    8.234571e-01
  2.359526e+01    8.206836e-01
  2.361113e+01    8.381507e-01
  2.362701e+01    8.463846e-01
  2.364289e+01    8.332232e-01
  2.365876e+01    8.046380e-01
  2.367464e+01    8.154787e-01
  2.369051e+01    8.189580e-01
  2.370639e+01    8.021004e-01
  2.372226e+01    8.117239e-01
  2.373814e+01    8.155652e-01
  2.375401e+01    8.191814e-01
  2.376989e+01    8.011865e-01
  2.378577e+01    7.941003e-01
  2.380164e+01    8.013254e-01
  2.381752e+01    7.934951e-01
  2.383339e+01    8.014855e-01
  2.384927e+01    8.114004e-01
  2.386514e+01    8.086210e-01
  2.388102e+01    7.875143e-01
  2.389689e+01    7.688476e-01
  2.391277e+01    7.823340e-01
  2.392865e+01    7.902671e-01
  2.394452e+01    7.898179e-01
  2.396040e+01    7.761730e-01
  2.397627e+01    7.890292e-01
  2.399215e+01    7.888069e-01
  2.400802e+01    7.667974e-01
  2.402390e+01    7.824132e-01
  2.403978e+01    7.779793e-01
  2.405565e+01    7.645313e-01
  2.407153e+01    7.551544e-01
  2.408740e+01    7.696738e-01
  2.410328e+01    7.648914e-01
  2.411915e+01    7.685953e-01
  2.413503e+01    7.728127e-01
  2.415090e+01    7.517298e-01
  2.416678e+01    7.641768e-01
  2.418266e+01    7.807640e-01
  2.419853e+01    7.778590e-01
  2.421441e+01    7.802732e-01
  2.423028e+01    7.665160e-01
  2.424616e+01    7.615982e-01
  2.426203e+01    7.788525e-01
  2.427791e+01    7.831948e-01
  2.429378e+01    7.788119e-01
  2.430966e+01    7.825573e-01
  2.432554e+01    7.830798e-01
  2.434141e+01    7.712969e-01
  2.435729e+01    7.741195e-01
  2.437316e+01    7.991994e-01
  2.438904e+01    8.041302e-01
  2.440491e+01    7.800926e-01
  2.442079e+01    7.642715e-01
  2.443666e+01    7.637478e-01
  2.445254e+01    7.748625e-01
  2.446842e+01    7.858746e-01
  2.448429e+01    7.906109e-01
  2.450017e+01    7.912802e-01
  2.451604e+01    7.994301e-01
  2.453192e+01    7.828090e-01
  2.454779e+01    7.776908e-01
  2.456367e+01    7.869161e-01
  2.457954e+01    7.647223e-01
  2.459542e+01    7.658082e-01
  2.461130e+01    7.710525e-01
  2.462717e+01    7.717209e-01
  2.464305e+01    7.765947e-01
  2.465892e+01    7.736220e-01
  2.467480e+01    7.804606e-01
  2.469067e+01    8.013639e-01
  2.470655e+01    7.750959e-01
  2.472242e+01    7.830763e-01
  2.473830e+01    7.740276e-01
  2.475418e+01    7.703981e-01
  2.477005e+01    7.823069e-01
  2.478593e+01    7.925712e-01
  2.480180e+01    7.921199e-01
  2.481768e+01    7.905564e-01
  2.483355e+01    7.895142e-01
  2.484943e+01    7.880550e-01
  2.486530e+01    7.909756e-01
  2.488118e+01    7.874560e-01
  2.489706e+01    7.949712e-01
  2.491293e+01    7.933429e-01
  2.492881e+01    7.772187e-01
  2.494468e+01    7.882173e-01
  2.496056e+01    7.911754e-01
  2.497643e+01    7.963895e-01
  2.499231e+01    7.975907e-01
  2.500819e+01    8.075196e-01
  2.502406e+01    7.828280e-01
  2.503994e+01    7.909160e-01
  2.505581e+01    8.009347e-01
  2.507169e+01    8.114186e-01
  2.508756e+01    7.823011e-01
  2.510344e+01    8.059849e-01
  2.511931e+01    7.969434e-01
  2.513519e+01    7.936631e-01
  2.515107e+01    7.851720e-01
  2.516694e+01    8.203109e-01
  2.518282e+01    8.247638e-01
  2.519869e+01    8.380327e-01
  2.521457e+01    8.234574e-01
  2.523044e+01    8.394407e-01
  2.524632e+01    8.293609e-01
  2.526219e+01    8.402094e-01
  2.527807e+01    8.495206e-01
  2.529395e+01    8.524352e-01
  2.530982e+01    8.716226e-01
  2.532570e+01    8.616598e-01
  2.534157e+01    8.754848e-01
  2.535745e+01    8.804404e-01
  2.537332e+01    8.806883e-01
  2.538920e+01    9.014933e-01
  2.540507e+01    9.192227e-01
  2.542095e+01    9.103701e-01
  2.543683e+01    9.052266e-01
  2.545270e+01    9.285030e-01
  2.546858e+01    9.204550e-01
  2.548445e+01    9.209076e-01
  2.550033e+01    9.608619e-01
  2.551620e+01    9.803670e-01
  2.553208e+01    9.639315e-01
  2.554795e+01    9.799404e-01
  2.556383e+01    1.024087e+00
  2.557971e+01    1.056023e+00
  2.559558e+01    1.078317e+00
  2.561146e+01    1.102394e+00
  2.562733e+01    1.130678e+00
  2.564321e+01    1.202697e+00
  2.565908e+01    1.227368e+00
  2.567496e+01    1.285982e+00
  2.569083e+01    1.395336e+00
  2.570671e+01    1.451486e+00
  2.572259e+01    1.526625e+00
  2.573846e+01    1.683292e+00
  2.575434e+01    1.843884e+00
  2.577021e+01    2.000831e+00
  2.578609e+01    2.207897e+00
  2.580196e+01    2.483069e+00
  2.581784e+01    2.827445e+00
  2.583371e+01    3.231101e+00
  2.584959e+01    3.685714e+00
  2.586547e+01    4.239326e+00
  2.588134e+01    4.821212e+00
  2.589722e+01    5.402219e+00
  2.591309e+01    6.127057e+00
  2.592897e+01    6.784004e+00
  2.594484e+01    7.378072e+00
  2.596072e+01    7.756595e+00
  2.597660e+01    7.852924e+00
  2.599247e+01    7.662838e+00
  2.600835e+01    7.272620e+00
  2.602422e+01    6.650052e+00
  2.604010e+01    5.768449e+00
  2.605597e+01    5.001306e+00
  2.607185e+01    4.282333e+00
  2.608772e+01    3.640920e+00
  2.610360e+01    3.121431e+00
  2.611948e+01    2.769204e+00
  2.613535e+01    2.414822e+00
  2.615123e+01    2.176633e+00
  2.616710e+01    1.965082e+00
  2.618298e+01    1.818782e+00
  2.619885e+01    1.668412e+00
  2.621473e+01    1.546733e+00
  2.623060e+01    1.431564e+00
  2.624648e+01    1.367141e+00
  2.626236e+01    1.292218e+00
  2.627823e+01    1.239879e+00
  2.629411e+01    1.200945e+00
  2.630998e+01    1.151778e+00
  2.632586e+01    1.110362e+00
  2.634173e+01    1.059363e+00
  2.635761e+01    1.041547e+00
  2.637348e+01    1.052485e+00
  2.638936e+01    1.040399e+00
  2.640524e+01    9.988521e-01
  2.642111e+01    9.585907e-01
  2.643699e+01    9.499857e-01
  2.645286e+01    9.428260e-01
  2.646874e+01    9.332572e-01
  2.648461e+01    9.296951e-01
  2.650049e+01    9.221315e-01
  2.651636e+01    9.208242e-01
  2.653224e+01    9.188368e-01
  2.654812e+01    8.977199e-01
  2.656399e+01    9.018689e-01
  2.657987e+01    9.123343e-01
  2.659574e+01    9.162459e-01
  2.661162e+01    9.100038e-01
  2.662749e+01    8.904070e-01
  2.664337e+01    8.825468e-01
  2.665924e+01    8.741431e-01
  2.667512e+01    8.684013e-01
  2.669100e+01    8.915368e-01
  2.670687e+01    8.994880e-01
  2.672275e+01    8.781044e-01
  2.673862e+01    8.796111e-01
  2.675450e+01    8.831674e-01
  2.677037e+01    8.892816e-01
  2.678625e+01    8.723404e-01
  2.680212e+01    8.662144e-01
  2.681800e+01    9.007198e-01
  2.683388e+01    8.964201e-01
  2.684975e+01    8.979948e-01
  2.686563e+01    8.955809e-01
  2.688150e+01    8.960887e-01
  2.689738e+01    8.939852e-01
  2.691325e+01    9.062957e-01
  2.692913e+01    9.200082e-01
  2.694501e+01    9.280845e-01
  2.696088e+01    9.384813e-01
  2.697676e+01    9.455133e-01
  2.699263e+01    9.943022e-01
  2.700851e+01    1.019604e+00
  2.702438e+01    1.035104e+00
  2.704026e+01    1.078347e+00
  2.705613e+01    1.137031e+00
  2.707201e+01    1.182860e+00
  2.708789e+01    1.266827e+00
  2.710376e+01    1.334933e+00
  2.711964e+01    1.420854e+00
  2.713551e+01    1.570789e+00
  2.715139e+01    1.698658e+00
  2.716726e+01    1.851047e+00
  2.718314e+01    2.001631e+00
  2.719901e+01    2.131717e+00
  2.721489e+01    2.236479e+00
  2.723077e+01    2.278731e+00
  2.724664e+01    2.236123e+00
  2.726252e+01    2.184219e+00
  2.727839e+01    2.062244e+00
  2.729427e+01    1.908898e+00
  2.731014e+01    1.762371e+00
  2.732602e+01    1.556581e+00
  2.734189e+01    1.424040e+00
  2.735777e+01    1.352668e+00
  2.737365e+01    1.245627e+00
  2.738952e+01    1.181992e+00
  2.740540e+01    1.126440e+00
  2.742127e+01    1.057859e+00
  2.743715e+01    1.025854e+00
  2.745302e+01    1.012524e+00
  2.746890e+01    9.789263e-01
  2.748477e+01    9.464301e-01
  2.750065e+01    9.345786e-01
  2.751653e+01    9.014826e-01
  2.753240e+01    8.753328e-01
  2.754828e+01    8.522724e-01
  2.756415e+01    8.670633e-01
  2.758003e+01    8.609551e-01
  2.759590e+01    8.465458e-01
  2.761178e+01    8.310148e-01
  2.762765e+01    8.297911e-01
  2.764353e+01    8.425292e-01
  2.765941e+01    8.407711e-01
  2.767528e+01    8.278898e-01
  2.769116e+01    8.386718e-01
  2.770703e+01    8.045163e-01
  2.772291e+01    8.056318e-01
  2.773878e+01    8.047315e-01
  2.775466e+01    7.981709e-01
  2.777054e+01    7.831046e-01
  2.778641e+01    7.966543e-01
  2.780229e+01    8.109263e-01
  2.781816e+01    8.121811e-01
  2.783404e+01    7.823141e-01
  2.784991e+01    7.851414e-01
  2.786579e+01    7.672222e-01
  2.788166e+01    7.779145e-01
  2.789754e+01    7.812805e-01
  2.791342e+01    8.088171e-01
  2.792929e+01    7.972691e-01
  2.794517e+01    7.784206e-01
  2.796104e+01    7.823362e-01
  2.797692e+01    7.835854e-01
  2.799279e+01    7.893865e-01
  2.800867e+01    7.628394e-01
  2.802454e+01    7.568751e-01
  2.804042e+01    7.669883e-01
  2.805630e+01    7.800828e-01
  2.807217e+01    7.645754e-01
  2.808805e+01    7.629960e-01
  2.810392e+01    7.728046e-01
  2.811980e+01    7.846749e-01
  2.813567e+01    7.799559e-01
  2.815155e+01    7.693292e-01
  2.816742e+01    7.870814e-01
  2.818330e+01    7.801191e-01
  2.819918e+01    7.752543e-01
  2.821505e+01    7.886403e-01
  2.823093e+01    7.858350e-01
  2.824680e+01    7.623379e-01
  2.826268e+01    7.587652e-01
  2.827855e+01    7.755730e-01
  2.829443e+01    7.609966e-01
  2.831030e+01    7.596316e-01
  2.832618e+01    7.680516e-01
  2.834206e+01    7.516677e-01
  2.835793e+01    7.706832e-01
  2.837381e+01    7.674769e-01
  2.838968e+01    7.702848e-01
  2.840556e+01    7.465124e-01
  2.842143e+01    7.476396e-01
  2.843731e+01    7.421839e-01
  2.845318e+01    7.529240e-01
  2.846906e+01    7.554120e-01
  2.848494e+01    7.415301e-01
  2.850081e+01    7.360498e-01
  2.851669e+01    7.469411e-01
  2.853256e+01    7.502169e-01
  2.854844e+01    7.204382e-01
  2.856431e+01    7.370970e-01
  2.858019e+01    7.477983e-01
  2.859606e+01    7.506436e-01
  2.861194e+01    7.308835e-01
  2.862782e+01    7.450154e-01
  2.864369e+01    7.399226e-01
  2.865957e+01    7.549775e-01
  2.867544e+01    7.325661e-01
  2.869132e+01    7.359116e-01
  2.870719e+01    7.471705e-01
  2.872307e+01    7.337323e-01
  2.873895e+01    7.480258e-01
  2.875482e+01    7.389846e-01
  2.877070e+01    7.334374e-01
  2.878657e+01    7.331975e-01
  2.880245e+01    7.325823e-01
  2.881832e+01    7.182504e-01
  2.883420e+01    7.102158e-01
  2.885007e+01    7.078773e-01
  2.886595e+01    7.190992e-01
  2.888183e+01    7.211354e-01
  2.889770e+01    7.599906e-01
  2.891358e+01    7.590762e-01
  2.892945e+01    7.275922e-01
  2.894533e+01    7.318952e-01
  2.896120e+01    7.222911e-01
  2.897708e+01    7.322127e-01
  2.899295e+01    7.133247e-01
  2.900883e+01    7.238664e-01
  2.902471e+01    7.260433e-01
  2.904058e+01    7.141479e-01
  2.905646e+01    7.349579e-01
  2.907233e+01    7.525515e-01
  2.908821e+01    7.509585e-01
  2.910408e+01    7.261268e-01
  2.911996e+01    7.353290e-01
  2.913583e+01    7.476498e-01
  2.915171e+01    7.275410e-01
  2.916759e+01    7.150143e-01
  2.918346e+01    6.993002e-01
  2.919934e+01    7.034742e-01
  2.921521e+01    7.358080e-01
  2.923109e+01    7.218635e-01
  2.924696e+01    7.269203e-01
  2.926284e+01    7.211593e-01
  2.927871e+01    7.388836e-01
  2.929459e+01    7.237790e-01
  2.931047e+01    7.152888e-01
  2.932634e+01    7.171382e-01
  2.934222e+01    7.195460e-01
  2.935809e+01    7.305964e-01
  2.937397e+01    7.150611e-01
  2.938984e+01    7.192552e-01
  2.940572e+01    7.119499e-01
  2.942159e+01    7.102184e-01
  2.943747e+01    7.372732e-01
  2.945335e+01    7.184446e-01
  2.946922e+01    7.133269e-01
  2.948510e+01    7.241570e-01
  2.950097e+01    7.109727e-01
  2.951685e+01    7.133456e-01
  2.953272e+01    7.075177e-01
  2.954860e+01    7.048389e-01
  2.956447e+01    6.959630e-01
  2.958035e+01    7.102700e-01
  2.959623e+01    7.090150e-01
  2.961210e+01    6.889483e-01
  2.962798e+01    6.965507e-01
  2.964385e+01    7.081019e-01
  2.965973e+01    7.305740e-01
  2.967560e+01    7.208731e-01
  2.969148e+01    7.267318e-01
  2.970736e+01    7.062501e-01
  2.972323e+01    7.136285e-01
  2.973911e+01    6.993701e-01
  2.975498e+01    7.294142e-01
  2.977086e+01    7.263292e-01
  2.978673e+01    7.120404e-01
  2.980261e+01    7.281161e-01
  2.981848e+01    7.174107e-01
  2.983436e+01    7.166988e-01
  2.985024e+01    7.186171e-01
  2.986611e+01    7.204610e-01
  2.988199e+01    7.064896e-01
  2.989786e+01    7.043288e-01
  2.991374e+01    7.271646e-01
  2.992961e+01    7.049195e-01
  2.994549e+01    7.128494e-01
  2.996136e+01    6.878762e-01
  2.997724e+01    6.972851e-01
  2.999312e+01    7.137631e-01
  3.000899e+01    7.224487e-01
  3.002487e+01    6.955334e-01
  3.004074e+01    6.980236e-01
  3.005662e+01    7.173581e-01
  3.007249e+01    7.267166e-01
  3.008837e+01    7.153453e-01
  3.010424e+01    7.330592e-01
  3.012012e+01    7.245421e-01
  3.013600e+01    7.207173e-01
  3.015187e+01    7.077234e-01
  3.016775e+01    6.716588e-01
  3.018362e+01    6.998081e-01
  3.019950e+01    7.008841e-01
  3.021537e+01    7.171209e-01
  3.023125e+01    7.122526e-01
  3.024712e+01    7.163911e-01
  3.026300e+01    7.031438e-01
  3.027888e+01    6.852997e-01
  3.029475e+01    6.869289e-01
  3.031063e+01    7.073772e-01
  3.032650e+01    7.137216e-01
  3.034238e+01    7.032827e-01
  3.035825e+01    7.111952e-01
  3.037413e+01    7.127427e-01
  3.039000e+01    7.051480e-01
  3.040588e+01    7.031651e-01
  3.042176e+01    6.759526e-01
  3.043763e+01    6.990041e-01
  3.045351e+01    7.142261e-01
  3.046938e+01    6.817536e-01
  3.048526e+01    7.126238e-01
  3.050113e+01    7.045586e-01
  3.051701e+01    7.253172e-01
  3.053288e+01    6.979343e-01
  3.054876e+01    6.985729e-01
  3.056464e+01    7.192540e-01
  3.058051e+01    6.975505e-01
  3.059639e+01    6.924683e-01
  3.061226e+01    7.190675e-01
  3.062814e+01    7.136621e-01
  3.064401e+01    7.277299e-01
  3.065989e+01    7.200193e-01
  3.067577e+01    7.001020e-01
  3.069164e+01    6.935719e-01
  3.070752e+01    6.929550e-01
  3.072339e+01    6.873230e-01
  3.073927e+01    6.949124e-01
  3.075514e+01    7.163345e-01
  3.077102e+01    7.037090e-01
  3.078689e+01    7.132326e-01
  3.080277e+01    7.004918e-01
  3.081865e+01    6.992232e-01
  3.083452e+01    6.920957e-01
  3.085040e+01    7.221186e-01
  3.086627e+01    7.205670e-01
  3.088215e+01    7.138712e-01
  3.089802e+01    7.012461e-01
  3.091390e+01    6.998299e-01
  3.092977e+01    7.186779e-01
  3.094565e+01    7.132407e-01
  3.096153e+01    6.977892e-01
  3.097740e+01    6.927979e-01
  3.099328e+01    7.134368e-01
  3.100915e+01    7.077481e-01
  3.102503e+01    7.180056e-01
  3.104090e+01    7.119963e-01
  3.105678e+01    7.045884e-01
  3.107265e+01    6.929145e-01
  3.108853e+01    6.962394e-01
  3.110441e+01    6.835661e-01
  3.112028e+01    6.877043e-01
  3.113616e+01    7.166914e-01
  3.115203e+01    7.199708e-01
  3.116791e+01    7.002084e-01
  3.118378e+01    7.062190e-01
  3.119966e+01    7.094814e-01
  3.121553e+01    7.309052e-01
  3.123141e+01    7.308729e-01
  3.124729e+01    7.126944e-01
  3.126316e+01    7.158007e-01
  3.127904e+01    7.173736e-01
  3.129491e+01    7.141384e-01
  3.131079e+01    7.209504e-01
  3.132666e+01    7.333475e-01
  3.134254e+01    7.479536e-01
  3.135841e+01    7.426817e-01
  3.137429e+01    7.489792e-01
  3.139017e+01    7.444758e-01
  3.140604e+01    7.415932e-01
  3.142192e+01    7.435506e-01
  3.143779e+01    7.476431e-01
  3.145367e+01    7.305168e-01
  3.146954e+01    7.344171e-01
  3.148542e+01    7.293727e-01
  3.150129e+01    7.345083e-01
  3.151717e+01    7.538559e-01
  3.153305e+01    7.620944e-01
  3.154892e+01    7.572631e-01
  3.156480e+01    7.832956e-01
  3.158067e+01    7.765343e-01
  3.159655e+01    8.097040e-01
  3.161242e+01    7.954533e-01
  3.162830e+01    8.343460e-01
  3.164418e+01    8.409531e-01
  3.166005e+01    8.483636e-01
  3.167593e+01    8.985074e-01
  3.169180e+01    9.012930e-01
  3.170768e+01    9.348423e-01
  3.172355e+01    9.762589e-01
  3.173943e+01    1.007565e+00
  3.175530e+01    1.060252e+00
  3.177118e+01    1.147831e+00
  3.178706e+01    1.231102e+00
  3.180293e+01    1.329083e+00
  3.181881e+01    1.443851e+00
  3.183468e+01    1.542207e+00
  3.185056e+01    1.718097e+00
  3.186643e+01    1.882516e+00
  3.188231e+01    2.045407e+00
  3.189818e+01    2.177775e+00
  3.191406e+01    2.273665e+00
  3.192994e+01    2.273156e+00
  3.194581e+01    2.268253e+00
  3.196169e+01    2.161707e+00
  3.197756e+01    2.021055e+00
  3.199344e+01    1.832193e+00
  3.200931e+01    1.646042e+00
  3.202519e+01    1.501339e+00
  3.204106e+01    1.357836e+00
  3.205694e+01    1.230502e+00
  3.207282e+01    1.169556e+00
  3.208869e+01    1.073223e+00
  3.210457e+01    1.012202e+00
  3.212044e+01    9.592351e-01
  3.213632e+01    9.279487e-01
  3.215219e+01    9.177601e-01
  3.216807e+01    8.730592e-01
  3.218394e+01    8.421808e-01
  3.219982e+01    8.599374e-01
  3.221570e+01    8.235879e-01
  3.223157e+01    8.051193e-01
  3.224745e+01    8.046956e-01
  3.226332e+01    8.005756e-01
  3.227920e+01    7.621504e-01
  3.229507e+01    7.682458e-01
  3.231095e+01    7.609938e-01
  3.232682e+01    7.651923e-01
  3.234270e+01    7.756790e-01
  3.235858e+01    7.529654e-01
  3.237445e+01    7.382457e-01
  3.239033e+01    7.571481e-01
  3.240620e+01    7.321030e-01
  3.242208e+01    7.197706e-01
  3.243795e+01    7.256402e-01
  3.245383e+01    7.210475e-01
  3.246970e+01    7.130756e-01
  3.248558e+01    7.293697e-01
  3.250146e+01    7.600610e-01
  3.251733e+01    7.345518e-01
  3.253321e+01    7.216835e-01
  3.254908e+01    7.270576e-01
