# == pyFAI calibration ==
# Distance Sample to Detector: 0.3999999939076516 m
# PONI: 9.750e-02, 1.135e-01 m
# Rotations: -0.000175 0.000000 -0.000000 rad
# 
# == Fit2d calibration ==
# Distance Sample-beamCenter: 400.000 mm
# Center: x=1514.000, y=1300.000 pix
# Tilt: 0.010 deg  TiltPlanRot: 0.010 deg
# 
# Detector Detector	 Spline= None	 PixelSize= 7.500e-05, 7.500e-05 m
#    Detector has a mask: False 
#    Detector has a dark current: False 
#    detector has a flat field: False 
# 
# Wavelength: 6.888e-11 m
# Mask applied: user provided
# Dark current applied: False
# Flat field applied: False
# Polarization factor: 0.99
# Normalization factor: 1.0
# --> /home/myspot/data/2024_07_Rosario/Ru-CGO-ex/2024-07-27_002_Ru-CGO-ex_Activtation_ramp_000002_data_000084.dat
#       q_nm^-1             I 
  2.003187e-02    0.000000e+00
  3.590745e-02    0.000000e+00
  5.178302e-02    2.671064e-02
  6.765859e-02    1.083229e-01
  8.353417e-02    1.464180e-01
  9.940974e-02    6.312241e-02
  1.152853e-01    1.884233e-03
  1.311609e-01    2.306544e-03
  1.470365e-01    2.606170e-02
  1.629120e-01    3.217766e-02
  1.787876e-01    3.922686e-02
  1.946632e-01    1.403729e-02
  2.105388e-01    1.731820e-02
  2.264143e-01    0.000000e+00
  2.422899e-01    1.455738e-02
  2.581655e-01    5.237855e-02
  2.740411e-01    6.147247e-02
  2.899166e-01    3.184978e-02
  3.057922e-01    2.038276e-02
  3.216678e-01    2.804358e-02
  3.375433e-01    2.745052e-02
  3.534189e-01    1.093372e-02
  3.692945e-01    1.758211e-02
  3.851701e-01    2.520395e-02
  4.010456e-01    3.706143e-02
  4.169212e-01    2.919374e-03
  4.327968e-01    2.435288e-02
  4.486724e-01    3.249723e-02
  4.645479e-01    5.788149e-02
  4.804235e-01    3.890841e-02
  4.962991e-01    2.417686e-02
  5.121747e-01    2.826763e-02
  5.280502e-01    2.146865e-02
  5.439258e-01    4.388198e-02
  5.598014e-01    4.125125e-02
  5.756770e-01    2.635984e-02
  5.915525e-01    4.666536e-02
  6.074281e-01    5.002888e-02
  6.233037e-01    4.304232e-02
  6.391793e-01    4.945629e-02
  6.550548e-01    5.683183e-02
  6.709304e-01    4.121976e-02
  6.868060e-01    5.178718e-02
  7.026815e-01    5.812198e-02
  7.185571e-01    4.919729e-02
  7.344327e-01    4.002807e-02
  7.503083e-01    8.786477e-02
  7.661838e-01    8.120815e-02
  7.820594e-01    1.239258e-01
  7.979350e-01    1.399184e-01
  8.138106e-01    2.039627e-01
  8.296861e-01    2.533760e-01
  8.455617e-01    3.017008e-01
  8.614373e-01    3.916005e-01
  8.773129e-01    4.570166e-01
  8.931884e-01    5.122460e-01
  9.090640e-01    5.634689e-01
  9.249396e-01    6.352777e-01
  9.408152e-01    7.950193e-01
  9.566907e-01    8.255606e-01
  9.725663e-01    9.206672e-01
  9.884419e-01    9.615229e-01
  1.004317e+00    1.082420e+00
  1.020193e+00    1.157237e+00
  1.036069e+00    1.163189e+00
  1.051944e+00    1.188465e+00
  1.067820e+00    1.332759e+00
  1.083695e+00    1.397852e+00
  1.099571e+00    1.445764e+00
  1.115446e+00    1.449749e+00
  1.131322e+00    1.476649e+00
  1.147198e+00    1.500179e+00
  1.163073e+00    1.429532e+00
  1.178949e+00    1.459143e+00
  1.194824e+00    1.578616e+00
  1.210700e+00    1.766042e+00
  1.226575e+00    2.127867e+00
  1.242451e+00    2.223496e+00
  1.258327e+00    2.251199e+00
  1.274202e+00    2.401232e+00
  1.290078e+00    2.495896e+00
  1.305953e+00    2.525204e+00
  1.321829e+00    2.460463e+00
  1.337705e+00    2.464892e+00
  1.353580e+00    2.474642e+00
  1.369456e+00    2.499125e+00
  1.385331e+00    2.608183e+00
  1.401207e+00    2.526906e+00
  1.417082e+00    2.507788e+00
  1.432958e+00    2.659574e+00
  1.448834e+00    2.789141e+00
  1.464709e+00    2.852317e+00
  1.480585e+00    2.898556e+00
  1.496460e+00    2.830099e+00
  1.512336e+00    2.851614e+00
  1.528211e+00    2.951729e+00
  1.544087e+00    3.075893e+00
  1.559963e+00    3.012808e+00
  1.575838e+00    2.894506e+00
  1.591714e+00    2.882463e+00
  1.607589e+00    2.896390e+00
  1.623465e+00    2.843007e+00
  1.639340e+00    2.865517e+00
  1.655216e+00    2.846659e+00
  1.671092e+00    2.839369e+00
  1.686967e+00    2.904722e+00
  1.702843e+00    2.983474e+00
  1.718718e+00    2.742611e+00
  1.734594e+00    2.729419e+00
  1.750469e+00    2.727062e+00
  1.766345e+00    2.839507e+00
  1.782221e+00    2.771729e+00
  1.798096e+00    2.738488e+00
  1.813972e+00    2.693057e+00
  1.829847e+00    2.639198e+00
  1.845723e+00    2.716690e+00
  1.861598e+00    2.715364e+00
  1.877474e+00    2.727285e+00
  1.893350e+00    2.730410e+00
  1.909225e+00    2.732032e+00
  1.925101e+00    2.701477e+00
  1.940976e+00    2.736938e+00
  1.956852e+00    2.724334e+00
  1.972727e+00    2.625646e+00
  1.988603e+00    2.770955e+00
  2.004479e+00    2.785367e+00
  2.020354e+00    2.716150e+00
  2.036230e+00    2.690784e+00
  2.052105e+00    2.652006e+00
  2.067981e+00    2.673954e+00
  2.083856e+00    2.775619e+00
  2.099732e+00    2.661360e+00
  2.115608e+00    2.751761e+00
  2.131483e+00    2.694230e+00
  2.147359e+00    2.683893e+00
  2.163234e+00    2.713877e+00
  2.179110e+00    2.739003e+00
  2.194985e+00    2.738455e+00
  2.210861e+00    2.697077e+00
  2.226737e+00    2.627027e+00
  2.242612e+00    2.640361e+00
  2.258488e+00    2.782714e+00
  2.274363e+00    2.728591e+00
  2.290239e+00    2.662273e+00
  2.306115e+00    2.676515e+00
  2.321990e+00    2.760870e+00
  2.337866e+00    2.735602e+00
  2.353741e+00    2.703749e+00
  2.369617e+00    2.729648e+00
  2.385492e+00    2.693652e+00
  2.401368e+00    2.756186e+00
  2.417244e+00    2.906136e+00
  2.433119e+00    2.852991e+00
  2.448995e+00    2.842273e+00
  2.464870e+00    2.716572e+00
  2.480746e+00    2.705763e+00
  2.496621e+00    2.799604e+00
  2.512497e+00    2.809133e+00
  2.528373e+00    2.899934e+00
  2.544248e+00    2.831273e+00
  2.560124e+00    2.815415e+00
  2.575999e+00    2.663129e+00
  2.591875e+00    2.667529e+00
  2.607750e+00    2.792911e+00
  2.623626e+00    2.777235e+00
  2.639502e+00    2.784766e+00
  2.655377e+00    2.773760e+00
  2.671253e+00    2.805209e+00
  2.687128e+00    2.782897e+00
  2.703004e+00    2.694513e+00
  2.718879e+00    2.743921e+00
  2.734755e+00    2.836227e+00
  2.750631e+00    2.840672e+00
  2.766506e+00    2.857922e+00
  2.782382e+00    2.788041e+00
  2.798257e+00    2.804178e+00
  2.814133e+00    2.829086e+00
  2.830008e+00    2.775804e+00
  2.845884e+00    2.813653e+00
  2.861760e+00    2.878203e+00
  2.877635e+00    2.917262e+00
  2.893511e+00    2.943845e+00
  2.909386e+00    2.886971e+00
  2.925262e+00    2.897150e+00
  2.941137e+00    2.746180e+00
  2.957013e+00    2.841329e+00
  2.972889e+00    2.946157e+00
  2.988764e+00    2.975090e+00
  3.004640e+00    2.972044e+00
  3.020515e+00    2.876083e+00
  3.036391e+00    2.905909e+00
  3.052266e+00    2.948566e+00
  3.068142e+00    2.935967e+00
  3.084018e+00    2.890024e+00
  3.099893e+00    2.828589e+00
  3.115769e+00    2.817434e+00
  3.131644e+00    2.774402e+00
  3.147520e+00    2.826511e+00
  3.163395e+00    2.922714e+00
  3.179271e+00    2.885426e+00
  3.195147e+00    2.893434e+00
  3.211022e+00    2.947369e+00
  3.226898e+00    2.931184e+00
  3.242773e+00    2.908887e+00
  3.258649e+00    2.978751e+00
  3.274525e+00    2.951485e+00
  3.290400e+00    2.913496e+00
  3.306276e+00    2.812513e+00
  3.322151e+00    2.895253e+00
  3.338027e+00    2.950397e+00
  3.353902e+00    2.887768e+00
  3.369778e+00    2.870628e+00
  3.385654e+00    2.839950e+00
  3.401529e+00    2.905336e+00
  3.417405e+00    2.926168e+00
  3.433280e+00    2.981838e+00
  3.449156e+00    2.966575e+00
  3.465031e+00    2.970583e+00
  3.480907e+00    2.890566e+00
  3.496783e+00    2.839304e+00
  3.512658e+00    2.918274e+00
  3.528534e+00    2.821975e+00
  3.544409e+00    2.858581e+00
  3.560285e+00    2.901297e+00
  3.576160e+00    2.855375e+00
  3.592036e+00    2.893359e+00
  3.607912e+00    3.027163e+00
  3.623787e+00    3.017241e+00
  3.639663e+00    2.941213e+00
  3.655538e+00    2.871520e+00
  3.671414e+00    2.787652e+00
  3.687289e+00    2.866415e+00
  3.703165e+00    2.954595e+00
  3.719041e+00    2.853996e+00
  3.734916e+00    2.886887e+00
  3.750792e+00    2.952005e+00
  3.766667e+00    3.009552e+00
  3.782543e+00    3.063032e+00
  3.798418e+00    2.915691e+00
  3.814294e+00    2.929563e+00
  3.830170e+00    2.951740e+00
  3.846045e+00    2.913340e+00
  3.861921e+00    2.940653e+00
  3.877796e+00    2.940378e+00
  3.893672e+00    2.968565e+00
  3.909547e+00    2.984421e+00
  3.925423e+00    2.970137e+00
  3.941299e+00    2.986709e+00
  3.957174e+00    2.995910e+00
  3.973050e+00    2.994693e+00
  3.988925e+00    2.974804e+00
  4.004801e+00    3.049579e+00
  4.020676e+00    3.011469e+00
  4.036552e+00    3.040535e+00
  4.052428e+00    3.013235e+00
  4.068303e+00    2.992750e+00
  4.084179e+00    2.976724e+00
  4.100054e+00    2.916217e+00
  4.115930e+00    2.972675e+00
  4.131806e+00    3.050583e+00
  4.147681e+00    2.987091e+00
  4.163557e+00    2.940276e+00
  4.179432e+00    2.924876e+00
  4.195308e+00    2.961495e+00
  4.211183e+00    2.947859e+00
  4.227059e+00    2.980848e+00
  4.242935e+00    3.088937e+00
  4.258810e+00    3.103782e+00
  4.274686e+00    2.990401e+00
  4.290561e+00    2.919376e+00
  4.306437e+00    2.927374e+00
  4.322312e+00    2.995746e+00
  4.338188e+00    3.019898e+00
  4.354064e+00    3.053109e+00
  4.369939e+00    3.049020e+00
  4.385815e+00    2.959461e+00
  4.401690e+00    3.027709e+00
  4.417566e+00    2.985256e+00
  4.433441e+00    3.058747e+00
  4.449317e+00    3.126875e+00
  4.465193e+00    3.040272e+00
  4.481068e+00    3.046284e+00
  4.496944e+00    3.001489e+00
  4.512819e+00    3.035789e+00
  4.528695e+00    3.022677e+00
  4.544570e+00    3.075838e+00
  4.560446e+00    3.044117e+00
  4.576322e+00    3.066701e+00
  4.592197e+00    3.072837e+00
  4.608073e+00    3.059495e+00
  4.623948e+00    3.001802e+00
  4.639824e+00    3.018131e+00
  4.655699e+00    3.023225e+00
  4.671575e+00    3.084993e+00
  4.687451e+00    3.138127e+00
  4.703326e+00    3.084044e+00
  4.719202e+00    3.100396e+00
  4.735077e+00    3.029128e+00
  4.750953e+00    3.061317e+00
  4.766828e+00    3.054700e+00
  4.782704e+00    3.050421e+00
  4.798580e+00    3.115758e+00
  4.814455e+00    3.097101e+00
  4.830331e+00    3.129048e+00
  4.846206e+00    3.147093e+00
  4.862082e+00    3.034501e+00
  4.877957e+00    3.018657e+00
  4.893833e+00    3.054678e+00
  4.909709e+00    3.041495e+00
  4.925584e+00    3.090672e+00
  4.941460e+00    3.109376e+00
  4.957335e+00    3.152752e+00
  4.973211e+00    3.106092e+00
  4.989086e+00    3.040662e+00
  5.004962e+00    3.079556e+00
  5.020838e+00    3.135788e+00
  5.036713e+00    3.170634e+00
  5.052589e+00    3.151694e+00
  5.068464e+00    3.030154e+00
  5.084340e+00    3.078568e+00
  5.100216e+00    3.103173e+00
  5.116091e+00    3.109954e+00
  5.131967e+00    3.135494e+00
  5.147842e+00    3.152042e+00
  5.163718e+00    3.113804e+00
  5.179593e+00    3.159603e+00
  5.195469e+00    3.161039e+00
  5.211345e+00    3.058904e+00
  5.227220e+00    3.127578e+00
  5.243096e+00    3.135619e+00
  5.258971e+00    3.068254e+00
  5.274847e+00    3.063886e+00
  5.290722e+00    3.157616e+00
  5.306598e+00    3.118338e+00
  5.322474e+00    3.133644e+00
  5.338349e+00    3.197857e+00
  5.354225e+00    3.061668e+00
  5.370100e+00    3.084353e+00
  5.385976e+00    3.027056e+00
  5.401851e+00    3.048633e+00
  5.417727e+00    3.142435e+00
  5.433603e+00    3.093612e+00
  5.449478e+00    3.088139e+00
  5.465354e+00    3.084431e+00
  5.481229e+00    2.976431e+00
  5.497105e+00    2.956400e+00
  5.512980e+00    2.979016e+00
  5.528856e+00    3.043898e+00
  5.544732e+00    3.089235e+00
  5.560607e+00    3.031483e+00
  5.576483e+00    3.001969e+00
  5.592358e+00    3.031353e+00
  5.608234e+00    3.074960e+00
  5.624109e+00    3.091637e+00
  5.639985e+00    3.017192e+00
  5.655861e+00    3.075050e+00
  5.671736e+00    3.128011e+00
  5.687612e+00    3.066800e+00
  5.703487e+00    3.005091e+00
  5.719363e+00    3.077031e+00
  5.735238e+00    3.039816e+00
  5.751114e+00    3.077371e+00
  5.766990e+00    3.040762e+00
  5.782865e+00    2.982911e+00
  5.798741e+00    3.024015e+00
  5.814616e+00    2.969761e+00
  5.830492e+00    2.960116e+00
  5.846367e+00    3.068570e+00
  5.862243e+00    3.033226e+00
  5.878119e+00    3.048486e+00
  5.893994e+00    3.017716e+00
  5.909870e+00    3.015673e+00
  5.925745e+00    2.995881e+00
  5.941621e+00    2.907169e+00
  5.957497e+00    2.920544e+00
  5.973372e+00    2.991887e+00
  5.989248e+00    2.966257e+00
  6.005123e+00    3.040703e+00
  6.020999e+00    3.012298e+00
  6.036874e+00    3.041151e+00
  6.052750e+00    2.978855e+00
  6.068626e+00    3.019639e+00
  6.084501e+00    3.035334e+00
  6.100377e+00    3.006191e+00
  6.116252e+00    2.998393e+00
  6.132128e+00    3.004920e+00
  6.148003e+00    3.045297e+00
  6.163879e+00    3.015761e+00
  6.179755e+00    3.035880e+00
  6.195630e+00    3.017218e+00
  6.211506e+00    3.051070e+00
  6.227381e+00    2.965602e+00
  6.243257e+00    2.880817e+00
  6.259132e+00    2.936692e+00
  6.275008e+00    2.911111e+00
  6.290884e+00    2.966096e+00
  6.306759e+00    2.996069e+00
  6.322635e+00    3.080541e+00
  6.338510e+00    3.050611e+00
  6.354386e+00    2.993689e+00
  6.370261e+00    2.985258e+00
  6.386137e+00    3.046317e+00
  6.402013e+00    3.049351e+00
  6.417888e+00    2.963434e+00
  6.433764e+00    3.013607e+00
  6.449639e+00    2.979052e+00
  6.465515e+00    2.902830e+00
  6.481390e+00    2.889774e+00
  6.497266e+00    2.949680e+00
  6.513142e+00    2.982639e+00
  6.529017e+00    3.015025e+00
  6.544893e+00    3.003909e+00
  6.560768e+00    3.003881e+00
  6.576644e+00    3.028682e+00
  6.592519e+00    3.046482e+00
  6.608395e+00    3.033606e+00
  6.624271e+00    3.014480e+00
  6.640146e+00    2.968012e+00
  6.656022e+00    2.990519e+00
  6.671897e+00    3.029466e+00
  6.687773e+00    2.990832e+00
  6.703648e+00    2.974256e+00
  6.719524e+00    3.027890e+00
  6.735400e+00    2.946500e+00
  6.751275e+00    2.988831e+00
  6.767151e+00    3.063991e+00
  6.783026e+00    3.017806e+00
  6.798902e+00    2.979247e+00
  6.814777e+00    2.986516e+00
  6.830653e+00    2.935998e+00
  6.846529e+00    2.955251e+00
  6.862404e+00    2.923824e+00
  6.878280e+00    2.937762e+00
  6.894155e+00    2.990499e+00
  6.910031e+00    2.963743e+00
  6.925907e+00    2.894006e+00
  6.941782e+00    2.890726e+00
  6.957658e+00    3.014084e+00
  6.973533e+00    2.993499e+00
  6.989409e+00    3.015394e+00
  7.005284e+00    2.998810e+00
  7.021160e+00    2.920852e+00
  7.037036e+00    2.966021e+00
  7.052911e+00    2.984738e+00
  7.068787e+00    2.981929e+00
  7.084662e+00    2.980610e+00
  7.100538e+00    2.963028e+00
  7.116413e+00    2.993997e+00
  7.132289e+00    2.959878e+00
  7.148165e+00    2.960408e+00
  7.164040e+00    2.942476e+00
  7.179916e+00    2.931548e+00
  7.195791e+00    2.933478e+00
  7.211667e+00    2.981240e+00
  7.227542e+00    2.975235e+00
  7.243418e+00    2.853652e+00
  7.259294e+00    2.870353e+00
  7.275169e+00    2.936115e+00
  7.291045e+00    2.929967e+00
  7.306920e+00    2.967886e+00
  7.322796e+00    2.962113e+00
  7.338671e+00    2.918049e+00
  7.354547e+00    2.929174e+00
  7.370423e+00    2.920498e+00
  7.386298e+00    2.912400e+00
  7.402174e+00    2.960979e+00
  7.418049e+00    2.933626e+00
  7.433925e+00    2.954697e+00
  7.449800e+00    2.951586e+00
  7.465676e+00    2.895530e+00
  7.481552e+00    2.915845e+00
  7.497427e+00    2.914948e+00
  7.513303e+00    2.944574e+00
  7.529178e+00    2.976561e+00
  7.545054e+00    2.939485e+00
  7.560929e+00    2.927582e+00
  7.576805e+00    2.926750e+00
  7.592681e+00    2.891011e+00
  7.608556e+00    2.912047e+00
  7.624432e+00    2.952402e+00
  7.640307e+00    2.916452e+00
  7.656183e+00    2.912370e+00
  7.672058e+00    2.980833e+00
  7.687934e+00    2.933791e+00
  7.703810e+00    2.907800e+00
  7.719685e+00    2.877296e+00
  7.735561e+00    2.864153e+00
  7.751436e+00    2.853474e+00
  7.767312e+00    2.908658e+00
  7.783187e+00    2.811982e+00
  7.799063e+00    2.883010e+00
  7.814939e+00    2.908569e+00
  7.830814e+00    2.838612e+00
  7.846690e+00    2.844342e+00
  7.862565e+00    2.912018e+00
  7.878441e+00    2.886794e+00
  7.894317e+00    2.850751e+00
  7.910192e+00    2.895564e+00
  7.926068e+00    2.896489e+00
  7.941943e+00    2.905615e+00
  7.957819e+00    2.829427e+00
  7.973694e+00    2.849958e+00
  7.989570e+00    2.845050e+00
  8.005446e+00    2.858497e+00
  8.021321e+00    2.913643e+00
  8.037197e+00    2.872279e+00
  8.053072e+00    2.886442e+00
  8.068948e+00    2.904602e+00
  8.084823e+00    2.879369e+00
  8.100699e+00    2.867828e+00
  8.116575e+00    2.893622e+00
  8.132450e+00    2.932914e+00
  8.148326e+00    2.904059e+00
  8.164201e+00    2.980490e+00
  8.180077e+00    2.914836e+00
  8.195952e+00    2.864064e+00
  8.211828e+00    2.896013e+00
  8.227704e+00    2.961311e+00
  8.243579e+00    2.977745e+00
  8.259455e+00    2.903228e+00
  8.275330e+00    2.886601e+00
  8.291206e+00    2.834545e+00
  8.307081e+00    2.830146e+00
  8.322957e+00    2.859737e+00
  8.338833e+00    2.862435e+00
  8.354708e+00    2.888865e+00
  8.370584e+00    2.858709e+00
  8.386459e+00    2.812114e+00
  8.402335e+00    2.864275e+00
  8.418210e+00    2.864801e+00
  8.434086e+00    2.830894e+00
  8.449962e+00    2.858309e+00
  8.465837e+00    2.881303e+00
  8.481713e+00    2.866159e+00
  8.497588e+00    2.816692e+00
  8.513464e+00    2.787081e+00
  8.529339e+00    2.739385e+00
  8.545215e+00    2.728070e+00
  8.561091e+00    2.848423e+00
  8.576966e+00    2.904974e+00
  8.592842e+00    2.850247e+00
  8.608717e+00    2.791560e+00
  8.624593e+00    2.800007e+00
  8.640468e+00    2.806847e+00
  8.656344e+00    2.892091e+00
  8.672220e+00    2.828137e+00
  8.688095e+00    2.818732e+00
  8.703971e+00    2.812423e+00
  8.719846e+00    2.866678e+00
  8.735722e+00    2.799282e+00
  8.751598e+00    2.840547e+00
  8.767473e+00    2.825912e+00
  8.783349e+00    2.770813e+00
  8.799224e+00    2.852178e+00
  8.815100e+00    2.885410e+00
  8.830975e+00    2.773683e+00
  8.846851e+00    2.792911e+00
  8.862727e+00    2.819122e+00
  8.878602e+00    2.814999e+00
  8.894478e+00    2.817069e+00
  8.910353e+00    2.808241e+00
  8.926229e+00    2.805149e+00
  8.942104e+00    2.749785e+00
  8.957980e+00    2.763411e+00
  8.973856e+00    2.835838e+00
  8.989731e+00    2.806899e+00
  9.005607e+00    2.810205e+00
  9.021482e+00    2.726651e+00
  9.037358e+00    2.768845e+00
  9.053233e+00    2.779340e+00
  9.069109e+00    2.814037e+00
  9.084985e+00    2.759948e+00
  9.100860e+00    2.796930e+00
  9.116736e+00    2.807108e+00
  9.132611e+00    2.702816e+00
  9.148487e+00    2.765401e+00
  9.164362e+00    2.821419e+00
  9.180238e+00    2.811026e+00
  9.196114e+00    2.821657e+00
  9.211989e+00    2.786393e+00
  9.227865e+00    2.784793e+00
  9.243740e+00    2.816505e+00
  9.259616e+00    2.800445e+00
  9.275491e+00    2.751815e+00
  9.291367e+00    2.764368e+00
  9.307243e+00    2.758119e+00
  9.323118e+00    2.754333e+00
  9.338994e+00    2.771488e+00
  9.354869e+00    2.755067e+00
  9.370745e+00    2.796110e+00
  9.386620e+00    2.764884e+00
  9.402496e+00    2.779386e+00
  9.418372e+00    2.821989e+00
  9.434247e+00    2.742005e+00
  9.450123e+00    2.729185e+00
  9.465998e+00    2.797866e+00
  9.481874e+00    2.749707e+00
  9.497749e+00    2.726892e+00
  9.513625e+00    2.768104e+00
  9.529501e+00    2.727685e+00
  9.545376e+00    2.767646e+00
  9.561252e+00    2.706729e+00
  9.577127e+00    2.744319e+00
  9.593003e+00    2.711107e+00
  9.608878e+00    2.669854e+00
  9.624754e+00    2.707665e+00
  9.640630e+00    2.748851e+00
  9.656505e+00    2.704352e+00
  9.672381e+00    2.700304e+00
  9.688256e+00    2.737156e+00
  9.704132e+00    2.685752e+00
  9.720008e+00    2.695926e+00
  9.735883e+00    2.685967e+00
  9.751759e+00    2.638774e+00
  9.767634e+00    2.650798e+00
  9.783510e+00    2.697177e+00
  9.799385e+00    2.710967e+00
  9.815261e+00    2.647898e+00
  9.831137e+00    2.655353e+00
  9.847012e+00    2.714495e+00
  9.862888e+00    2.745182e+00
  9.878763e+00    2.705689e+00
  9.894639e+00    2.697587e+00
  9.910514e+00    2.673651e+00
  9.926390e+00    2.650072e+00
  9.942266e+00    2.659669e+00
  9.958141e+00    2.628163e+00
  9.974017e+00    2.605405e+00
  9.989892e+00    2.630230e+00
  1.000577e+01    2.642502e+00
  1.002164e+01    2.621740e+00
  1.003752e+01    2.653306e+00
  1.005339e+01    2.644646e+00
  1.006927e+01    2.637795e+00
  1.008515e+01    2.649577e+00
  1.010102e+01    2.566452e+00
  1.011690e+01    2.617914e+00
  1.013277e+01    2.651309e+00
  1.014865e+01    2.613628e+00
  1.016452e+01    2.570607e+00
  1.018040e+01    2.626651e+00
  1.019627e+01    2.620690e+00
  1.021215e+01    2.602448e+00
  1.022803e+01    2.625720e+00
  1.024390e+01    2.611141e+00
  1.025978e+01    2.640324e+00
  1.027565e+01    2.579248e+00
  1.029153e+01    2.623167e+00
  1.030740e+01    2.580674e+00
  1.032328e+01    2.564181e+00
  1.033915e+01    2.622615e+00
  1.035503e+01    2.615076e+00
  1.037091e+01    2.568107e+00
  1.038678e+01    2.590966e+00
  1.040266e+01    2.621702e+00
  1.041853e+01    2.558996e+00
  1.043441e+01    2.546296e+00
  1.045028e+01    2.554801e+00
  1.046616e+01    2.531495e+00
  1.048204e+01    2.522914e+00
  1.049791e+01    2.582544e+00
  1.051379e+01    2.626270e+00
  1.052966e+01    2.586305e+00
  1.054554e+01    2.569391e+00
  1.056141e+01    2.567950e+00
  1.057729e+01    2.558602e+00
  1.059316e+01    2.524559e+00
  1.060904e+01    2.507405e+00
  1.062492e+01    2.522702e+00
  1.064079e+01    2.561029e+00
  1.065667e+01    2.558169e+00
  1.067254e+01    2.510896e+00
  1.068842e+01    2.519420e+00
  1.070429e+01    2.486462e+00
  1.072017e+01    2.489064e+00
  1.073604e+01    2.535269e+00
  1.075192e+01    2.582707e+00
  1.076780e+01    2.519277e+00
  1.078367e+01    2.496888e+00
  1.079955e+01    2.512698e+00
  1.081542e+01    2.494882e+00
  1.083130e+01    2.487564e+00
  1.084717e+01    2.498816e+00
  1.086305e+01    2.468201e+00
  1.087892e+01    2.481649e+00
  1.089480e+01    2.476430e+00
  1.091068e+01    2.459786e+00
  1.092655e+01    2.407584e+00
  1.094243e+01    2.471934e+00
  1.095830e+01    2.495961e+00
  1.097418e+01    2.463540e+00
  1.099005e+01    2.480624e+00
  1.100593e+01    2.473292e+00
  1.102180e+01    2.430641e+00
  1.103768e+01    2.421072e+00
  1.105356e+01    2.410421e+00
  1.106943e+01    2.460078e+00
  1.108531e+01    2.459718e+00
  1.110118e+01    2.465382e+00
  1.111706e+01    2.453488e+00
  1.113293e+01    2.456689e+00
  1.114881e+01    2.451094e+00
  1.116468e+01    2.441620e+00
  1.118056e+01    2.423347e+00
  1.119644e+01    2.401662e+00
  1.121231e+01    2.401025e+00
  1.122819e+01    2.378264e+00
  1.124406e+01    2.435600e+00
  1.125994e+01    2.440928e+00
  1.127581e+01    2.436985e+00
  1.129169e+01    2.413283e+00
  1.130756e+01    2.387049e+00
  1.132344e+01    2.422429e+00
  1.133932e+01    2.412043e+00
  1.135519e+01    2.382653e+00
  1.137107e+01    2.384944e+00
  1.138694e+01    2.418539e+00
  1.140282e+01    2.408623e+00
  1.141869e+01    2.362952e+00
  1.143457e+01    2.395869e+00
  1.145045e+01    2.398009e+00
  1.146632e+01    2.378483e+00
  1.148220e+01    2.380115e+00
  1.149807e+01    2.396061e+00
  1.151395e+01    2.364666e+00
  1.152982e+01    2.361254e+00
  1.154570e+01    2.393844e+00
  1.156157e+01    2.384784e+00
  1.157745e+01    2.394150e+00
  1.159333e+01    2.364411e+00
  1.160920e+01    2.332488e+00
  1.162508e+01    2.342497e+00
  1.164095e+01    2.375368e+00
  1.165683e+01    2.376412e+00
  1.167270e+01    2.384007e+00
  1.168858e+01    2.332545e+00
  1.170445e+01    2.337840e+00
  1.172033e+01    2.345153e+00
  1.173621e+01    2.398966e+00
  1.175208e+01    2.329534e+00
  1.176796e+01    2.314636e+00
  1.178383e+01    2.294072e+00
  1.179971e+01    2.326581e+00
  1.181558e+01    2.335566e+00
  1.183146e+01    2.310759e+00
  1.184733e+01    2.317633e+00
  1.186321e+01    2.281172e+00
  1.187909e+01    2.302398e+00
  1.189496e+01    2.342647e+00
  1.191084e+01    2.362319e+00
  1.192671e+01    2.337168e+00
  1.194259e+01    2.312546e+00
  1.195846e+01    2.278669e+00
  1.197434e+01    2.272377e+00
  1.199021e+01    2.325781e+00
  1.200609e+01    2.302630e+00
  1.202197e+01    2.299846e+00
  1.203784e+01    2.278744e+00
  1.205372e+01    2.295460e+00
  1.206959e+01    2.302370e+00
  1.208547e+01    2.296865e+00
  1.210134e+01    2.269202e+00
  1.211722e+01    2.293316e+00
  1.213309e+01    2.309993e+00
  1.214897e+01    2.317383e+00
  1.216485e+01    2.269689e+00
  1.218072e+01    2.263669e+00
  1.219660e+01    2.290164e+00
  1.221247e+01    2.296789e+00
  1.222835e+01    2.284277e+00
  1.224422e+01    2.261505e+00
  1.226010e+01    2.286066e+00
  1.227597e+01    2.302657e+00
  1.229185e+01    2.241251e+00
  1.230773e+01    2.252395e+00
  1.232360e+01    2.250747e+00
  1.233948e+01    2.305087e+00
  1.235535e+01    2.314686e+00
  1.237123e+01    2.296908e+00
  1.238710e+01    2.298625e+00
  1.240298e+01    2.340053e+00
  1.241886e+01    2.354068e+00
  1.243473e+01    2.297283e+00
  1.245061e+01    2.314062e+00
  1.246648e+01    2.313715e+00
  1.248236e+01    2.317493e+00
  1.249823e+01    2.332067e+00
  1.251411e+01    2.350987e+00
  1.252998e+01    2.334629e+00
  1.254586e+01    2.338887e+00
  1.256174e+01    2.360536e+00
  1.257761e+01    2.358591e+00
  1.259349e+01    2.359180e+00
  1.260936e+01    2.375883e+00
  1.262524e+01    2.366038e+00
  1.264111e+01    2.385023e+00
  1.265699e+01    2.389039e+00
  1.267286e+01    2.428810e+00
  1.268874e+01    2.437714e+00
  1.270462e+01    2.428587e+00
  1.272049e+01    2.488218e+00
  1.273637e+01    2.496989e+00
  1.275224e+01    2.525714e+00
  1.276812e+01    2.540139e+00
  1.278399e+01    2.558132e+00
  1.279987e+01    2.614772e+00
  1.281574e+01    2.727653e+00
  1.283162e+01    2.754770e+00
  1.284750e+01    2.819988e+00
  1.286337e+01    2.979999e+00
  1.287925e+01    3.050062e+00
  1.289512e+01    3.105522e+00
  1.291100e+01    3.266999e+00
  1.292687e+01    3.397295e+00
  1.294275e+01    3.686907e+00
  1.295862e+01    3.920187e+00
  1.297450e+01    4.274081e+00
  1.299038e+01    4.707619e+00
  1.300625e+01    5.243887e+00
  1.302213e+01    5.970323e+00
  1.303800e+01    6.841371e+00
  1.305388e+01    7.990815e+00
  1.306975e+01    9.276443e+00
  1.308563e+01    1.065835e+01
  1.310150e+01    1.212485e+01
  1.311738e+01    1.348788e+01
  1.313326e+01    1.481944e+01
  1.314913e+01    1.614903e+01
  1.316501e+01    1.725486e+01
  1.318088e+01    1.805222e+01
  1.319676e+01    1.822192e+01
  1.321263e+01    1.737180e+01
  1.322851e+01    1.582223e+01
  1.324438e+01    1.374261e+01
  1.326026e+01    1.149524e+01
  1.327614e+01    9.583288e+00
  1.329201e+01    8.124996e+00
  1.330789e+01    6.959592e+00
  1.332376e+01    6.029068e+00
  1.333964e+01    5.349928e+00
  1.335551e+01    4.732479e+00
  1.337139e+01    4.302705e+00
  1.338727e+01    3.895186e+00
  1.340314e+01    3.611666e+00
  1.341902e+01    3.423014e+00
  1.343489e+01    3.289266e+00
  1.345077e+01    3.093058e+00
  1.346664e+01    2.966403e+00
  1.348252e+01    2.867769e+00
  1.349839e+01    2.769230e+00
  1.351427e+01    2.686043e+00
  1.353015e+01    2.627510e+00
  1.354602e+01    2.565026e+00
  1.356190e+01    2.483757e+00
  1.357777e+01    2.487981e+00
  1.359365e+01    2.423556e+00
  1.360952e+01    2.369501e+00
  1.362540e+01    2.365465e+00
  1.364127e+01    2.336210e+00
  1.365715e+01    2.293362e+00
  1.367303e+01    2.307338e+00
  1.368890e+01    2.283990e+00
  1.370478e+01    2.304263e+00
  1.372065e+01    2.235029e+00
  1.373653e+01    2.172889e+00
  1.375240e+01    2.197421e+00
  1.376828e+01    2.215183e+00
  1.378415e+01    2.196564e+00
  1.380003e+01    2.161858e+00
  1.381591e+01    2.166689e+00
  1.383178e+01    2.177463e+00
  1.384766e+01    2.118214e+00
  1.386353e+01    2.104670e+00
  1.387941e+01    2.111338e+00
  1.389528e+01    2.077212e+00
  1.391116e+01    2.078009e+00
  1.392703e+01    2.097462e+00
  1.394291e+01    2.079824e+00
  1.395879e+01    2.078030e+00
  1.397466e+01    2.047652e+00
  1.399054e+01    2.032509e+00
  1.400641e+01    2.010745e+00
  1.402229e+01    1.998829e+00
  1.403816e+01    2.013609e+00
  1.405404e+01    2.008554e+00
  1.406991e+01    2.008688e+00
  1.408579e+01    1.986975e+00
  1.410167e+01    2.001324e+00
  1.411754e+01    2.004800e+00
  1.413342e+01    1.974798e+00
  1.414929e+01    2.006977e+00
  1.416517e+01    1.957181e+00
  1.418104e+01    1.952368e+00
  1.419692e+01    1.976666e+00
  1.421279e+01    1.942054e+00
  1.422867e+01    1.940056e+00
  1.424455e+01    1.962635e+00
  1.426042e+01    1.939698e+00
  1.427630e+01    1.915743e+00
  1.429217e+01    1.933870e+00
  1.430805e+01    1.981015e+00
  1.432392e+01    1.970019e+00
  1.433980e+01    1.955273e+00
  1.435568e+01    1.943886e+00
  1.437155e+01    1.883854e+00
  1.438743e+01    1.907005e+00
  1.440330e+01    1.948770e+00
  1.441918e+01    1.937257e+00
  1.443505e+01    1.916546e+00
  1.445093e+01    1.949698e+00
  1.446680e+01    1.942203e+00
  1.448268e+01    1.917281e+00
  1.449856e+01    1.899548e+00
  1.451443e+01    1.944575e+00
  1.453031e+01    1.913968e+00
  1.454618e+01    1.897017e+00
  1.456206e+01    1.924108e+00
  1.457793e+01    1.923495e+00
  1.459381e+01    1.886552e+00
  1.460968e+01    1.878847e+00
  1.462556e+01    1.873231e+00
  1.464144e+01    1.850872e+00
  1.465731e+01    1.885656e+00
  1.467319e+01    1.914859e+00
  1.468906e+01    1.903400e+00
  1.470494e+01    1.879767e+00
  1.472081e+01    1.864574e+00
  1.473669e+01    1.865436e+00
  1.475256e+01    1.901863e+00
  1.476844e+01    1.866763e+00
  1.478432e+01    1.901295e+00
  1.480019e+01    1.892472e+00
  1.481607e+01    1.861092e+00
  1.483194e+01    1.905180e+00
  1.484782e+01    1.936018e+00
  1.486369e+01    1.936553e+00
  1.487957e+01    1.943666e+00
  1.489544e+01    1.912404e+00
  1.491132e+01    1.932319e+00
  1.492720e+01    1.977041e+00
  1.494307e+01    1.993513e+00
  1.495895e+01    2.009906e+00
  1.497482e+01    2.020730e+00
  1.499070e+01    2.082120e+00
  1.500657e+01    2.128081e+00
  1.502245e+01    2.203750e+00
  1.503832e+01    2.291487e+00
  1.505420e+01    2.372583e+00
  1.507008e+01    2.489342e+00
  1.508595e+01    2.642533e+00
  1.510183e+01    2.754260e+00
  1.511770e+01    2.989291e+00
  1.513358e+01    3.289823e+00
  1.514945e+01    3.629419e+00
  1.516533e+01    4.049416e+00
  1.518120e+01    4.524615e+00
  1.519708e+01    4.931829e+00
  1.521296e+01    5.217845e+00
  1.522883e+01    5.497020e+00
  1.524471e+01    5.799263e+00
  1.526058e+01    6.080196e+00
  1.527646e+01    6.209073e+00
  1.529233e+01    6.130579e+00
  1.530821e+01    5.877141e+00
  1.532409e+01    5.416178e+00
  1.533996e+01    4.841847e+00
  1.535584e+01    4.231354e+00
  1.537171e+01    3.756972e+00
  1.538759e+01    3.379507e+00
  1.540346e+01    3.083346e+00
  1.541934e+01    2.818491e+00
  1.543521e+01    2.617328e+00
  1.545109e+01    2.456683e+00
  1.546697e+01    2.336910e+00
  1.548284e+01    2.218172e+00
  1.549872e+01    2.137830e+00
  1.551459e+01    2.067440e+00
  1.553047e+01    1.980227e+00
  1.554634e+01    1.954921e+00
  1.556222e+01    1.916392e+00
  1.557809e+01    1.881239e+00
  1.559397e+01    1.836332e+00
  1.560985e+01    1.847941e+00
  1.562572e+01    1.820520e+00
  1.564160e+01    1.785812e+00
  1.565747e+01    1.765006e+00
  1.567335e+01    1.766494e+00
  1.568922e+01    1.751614e+00
  1.570510e+01    1.775719e+00
  1.572097e+01    1.720636e+00
  1.573685e+01    1.689487e+00
  1.575273e+01    1.694486e+00
  1.576860e+01    1.703186e+00
  1.578448e+01    1.679327e+00
  1.580035e+01    1.654891e+00
  1.581623e+01    1.618368e+00
  1.583210e+01    1.630598e+00
  1.584798e+01    1.648750e+00
  1.586385e+01    1.644774e+00
  1.587973e+01    1.641757e+00
  1.589561e+01    1.622120e+00
  1.591148e+01    1.599481e+00
  1.592736e+01    1.640205e+00
  1.594323e+01    1.617757e+00
  1.595911e+01    1.596689e+00
  1.597498e+01    1.598636e+00
  1.599086e+01    1.612747e+00
  1.600673e+01    1.602671e+00
  1.602261e+01    1.585913e+00
  1.603849e+01    1.595797e+00
  1.605436e+01    1.589769e+00
  1.607024e+01    1.586570e+00
  1.608611e+01    1.586620e+00
  1.610199e+01    1.558358e+00
  1.611786e+01    1.564966e+00
  1.613374e+01    1.567931e+00
  1.614961e+01    1.568017e+00
  1.616549e+01    1.537494e+00
  1.618137e+01    1.524428e+00
  1.619724e+01    1.567834e+00
  1.621312e+01    1.533537e+00
  1.622899e+01    1.532664e+00
  1.624487e+01    1.534688e+00
  1.626074e+01    1.542250e+00
  1.627662e+01    1.567793e+00
  1.629250e+01    1.539990e+00
  1.630837e+01    1.561803e+00
  1.632425e+01    1.546933e+00
  1.634012e+01    1.553999e+00
  1.635600e+01    1.519831e+00
  1.637187e+01    1.516963e+00
  1.638775e+01    1.530872e+00
  1.640362e+01    1.524096e+00
  1.641950e+01    1.483490e+00
  1.643538e+01    1.478852e+00
  1.645125e+01    1.495679e+00
  1.646713e+01    1.492709e+00
  1.648300e+01    1.493188e+00
  1.649888e+01    1.509437e+00
  1.651475e+01    1.495646e+00
  1.653063e+01    1.528385e+00
  1.654650e+01    1.487099e+00
  1.656238e+01    1.490655e+00
  1.657826e+01    1.485093e+00
  1.659413e+01    1.511028e+00
  1.661001e+01    1.480455e+00
  1.662588e+01    1.449700e+00
  1.664176e+01    1.468273e+00
  1.665763e+01    1.461529e+00
  1.667351e+01    1.468347e+00
  1.668938e+01    1.444271e+00
  1.670526e+01    1.427959e+00
  1.672114e+01    1.430786e+00
  1.673701e+01    1.435433e+00
  1.675289e+01    1.454189e+00
  1.676876e+01    1.456332e+00
  1.678464e+01    1.428059e+00
  1.680051e+01    1.460686e+00
  1.681639e+01    1.454720e+00
  1.683226e+01    1.443020e+00
  1.684814e+01    1.433893e+00
  1.686402e+01    1.440916e+00
  1.687989e+01    1.401434e+00
  1.689577e+01    1.410916e+00
  1.691164e+01    1.463876e+00
  1.692752e+01    1.439960e+00
  1.694339e+01    1.399288e+00
  1.695927e+01    1.429847e+00
  1.697514e+01    1.430524e+00
  1.699102e+01    1.416796e+00
  1.700690e+01    1.432136e+00
  1.702277e+01    1.392536e+00
  1.703865e+01    1.389895e+00
  1.705452e+01    1.372157e+00
  1.707040e+01    1.403898e+00
  1.708627e+01    1.435358e+00
  1.710215e+01    1.419439e+00
  1.711802e+01    1.410313e+00
  1.713390e+01    1.392436e+00
  1.714978e+01    1.395779e+00
  1.716565e+01    1.383263e+00
  1.718153e+01    1.393831e+00
  1.719740e+01    1.389985e+00
  1.721328e+01    1.377296e+00
  1.722915e+01    1.376619e+00
  1.724503e+01    1.382966e+00
  1.726091e+01    1.368596e+00
  1.727678e+01    1.359970e+00
  1.729266e+01    1.380996e+00
  1.730853e+01    1.376160e+00
  1.732441e+01    1.375161e+00
  1.734028e+01    1.380920e+00
  1.735616e+01    1.354749e+00
  1.737203e+01    1.373249e+00
  1.738791e+01    1.375184e+00
  1.740379e+01    1.372966e+00
  1.741966e+01    1.376061e+00
  1.743554e+01    1.329397e+00
  1.745141e+01    1.366821e+00
  1.746729e+01    1.367248e+00
  1.748316e+01    1.341279e+00
  1.749904e+01    1.372017e+00
  1.751491e+01    1.333236e+00
  1.753079e+01    1.334396e+00
  1.754667e+01    1.349236e+00
  1.756254e+01    1.329567e+00
  1.757842e+01    1.339788e+00
  1.759429e+01    1.352234e+00
  1.761017e+01    1.310568e+00
  1.762604e+01    1.331393e+00
  1.764192e+01    1.325567e+00
  1.765779e+01    1.302043e+00
  1.767367e+01    1.315854e+00
  1.768955e+01    1.335707e+00
  1.770542e+01    1.343906e+00
  1.772130e+01    1.346346e+00
  1.773717e+01    1.335684e+00
  1.775305e+01    1.320660e+00
  1.776892e+01    1.299271e+00
  1.778480e+01    1.339342e+00
  1.780067e+01    1.325654e+00
  1.781655e+01    1.310545e+00
  1.783243e+01    1.287789e+00
  1.784830e+01    1.308643e+00
  1.786418e+01    1.291691e+00
  1.788005e+01    1.302229e+00
  1.789593e+01    1.302063e+00
  1.791180e+01    1.313314e+00
  1.792768e+01    1.268508e+00
  1.794355e+01    1.297594e+00
  1.795943e+01    1.314411e+00
  1.797531e+01    1.309825e+00
  1.799118e+01    1.316617e+00
  1.800706e+01    1.311633e+00
  1.802293e+01    1.284213e+00
  1.803881e+01    1.248596e+00
  1.805468e+01    1.262001e+00
  1.807056e+01    1.297110e+00
  1.808643e+01    1.291911e+00
  1.810231e+01    1.300688e+00
  1.811819e+01    1.273684e+00
  1.813406e+01    1.265215e+00
  1.814994e+01    1.264535e+00
  1.816581e+01    1.282132e+00
  1.818169e+01    1.293787e+00
  1.819756e+01    1.292728e+00
  1.821344e+01    1.285631e+00
  1.822932e+01    1.265950e+00
  1.824519e+01    1.254640e+00
  1.826107e+01    1.284882e+00
  1.827694e+01    1.271518e+00
  1.829282e+01    1.251361e+00
  1.830869e+01    1.270471e+00
  1.832457e+01    1.284921e+00
  1.834044e+01    1.280207e+00
  1.835632e+01    1.267752e+00
  1.837220e+01    1.236561e+00
  1.838807e+01    1.232226e+00
  1.840395e+01    1.239523e+00
  1.841982e+01    1.224373e+00
  1.843570e+01    1.234122e+00
  1.845157e+01    1.247403e+00
  1.846745e+01    1.268900e+00
  1.848332e+01    1.243571e+00
  1.849920e+01    1.218465e+00
  1.851508e+01    1.246821e+00
  1.853095e+01    1.261414e+00
  1.854683e+01    1.243986e+00
  1.856270e+01    1.226354e+00
  1.857858e+01    1.227705e+00
  1.859445e+01    1.205949e+00
  1.861033e+01    1.210323e+00
  1.862620e+01    1.232244e+00
  1.864208e+01    1.232476e+00
  1.865796e+01    1.206395e+00
  1.867383e+01    1.204897e+00
  1.868971e+01    1.202939e+00
  1.870558e+01    1.203796e+00
  1.872146e+01    1.200746e+00
  1.873733e+01    1.189250e+00
  1.875321e+01    1.172598e+00
  1.876908e+01    1.187161e+00
  1.878496e+01    1.228874e+00
  1.880084e+01    1.230473e+00
  1.881671e+01    1.211286e+00
  1.883259e+01    1.199310e+00
  1.884846e+01    1.200289e+00
  1.886434e+01    1.184990e+00
  1.888021e+01    1.200040e+00
  1.889609e+01    1.202420e+00
  1.891196e+01    1.206643e+00
  1.892784e+01    1.191936e+00
  1.894372e+01    1.198125e+00
  1.895959e+01    1.177700e+00
  1.897547e+01    1.167779e+00
  1.899134e+01    1.186443e+00
  1.900722e+01    1.186730e+00
  1.902309e+01    1.194584e+00
  1.903897e+01    1.200055e+00
  1.905484e+01    1.176369e+00
  1.907072e+01    1.179499e+00
  1.908660e+01    1.181672e+00
  1.910247e+01    1.201500e+00
  1.911835e+01    1.199355e+00
  1.913422e+01    1.175468e+00
  1.915010e+01    1.178346e+00
  1.916597e+01    1.177894e+00
  1.918185e+01    1.184975e+00
  1.919773e+01    1.207723e+00
  1.921360e+01    1.172135e+00
  1.922948e+01    1.159071e+00
  1.924535e+01    1.170113e+00
  1.926123e+01    1.181667e+00
  1.927710e+01    1.186382e+00
  1.929298e+01    1.187264e+00
  1.930885e+01    1.215394e+00
  1.932473e+01    1.176035e+00
  1.934061e+01    1.147184e+00
  1.935648e+01    1.184523e+00
  1.937236e+01    1.170669e+00
  1.938823e+01    1.169197e+00
  1.940411e+01    1.144743e+00
  1.941998e+01    1.142992e+00
  1.943586e+01    1.167500e+00
  1.945173e+01    1.144033e+00
  1.946761e+01    1.171123e+00
  1.948349e+01    1.156744e+00
  1.949936e+01    1.147806e+00
  1.951524e+01    1.146897e+00
  1.953111e+01    1.147058e+00
  1.954699e+01    1.141481e+00
  1.956286e+01    1.131429e+00
  1.957874e+01    1.139045e+00
  1.959461e+01    1.135894e+00
  1.961049e+01    1.144457e+00
  1.962637e+01    1.123600e+00
  1.964224e+01    1.130491e+00
  1.965812e+01    1.132344e+00
  1.967399e+01    1.149005e+00
  1.968987e+01    1.147857e+00
  1.970574e+01    1.144992e+00
  1.972162e+01    1.122776e+00
  1.973749e+01    1.124375e+00
  1.975337e+01    1.117113e+00
  1.976925e+01    1.142661e+00
  1.978512e+01    1.146349e+00
  1.980100e+01    1.126922e+00
  1.981687e+01    1.128256e+00
  1.983275e+01    1.132411e+00
  1.984862e+01    1.116622e+00
  1.986450e+01    1.133624e+00
  1.988037e+01    1.119550e+00
  1.989625e+01    1.114250e+00
  1.991213e+01    1.099895e+00
  1.992800e+01    1.097573e+00
  1.994388e+01    1.118670e+00
  1.995975e+01    1.139347e+00
  1.997563e+01    1.104809e+00
  1.999150e+01    1.088242e+00
  2.000738e+01    1.116611e+00
  2.002325e+01    1.113962e+00
  2.003913e+01    1.080054e+00
  2.005501e+01    1.087363e+00
  2.007088e+01    1.120743e+00
  2.008676e+01    1.099441e+00
  2.010263e+01    1.108251e+00
  2.011851e+01    1.117211e+00
  2.013438e+01    1.092083e+00
  2.015026e+01    1.086396e+00
  2.016614e+01    1.100285e+00
  2.018201e+01    1.098307e+00
  2.019789e+01    1.098188e+00
  2.021376e+01    1.084258e+00
  2.022964e+01    1.099862e+00
  2.024551e+01    1.096119e+00
  2.026139e+01    1.082366e+00
  2.027726e+01    1.091062e+00
  2.029314e+01    1.110804e+00
  2.030902e+01    1.095735e+00
  2.032489e+01    1.099742e+00
  2.034077e+01    1.079193e+00
  2.035664e+01    1.095049e+00
  2.037252e+01    1.095322e+00
  2.038839e+01    1.086413e+00
  2.040427e+01    1.099411e+00
  2.042014e+01    1.083938e+00
  2.043602e+01    1.080953e+00
  2.045190e+01    1.086514e+00
  2.046777e+01    1.095454e+00
  2.048365e+01    1.067776e+00
  2.049952e+01    1.064823e+00
  2.051540e+01    1.055472e+00
  2.053127e+01    1.080176e+00
  2.054715e+01    1.096161e+00
  2.056302e+01    1.078898e+00
  2.057890e+01    1.055507e+00
  2.059478e+01    1.073675e+00
  2.061065e+01    1.085609e+00
  2.062653e+01    1.079734e+00
  2.064240e+01    1.092479e+00
  2.065828e+01    1.103711e+00
  2.067415e+01    1.071157e+00
  2.069003e+01    1.095083e+00
  2.070590e+01    1.066071e+00
  2.072178e+01    1.047585e+00
  2.073766e+01    1.054686e+00
  2.075353e+01    1.060559e+00
  2.076941e+01    1.061057e+00
  2.078528e+01    1.076656e+00
  2.080116e+01    1.063532e+00
  2.081703e+01    1.050207e+00
  2.083291e+01    1.067026e+00
  2.084878e+01    1.074335e+00
  2.086466e+01    1.081053e+00
  2.088054e+01    1.070590e+00
  2.089641e+01    1.063184e+00
  2.091229e+01    1.074125e+00
  2.092816e+01    1.065102e+00
  2.094404e+01    1.046412e+00
  2.095991e+01    1.072563e+00
  2.097579e+01    1.076475e+00
  2.099166e+01    1.074588e+00
  2.100754e+01    1.072945e+00
  2.102342e+01    1.075662e+00
  2.103929e+01    1.084000e+00
  2.105517e+01    1.064503e+00
  2.107104e+01    1.053058e+00
  2.108692e+01    1.064381e+00
  2.110279e+01    1.066979e+00
  2.111867e+01    1.080099e+00
  2.113455e+01    1.088687e+00
  2.115042e+01    1.093603e+00
  2.116630e+01    1.090140e+00
  2.118217e+01    1.080297e+00
  2.119805e+01    1.092565e+00
  2.121392e+01    1.066867e+00
  2.122980e+01    1.070548e+00
  2.124567e+01    1.093083e+00
  2.126155e+01    1.104030e+00
  2.127743e+01    1.096778e+00
  2.129330e+01    1.131540e+00
  2.130918e+01    1.132998e+00
  2.132505e+01    1.123519e+00
  2.134093e+01    1.148011e+00
  2.135680e+01    1.140672e+00
  2.137268e+01    1.149618e+00
  2.138855e+01    1.154408e+00
  2.140443e+01    1.151398e+00
  2.142031e+01    1.167260e+00
  2.143618e+01    1.197644e+00
  2.145206e+01    1.219403e+00
  2.146793e+01    1.209271e+00
  2.148381e+01    1.230373e+00
  2.149968e+01    1.247863e+00
  2.151556e+01    1.277418e+00
  2.153143e+01    1.333107e+00
  2.154731e+01    1.372910e+00
  2.156319e+01    1.397997e+00
  2.157906e+01    1.436154e+00
  2.159494e+01    1.501281e+00
  2.161081e+01    1.551981e+00
  2.162669e+01    1.642447e+00
  2.164256e+01    1.739901e+00
  2.165844e+01    1.850819e+00
  2.167431e+01    1.998674e+00
  2.169019e+01    2.228065e+00
  2.170607e+01    2.429549e+00
  2.172194e+01    2.673313e+00
  2.173782e+01    3.003295e+00
  2.175369e+01    3.427725e+00
  2.176957e+01    3.915201e+00
  2.178544e+01    4.439123e+00
  2.180132e+01    5.170168e+00
  2.181719e+01    5.924616e+00
  2.183307e+01    6.623394e+00
  2.184895e+01    7.388991e+00
  2.186482e+01    8.246140e+00
  2.188070e+01    9.009128e+00
  2.189657e+01    9.698708e+00
  2.191245e+01    1.003356e+01
  2.192832e+01    9.989872e+00
  2.194420e+01    9.530194e+00
  2.196007e+01    8.735677e+00
  2.197595e+01    7.730129e+00
  2.199183e+01    6.586963e+00
  2.200770e+01    5.514709e+00
  2.202358e+01    4.626019e+00
  2.203945e+01    3.997778e+00
  2.205533e+01    3.473248e+00
  2.207120e+01    3.018934e+00
  2.208708e+01    2.684283e+00
  2.210296e+01    2.373721e+00
  2.211883e+01    2.185029e+00
  2.213471e+01    2.008946e+00
  2.215058e+01    1.859580e+00
  2.216646e+01    1.752287e+00
  2.218233e+01    1.697261e+00
  2.219821e+01    1.584543e+00
  2.221408e+01    1.477340e+00
  2.222996e+01    1.421133e+00
  2.224584e+01    1.351377e+00
  2.226171e+01    1.316476e+00
  2.227759e+01    1.307483e+00
  2.229346e+01    1.252340e+00
  2.230934e+01    1.236719e+00
  2.232521e+01    1.190678e+00
  2.234109e+01    1.163488e+00
  2.235696e+01    1.152594e+00
  2.237284e+01    1.110688e+00
  2.238872e+01    1.109670e+00
  2.240459e+01    1.117101e+00
  2.242047e+01    1.096294e+00
  2.243634e+01    1.077612e+00
  2.245222e+01    1.060235e+00
  2.246809e+01    1.085319e+00
  2.248397e+01    1.050616e+00
  2.249984e+01    1.049425e+00
  2.251572e+01    1.049319e+00
  2.253160e+01    1.038973e+00
  2.254747e+01    1.020334e+00
  2.256335e+01    9.857774e-01
  2.257922e+01    9.747103e-01
  2.259510e+01    9.999859e-01
  2.261097e+01    9.995322e-01
  2.262685e+01    9.729016e-01
  2.264272e+01    9.708869e-01
  2.265860e+01    9.675757e-01
  2.267448e+01    9.725379e-01
  2.269035e+01    9.608668e-01
  2.270623e+01    9.566998e-01
  2.272210e+01    9.353781e-01
  2.273798e+01    9.453907e-01
  2.275385e+01    9.659216e-01
  2.276973e+01    9.755459e-01
  2.278560e+01    9.359254e-01
  2.280148e+01    9.261690e-01
  2.281736e+01    9.420112e-01
  2.283323e+01    9.478624e-01
  2.284911e+01    9.356565e-01
  2.286498e+01    9.160175e-01
  2.288086e+01    9.331355e-01
  2.289673e+01    9.202549e-01
  2.291261e+01    8.973448e-01
  2.292848e+01    9.029617e-01
  2.294436e+01    8.923911e-01
  2.296024e+01    8.874256e-01
  2.297611e+01    8.902653e-01
  2.299199e+01    8.900334e-01
  2.300786e+01    9.056724e-01
  2.302374e+01    8.953849e-01
  2.303961e+01    9.053837e-01
  2.305549e+01    8.784508e-01
  2.307137e+01    9.045246e-01
  2.308724e+01    8.802177e-01
  2.310312e+01    8.574858e-01
  2.311899e+01    8.709392e-01
  2.313487e+01    8.982879e-01
  2.315074e+01    8.805619e-01
  2.316662e+01    8.788314e-01
  2.318249e+01    8.772622e-01
  2.319837e+01    8.640050e-01
  2.321425e+01    8.618838e-01
  2.323012e+01    8.616945e-01
  2.324600e+01    8.585684e-01
  2.326187e+01    8.671805e-01
  2.327775e+01    8.701074e-01
  2.329362e+01    8.696773e-01
  2.330950e+01    8.521852e-01
  2.332537e+01    8.705440e-01
  2.334125e+01    8.511940e-01
  2.335713e+01    8.640367e-01
  2.337300e+01    8.532399e-01
  2.338888e+01    8.316390e-01
  2.340475e+01    8.369788e-01
  2.342063e+01    8.466089e-01
  2.343650e+01    8.648911e-01
  2.345238e+01    8.648495e-01
  2.346825e+01    8.546055e-01
  2.348413e+01    8.434535e-01
  2.350001e+01    8.477837e-01
  2.351588e+01    8.430636e-01
  2.353176e+01    8.446403e-01
  2.354763e+01    8.459992e-01
  2.356351e+01    8.266724e-01
  2.357938e+01    8.374467e-01
  2.359526e+01    8.530722e-01
  2.361113e+01    8.338284e-01
  2.362701e+01    8.428018e-01
  2.364289e+01    8.513415e-01
  2.365876e+01    8.369918e-01
  2.367464e+01    8.332212e-01
  2.369051e+01    8.379866e-01
  2.370639e+01    8.323647e-01
  2.372226e+01    8.108239e-01
  2.373814e+01    7.993417e-01
  2.375401e+01    8.174224e-01
  2.376989e+01    8.121279e-01
  2.378577e+01    8.124768e-01
  2.380164e+01    8.147038e-01
  2.381752e+01    8.050422e-01
  2.383339e+01    8.036234e-01
  2.384927e+01    8.088680e-01
  2.386514e+01    7.997625e-01
  2.388102e+01    8.102640e-01
  2.389689e+01    7.868832e-01
  2.391277e+01    7.810310e-01
  2.392865e+01    7.951275e-01
  2.394452e+01    7.917842e-01
  2.396040e+01    8.039256e-01
  2.397627e+01    8.022963e-01
  2.399215e+01    8.013557e-01
  2.400802e+01    7.794997e-01
  2.402390e+01    7.712271e-01
  2.403978e+01    7.679206e-01
  2.405565e+01    7.882804e-01
  2.407153e+01    7.930279e-01
  2.408740e+01    7.698849e-01
  2.410328e+01    7.703625e-01
  2.411915e+01    7.794966e-01
  2.413503e+01    7.612523e-01
  2.415090e+01    7.542139e-01
  2.416678e+01    7.686778e-01
  2.418266e+01    7.745206e-01
  2.419853e+01    7.838450e-01
  2.421441e+01    7.650624e-01
  2.423028e+01    7.598319e-01
  2.424616e+01    7.733978e-01
  2.426203e+01    7.860689e-01
  2.427791e+01    7.884561e-01
  2.429378e+01    7.850551e-01
  2.430966e+01    7.950276e-01
  2.432554e+01    7.947839e-01
  2.434141e+01    7.847497e-01
  2.435729e+01    7.868931e-01
  2.437316e+01    8.072685e-01
  2.438904e+01    8.008806e-01
  2.440491e+01    8.041322e-01
  2.442079e+01    8.077679e-01
  2.443666e+01    7.886164e-01
  2.445254e+01    7.879414e-01
  2.446842e+01    7.882606e-01
  2.448429e+01    7.936074e-01
  2.450017e+01    7.721577e-01
  2.451604e+01    7.693267e-01
  2.453192e+01    7.824073e-01
  2.454779e+01    8.092973e-01
  2.456367e+01    7.815093e-01
  2.457954e+01    7.856146e-01
  2.459542e+01    7.866067e-01
  2.461130e+01    8.029110e-01
  2.462717e+01    8.168347e-01
  2.464305e+01    7.894880e-01
  2.465892e+01    7.975780e-01
  2.467480e+01    7.766092e-01
  2.469067e+01    7.752135e-01
  2.470655e+01    7.927532e-01
  2.472242e+01    7.874634e-01
  2.473830e+01    7.960427e-01
  2.475418e+01    7.800496e-01
  2.477005e+01    7.575235e-01
  2.478593e+01    7.662264e-01
  2.480180e+01    7.893330e-01
  2.481768e+01    8.053157e-01
  2.483355e+01    7.892668e-01
  2.484943e+01    7.815155e-01
  2.486530e+01    7.966418e-01
  2.488118e+01    7.742993e-01
  2.489706e+01    7.814929e-01
  2.491293e+01    7.736752e-01
  2.492881e+01    7.774950e-01
  2.494468e+01    7.731520e-01
  2.496056e+01    7.943416e-01
  2.497643e+01    8.015803e-01
  2.499231e+01    8.204657e-01
  2.500819e+01    8.221789e-01
  2.502406e+01    8.159848e-01
  2.503994e+01    8.141439e-01
  2.505581e+01    8.161660e-01
  2.507169e+01    8.019459e-01
  2.508756e+01    7.896145e-01
  2.510344e+01    8.131195e-01
  2.511931e+01    8.180914e-01
  2.513519e+01    8.199013e-01
  2.515107e+01    8.193833e-01
  2.516694e+01    8.240123e-01
  2.518282e+01    8.228313e-01
  2.519869e+01    8.273071e-01
  2.521457e+01    8.331463e-01
  2.523044e+01    8.261533e-01
  2.524632e+01    8.447310e-01
  2.526219e+01    8.396384e-01
  2.527807e+01    8.543366e-01
  2.529395e+01    8.503590e-01
  2.530982e+01    8.777819e-01
  2.532570e+01    8.814769e-01
  2.534157e+01    8.677858e-01
  2.535745e+01    8.803447e-01
  2.537332e+01    8.779426e-01
  2.538920e+01    8.880383e-01
  2.540507e+01    8.829930e-01
  2.542095e+01    9.133413e-01
  2.543683e+01    9.155439e-01
  2.545270e+01    9.284508e-01
  2.546858e+01    9.567046e-01
  2.548445e+01    9.553655e-01
  2.550033e+01    9.683703e-01
  2.551620e+01    9.900176e-01
  2.553208e+01    9.903681e-01
  2.554795e+01    1.004936e+00
  2.556383e+01    1.020002e+00
  2.557971e+01    1.047775e+00
  2.559558e+01    1.095219e+00
  2.561146e+01    1.109838e+00
  2.562733e+01    1.147509e+00
  2.564321e+01    1.186502e+00
  2.565908e+01    1.244921e+00
  2.567496e+01    1.308465e+00
  2.569083e+01    1.350441e+00
  2.570671e+01    1.406906e+00
  2.572259e+01    1.500619e+00
  2.573846e+01    1.619934e+00
  2.575434e+01    1.769070e+00
  2.577021e+01    1.921947e+00
  2.578609e+01    2.127996e+00
  2.580196e+01    2.386689e+00
  2.581784e+01    2.686894e+00
  2.583371e+01    3.069453e+00
  2.584959e+01    3.530798e+00
  2.586547e+01    4.074443e+00
  2.588134e+01    4.599349e+00
  2.589722e+01    5.258119e+00
  2.591309e+01    6.026660e+00
  2.592897e+01    6.675868e+00
  2.594484e+01    7.340240e+00
  2.596072e+01    7.905442e+00
  2.597660e+01    8.233676e+00
  2.599247e+01    8.360192e+00
  2.600835e+01    8.011548e+00
  2.602422e+01    7.493601e+00
  2.604010e+01    6.690023e+00
  2.605597e+01    5.831767e+00
  2.607185e+01    5.000862e+00
  2.608772e+01    4.284149e+00
  2.610360e+01    3.649786e+00
  2.611948e+01    3.155822e+00
  2.613535e+01    2.753181e+00
  2.615123e+01    2.456498e+00
  2.616710e+01    2.197258e+00
  2.618298e+01    1.997312e+00
  2.619885e+01    1.824951e+00
  2.621473e+01    1.662819e+00
  2.623060e+01    1.542068e+00
  2.624648e+01    1.419887e+00
  2.626236e+01    1.372444e+00
  2.627823e+01    1.317727e+00
  2.629411e+01    1.252733e+00
  2.630998e+01    1.194590e+00
  2.632586e+01    1.138478e+00
  2.634173e+01    1.118747e+00
  2.635761e+01    1.093284e+00
  2.637348e+01    1.074790e+00
  2.638936e+01    1.039819e+00
  2.640524e+01    1.012552e+00
  2.642111e+01    9.806307e-01
  2.643699e+01    9.885174e-01
  2.645286e+01    9.803011e-01
  2.646874e+01    9.804360e-01
  2.648461e+01    9.752640e-01
  2.650049e+01    9.576119e-01
  2.651636e+01    9.345817e-01
  2.653224e+01    9.341630e-01
  2.654812e+01    9.429439e-01
  2.656399e+01    9.343811e-01
  2.657987e+01    9.370478e-01
  2.659574e+01    9.114990e-01
  2.661162e+01    9.166617e-01
  2.662749e+01    9.239367e-01
  2.664337e+01    9.042946e-01
  2.665924e+01    8.834540e-01
  2.667512e+01    9.087722e-01
  2.669100e+01    9.072275e-01
  2.670687e+01    9.055125e-01
  2.672275e+01    9.028471e-01
  2.673862e+01    8.972700e-01
  2.675450e+01    9.073389e-01
  2.677037e+01    9.003120e-01
  2.678625e+01    8.721379e-01
  2.680212e+01    8.818305e-01
  2.681800e+01    9.053876e-01
  2.683388e+01    9.038086e-01
  2.684975e+01    9.179471e-01
  2.686563e+01    9.169896e-01
  2.688150e+01    9.101464e-01
  2.689738e+01    9.208119e-01
  2.691325e+01    9.323671e-01
  2.692913e+01    9.355251e-01
  2.694501e+01    9.366826e-01
  2.696088e+01    9.674130e-01
  2.697676e+01    9.759288e-01
  2.699263e+01    1.017549e+00
  2.700851e+01    1.027245e+00
  2.702438e+01    1.035323e+00
  2.704026e+01    1.071800e+00
  2.705613e+01    1.119449e+00
  2.707201e+01    1.188020e+00
  2.708789e+01    1.236890e+00
  2.710376e+01    1.281126e+00
  2.711964e+01    1.403206e+00
  2.713551e+01    1.511332e+00
  2.715139e+01    1.661215e+00
  2.716726e+01    1.806497e+00
  2.718314e+01    1.955745e+00
  2.719901e+01    2.107922e+00
  2.721489e+01    2.253465e+00
  2.723077e+01    2.311611e+00
  2.724664e+01    2.376142e+00
  2.726252e+01    2.394341e+00
  2.727839e+01    2.271351e+00
  2.729427e+01    2.122813e+00
  2.731014e+01    1.973315e+00
  2.732602e+01    1.772678e+00
  2.734189e+01    1.598879e+00
  2.735777e+01    1.477675e+00
  2.737365e+01    1.329673e+00
  2.738952e+01    1.245735e+00
  2.740540e+01    1.185545e+00
  2.742127e+01    1.154255e+00
  2.743715e+01    1.089284e+00
  2.745302e+01    1.052116e+00
  2.746890e+01    1.029068e+00
  2.748477e+01    9.954432e-01
  2.750065e+01    9.825779e-01
  2.751653e+01    9.458619e-01
  2.753240e+01    9.199396e-01
  2.754828e+01    9.061052e-01
  2.756415e+01    9.106474e-01
  2.758003e+01    9.088477e-01
  2.759590e+01    8.854094e-01
  2.761178e+01    8.543658e-01
  2.762765e+01    8.459938e-01
  2.764353e+01    8.235597e-01
  2.765941e+01    8.172114e-01
  2.767528e+01    8.241385e-01
  2.769116e+01    8.186501e-01
  2.770703e+01    8.141872e-01
  2.772291e+01    8.358669e-01
  2.773878e+01    8.367169e-01
  2.775466e+01    8.170679e-01
  2.777054e+01    8.189510e-01
  2.778641e+01    8.026175e-01
  2.780229e+01    7.980107e-01
  2.781816e+01    8.153037e-01
  2.783404e+01    8.129528e-01
  2.784991e+01    7.971934e-01
  2.786579e+01    7.982734e-01
  2.788166e+01    7.949615e-01
  2.789754e+01    7.983083e-01
  2.791342e+01    7.830462e-01
  2.792929e+01    7.688921e-01
  2.794517e+01    8.041483e-01
  2.796104e+01    8.009173e-01
  2.797692e+01    7.705449e-01
  2.799279e+01    8.061262e-01
  2.800867e+01    8.029248e-01
  2.802454e+01    8.010300e-01
  2.804042e+01    7.911021e-01
  2.805630e+01    7.739434e-01
  2.807217e+01    7.826641e-01
  2.808805e+01    7.579945e-01
  2.810392e+01    7.706753e-01
  2.811980e+01    7.650381e-01
  2.813567e+01    7.649827e-01
  2.815155e+01    7.730674e-01
  2.816742e+01    7.828002e-01
  2.818330e+01    7.784176e-01
  2.819918e+01    7.612467e-01
  2.821505e+01    7.652525e-01
  2.823093e+01    7.746848e-01
  2.824680e+01    7.808458e-01
  2.826268e+01    7.710397e-01
  2.827855e+01    7.458284e-01
  2.829443e+01    7.512549e-01
  2.831030e+01    7.717836e-01
  2.832618e+01    7.624140e-01
  2.834206e+01    7.722771e-01
  2.835793e+01    7.712300e-01
  2.837381e+01    7.750444e-01
  2.838968e+01    7.593321e-01
  2.840556e+01    7.364965e-01
  2.842143e+01    7.373531e-01
  2.843731e+01    7.608044e-01
  2.845318e+01    7.650490e-01
  2.846906e+01    7.777122e-01
  2.848494e+01    7.772552e-01
  2.850081e+01    7.779984e-01
  2.851669e+01    7.625107e-01
  2.853256e+01    7.687384e-01
  2.854844e+01    7.700582e-01
  2.856431e+01    7.741473e-01
  2.858019e+01    7.503931e-01
  2.859606e+01    7.490898e-01
  2.861194e+01    7.408266e-01
  2.862782e+01    7.544320e-01
  2.864369e+01    7.534135e-01
  2.865957e+01    7.692372e-01
  2.867544e+01    7.479837e-01
  2.869132e+01    7.456440e-01
  2.870719e+01    7.644341e-01
  2.872307e+01    7.850558e-01
  2.873895e+01    7.658916e-01
  2.875482e+01    7.447765e-01
  2.877070e+01    7.366819e-01
  2.878657e+01    7.224325e-01
  2.880245e+01    7.236711e-01
  2.881832e+01    7.459810e-01
  2.883420e+01    7.585537e-01
  2.885007e+01    7.555327e-01
  2.886595e+01    7.382860e-01
  2.888183e+01    7.291053e-01
  2.889770e+01    7.140508e-01
  2.891358e+01    7.297692e-01
  2.892945e+01    7.496063e-01
  2.894533e+01    7.230948e-01
  2.896120e+01    7.374407e-01
  2.897708e+01    7.282341e-01
  2.899295e+01    7.145275e-01
  2.900883e+01    7.208168e-01
  2.902471e+01    7.150781e-01
  2.904058e+01    7.442827e-01
  2.905646e+01    7.385917e-01
  2.907233e+01    7.298750e-01
  2.908821e+01    7.279571e-01
  2.910408e+01    7.265203e-01
  2.911996e+01    7.293185e-01
  2.913583e+01    7.227414e-01
  2.915171e+01    7.134941e-01
  2.916759e+01    7.322217e-01
  2.918346e+01    7.377601e-01
  2.919934e+01    7.175552e-01
  2.921521e+01    7.033868e-01
  2.923109e+01    7.231758e-01
  2.924696e+01    7.262999e-01
  2.926284e+01    7.309299e-01
  2.927871e+01    7.360802e-01
  2.929459e+01    7.280141e-01
  2.931047e+01    7.141137e-01
  2.932634e+01    7.368595e-01
  2.934222e+01    7.316878e-01
  2.935809e+01    7.330053e-01
  2.937397e+01    7.380660e-01
  2.938984e+01    7.176381e-01
  2.940572e+01    7.124273e-01
  2.942159e+01    7.165086e-01
  2.943747e+01    7.349705e-01
  2.945335e+01    7.292556e-01
  2.946922e+01    7.049300e-01
  2.948510e+01    7.320651e-01
  2.950097e+01    7.155944e-01
  2.951685e+01    7.128561e-01
  2.953272e+01    7.244971e-01
  2.954860e+01    7.127562e-01
  2.956447e+01    7.101699e-01
  2.958035e+01    7.366203e-01
  2.959623e+01    7.507671e-01
  2.961210e+01    7.506004e-01
  2.962798e+01    7.288952e-01
  2.964385e+01    7.154848e-01
  2.965973e+01    7.286876e-01
  2.967560e+01    7.149366e-01
  2.969148e+01    7.196419e-01
  2.970736e+01    7.232438e-01
  2.972323e+01    7.027952e-01
  2.973911e+01    7.286847e-01
  2.975498e+01    7.304295e-01
  2.977086e+01    7.095630e-01
  2.978673e+01    7.061797e-01
  2.980261e+01    7.304012e-01
  2.981848e+01    7.072486e-01
  2.983436e+01    7.071183e-01
  2.985024e+01    6.994728e-01
  2.986611e+01    7.087862e-01
  2.988199e+01    7.082593e-01
  2.989786e+01    7.050776e-01
  2.991374e+01    7.357643e-01
  2.992961e+01    7.243566e-01
  2.994549e+01    7.202121e-01
  2.996136e+01    7.146437e-01
  2.997724e+01    7.169932e-01
  2.999312e+01    7.118680e-01
  3.000899e+01    7.123758e-01
  3.002487e+01    7.427468e-01
  3.004074e+01    7.601572e-01
  3.005662e+01    7.424882e-01
  3.007249e+01    7.237194e-01
  3.008837e+01    7.332446e-01
  3.010424e+01    7.260482e-01
  3.012012e+01    7.172976e-01
  3.013600e+01    7.117935e-01
  3.015187e+01    7.250225e-01
  3.016775e+01    7.216155e-01
  3.018362e+01    7.077740e-01
  3.019950e+01    6.878831e-01
  3.021537e+01    6.842111e-01
  3.023125e+01    7.054576e-01
  3.024712e+01    7.090982e-01
  3.026300e+01    7.173294e-01
  3.027888e+01    7.147505e-01
  3.029475e+01    7.044228e-01
  3.031063e+01    7.124738e-01
  3.032650e+01    7.036495e-01
  3.034238e+01    6.977893e-01
  3.035825e+01    7.206841e-01
  3.037413e+01    7.092403e-01
  3.039000e+01    7.160278e-01
  3.040588e+01    7.149684e-01
  3.042176e+01    7.093431e-01
  3.043763e+01    7.034172e-01
  3.045351e+01    7.036507e-01
  3.046938e+01    7.063209e-01
  3.048526e+01    7.031680e-01
  3.050113e+01    7.160960e-01
  3.051701e+01    7.342069e-01
  3.053288e+01    7.097394e-01
  3.054876e+01    7.210474e-01
  3.056464e+01    7.118899e-01
  3.058051e+01    7.222561e-01
  3.059639e+01    7.230763e-01
  3.061226e+01    7.016730e-01
  3.062814e+01    7.013510e-01
  3.064401e+01    7.117888e-01
  3.065989e+01    7.129270e-01
  3.067577e+01    7.056098e-01
  3.069164e+01    7.151148e-01
  3.070752e+01    7.126324e-01
  3.072339e+01    7.091637e-01
  3.073927e+01    6.995320e-01
  3.075514e+01    6.958573e-01
  3.077102e+01    7.189748e-01
  3.078689e+01    7.091837e-01
  3.080277e+01    7.136053e-01
  3.081865e+01    6.925876e-01
  3.083452e+01    6.986433e-01
  3.085040e+01    6.961374e-01
  3.086627e+01    7.051432e-01
  3.088215e+01    7.223864e-01
  3.089802e+01    7.098619e-01
  3.091390e+01    7.285687e-01
  3.092977e+01    7.331466e-01
  3.094565e+01    7.232957e-01
  3.096153e+01    7.154316e-01
  3.097740e+01    6.868345e-01
  3.099328e+01    7.114974e-01
  3.100915e+01    7.014733e-01
  3.102503e+01    6.984388e-01
  3.104090e+01    7.163702e-01
  3.105678e+01    7.209907e-01
  3.107265e+01    7.130601e-01
  3.108853e+01    7.226973e-01
  3.110441e+01    7.247696e-01
  3.112028e+01    7.191874e-01
  3.113616e+01    7.025207e-01
  3.115203e+01    7.062973e-01
  3.116791e+01    7.381864e-01
  3.118378e+01    7.291847e-01
  3.119966e+01    7.289563e-01
  3.121553e+01    7.457210e-01
  3.123141e+01    7.187015e-01
  3.124729e+01    7.248370e-01
  3.126316e+01    7.414856e-01
  3.127904e+01    7.268600e-01
  3.129491e+01    7.006276e-01
  3.131079e+01    7.184872e-01
  3.132666e+01    7.271772e-01
  3.134254e+01    7.278108e-01
  3.135841e+01    7.305373e-01
  3.137429e+01    7.380952e-01
  3.139017e+01    7.417755e-01
  3.140604e+01    7.359557e-01
  3.142192e+01    7.446407e-01
  3.143779e+01    7.528422e-01
  3.145367e+01    7.609419e-01
  3.146954e+01    7.569891e-01
  3.148542e+01    7.706006e-01
  3.150129e+01    7.665096e-01
  3.151717e+01    7.602106e-01
  3.153305e+01    7.649004e-01
  3.154892e+01    7.674204e-01
  3.156480e+01    7.740483e-01
  3.158067e+01    7.977670e-01
  3.159655e+01    8.297972e-01
  3.161242e+01    8.134637e-01
  3.162830e+01    8.402319e-01
  3.164418e+01    8.530059e-01
  3.166005e+01    8.678381e-01
  3.167593e+01    8.576772e-01
  3.169180e+01    8.952367e-01
  3.170768e+01    9.251018e-01
  3.172355e+01    9.400706e-01
  3.173943e+01    9.928162e-01
  3.175530e+01    1.058737e+00
  3.177118e+01    1.126120e+00
  3.178706e+01    1.212898e+00
  3.180293e+01    1.286627e+00
  3.181881e+01    1.376407e+00
  3.183468e+01    1.478496e+00
  3.185056e+01    1.648796e+00
  3.186643e+01    1.805491e+00
  3.188231e+01    2.018883e+00
  3.189818e+01    2.172906e+00
  3.191406e+01    2.275286e+00
  3.192994e+01    2.369317e+00
  3.194581e+01    2.398306e+00
  3.196169e+01    2.334359e+00
  3.197756e+01    2.247871e+00
  3.199344e+01    2.097831e+00
  3.200931e+01    1.887443e+00
  3.202519e+01    1.696660e+00
  3.204106e+01    1.519083e+00
  3.205694e+01    1.397328e+00
  3.207282e+01    1.292251e+00
  3.208869e+01    1.164578e+00
  3.210457e+01    1.102837e+00
  3.212044e+01    1.046266e+00
  3.213632e+01    1.011683e+00
  3.215219e+01    9.531704e-01
  3.216807e+01    9.201087e-01
  3.218394e+01    8.787308e-01
  3.219982e+01    8.661637e-01
  3.221570e+01    8.377966e-01
  3.223157e+01    8.380737e-01
  3.224745e+01    8.410214e-01
  3.226332e+01    8.166592e-01
  3.227920e+01    7.955707e-01
  3.229507e+01    7.763531e-01
  3.231095e+01    7.742676e-01
  3.232682e+01    7.763593e-01
  3.234270e+01    7.864192e-01
  3.235858e+01    7.446666e-01
  3.237445e+01    7.404944e-01
  3.239033e+01    7.447854e-01
  3.240620e+01    7.415251e-01
  3.242208e+01    7.455820e-01
  3.243795e+01    7.322869e-01
  3.245383e+01    7.264158e-01
  3.246970e+01    7.517931e-01
  3.248558e+01    7.202763e-01
  3.250146e+01    7.177349e-01
  3.251733e+01    7.217297e-01
  3.253321e+01    7.194222e-01
  3.254908e+01    7.261608e-01
