# == pyFAI calibration ==
# Distance Sample to Detector: 0.3999999939076516 m
# PONI: 9.750e-02, 1.135e-01 m
# Rotations: -0.000175 0.000000 -0.000000 rad
# 
# == Fit2d calibration ==
# Distance Sample-beamCenter: 400.000 mm
# Center: x=1514.000, y=1300.000 pix
# Tilt: 0.010 deg  TiltPlanRot: 0.010 deg
# 
# Detector Detector	 Spline= None	 PixelSize= 7.500e-05, 7.500e-05 m
#    Detector has a mask: False 
#    Detector has a dark current: False 
#    detector has a flat field: False 
# 
# Wavelength: 6.888e-11 m
# Mask applied: user provided
# Dark current applied: False
# Flat field applied: False
# Polarization factor: 0.99
# Normalization factor: 1.0
# --> /home/myspot/data/2024_07_Rosario/Ru-CGO-ex/2024-07-27_002_Ru-CGO-ex_Activtation_ramp_000002_data_000128.dat
#       q_nm^-1             I 
  2.003187e-02    0.000000e+00
  3.590745e-02    3.427850e-02
  5.178302e-02    1.896418e-01
  6.765859e-02    1.486699e-01
  8.353417e-02    2.592503e-03
  9.940974e-02    0.000000e+00
  1.152853e-01    2.774768e-02
  1.311609e-01    7.586783e-02
  1.470365e-01    1.641128e-01
  1.629120e-01    4.952583e-02
  1.787876e-01    1.472947e-02
  1.946632e-01    1.588514e-02
  2.105388e-01    0.000000e+00
  2.264143e-01    1.415951e-02
  2.422899e-01    7.265461e-02
  2.581655e-01    6.459653e-02
  2.740411e-01    2.254912e-02
  2.899166e-01    1.786014e-02
  3.057922e-01    3.090991e-02
  3.216678e-01    1.876578e-02
  3.375433e-01    2.916214e-02
  3.534189e-01    3.000207e-02
  3.692945e-01    4.140420e-03
  3.851701e-01    4.618194e-02
  4.010456e-01    7.241380e-02
  4.169212e-01    5.176084e-02
  4.327968e-01    5.168084e-02
  4.486724e-01    5.189465e-02
  4.645479e-01    3.872224e-02
  4.804235e-01    3.089692e-02
  4.962991e-01    3.565849e-02
  5.121747e-01    2.362284e-02
  5.280502e-01    2.779848e-02
  5.439258e-01    3.309025e-02
  5.598014e-01    6.954975e-02
  5.756770e-01    6.055442e-02
  5.915525e-01    3.599581e-02
  6.074281e-01    3.611302e-02
  6.233037e-01    3.577416e-02
  6.391793e-01    2.322740e-02
  6.550548e-01    4.230895e-03
  6.709304e-01    1.721611e-02
  6.868060e-01    3.166610e-02
  7.026815e-01    5.320264e-02
  7.185571e-01    5.340481e-02
  7.344327e-01    4.661684e-02
  7.503083e-01    6.634206e-02
  7.661838e-01    7.028928e-02
  7.820594e-01    9.402287e-02
  7.979350e-01    1.556320e-01
  8.138106e-01    2.094211e-01
  8.296861e-01    2.414425e-01
  8.455617e-01    2.856433e-01
  8.614373e-01    3.513332e-01
  8.773129e-01    4.731944e-01
  8.931884e-01    5.385029e-01
  9.090640e-01    5.925391e-01
  9.249396e-01    6.001408e-01
  9.408152e-01    6.280603e-01
  9.566907e-01    7.595795e-01
  9.725663e-01    8.932181e-01
  9.884419e-01    9.672893e-01
  1.004317e+00    9.673986e-01
  1.020193e+00    1.120144e+00
  1.036069e+00    1.168790e+00
  1.051944e+00    1.169656e+00
  1.067820e+00    1.245235e+00
  1.083695e+00    1.343893e+00
  1.099571e+00    1.286825e+00
  1.115446e+00    1.346768e+00
  1.131322e+00    1.383165e+00
  1.147198e+00    1.408947e+00
  1.163073e+00    1.481450e+00
  1.178949e+00    1.395173e+00
  1.194824e+00    1.580403e+00
  1.210700e+00    1.842639e+00
  1.226575e+00    1.909482e+00
  1.242451e+00    2.127997e+00
  1.258327e+00    2.401835e+00
  1.274202e+00    2.293990e+00
  1.290078e+00    2.362509e+00
  1.305953e+00    2.526153e+00
  1.321829e+00    2.441515e+00
  1.337705e+00    2.399998e+00
  1.353580e+00    2.405057e+00
  1.369456e+00    2.633315e+00
  1.385331e+00    2.544133e+00
  1.401207e+00    2.482597e+00
  1.417082e+00    2.468049e+00
  1.432958e+00    2.537011e+00
  1.448834e+00    2.537944e+00
  1.464709e+00    2.754182e+00
  1.480585e+00    2.810587e+00
  1.496460e+00    2.837390e+00
  1.512336e+00    2.911621e+00
  1.528211e+00    2.906817e+00
  1.544087e+00    2.966473e+00
  1.559963e+00    2.981869e+00
  1.575838e+00    2.926732e+00
  1.591714e+00    2.871173e+00
  1.607589e+00    2.960975e+00
  1.623465e+00    3.021796e+00
  1.639340e+00    2.917445e+00
  1.655216e+00    2.927915e+00
  1.671092e+00    2.966290e+00
  1.686967e+00    2.823399e+00
  1.702843e+00    2.845749e+00
  1.718718e+00    2.874955e+00
  1.734594e+00    2.730975e+00
  1.750469e+00    2.717386e+00
  1.766345e+00    2.787632e+00
  1.782221e+00    2.749567e+00
  1.798096e+00    2.768194e+00
  1.813972e+00    2.737578e+00
  1.829847e+00    2.711027e+00
  1.845723e+00    2.644340e+00
  1.861598e+00    2.692199e+00
  1.877474e+00    2.646816e+00
  1.893350e+00    2.694621e+00
  1.909225e+00    2.699402e+00
  1.925101e+00    2.854444e+00
  1.940976e+00    2.763044e+00
  1.956852e+00    2.739395e+00
  1.972727e+00    2.790663e+00
  1.988603e+00    2.747932e+00
  2.004479e+00    2.695109e+00
  2.020354e+00    2.635451e+00
  2.036230e+00    2.658621e+00
  2.052105e+00    2.818326e+00
  2.067981e+00    2.744083e+00
  2.083856e+00    2.783817e+00
  2.099732e+00    2.656758e+00
  2.115608e+00    2.690593e+00
  2.131483e+00    2.693524e+00
  2.147359e+00    2.756313e+00
  2.163234e+00    2.652107e+00
  2.179110e+00    2.638504e+00
  2.194985e+00    2.849512e+00
  2.210861e+00    2.799558e+00
  2.226737e+00    2.737851e+00
  2.242612e+00    2.699468e+00
  2.258488e+00    2.805265e+00
  2.274363e+00    2.730854e+00
  2.290239e+00    2.616902e+00
  2.306115e+00    2.653246e+00
  2.321990e+00    2.698797e+00
  2.337866e+00    2.783073e+00
  2.353741e+00    2.751765e+00
  2.369617e+00    2.727994e+00
  2.385492e+00    2.687053e+00
  2.401368e+00    2.654039e+00
  2.417244e+00    2.721504e+00
  2.433119e+00    2.727660e+00
  2.448995e+00    2.717525e+00
  2.464870e+00    2.780428e+00
  2.480746e+00    2.770240e+00
  2.496621e+00    2.736120e+00
  2.512497e+00    2.785285e+00
  2.528373e+00    2.753613e+00
  2.544248e+00    2.773458e+00
  2.560124e+00    2.839789e+00
  2.575999e+00    2.848582e+00
  2.591875e+00    2.742862e+00
  2.607750e+00    2.648034e+00
  2.623626e+00    2.753220e+00
  2.639502e+00    2.761812e+00
  2.655377e+00    2.726968e+00
  2.671253e+00    2.735623e+00
  2.687128e+00    2.775994e+00
  2.703004e+00    2.727820e+00
  2.718879e+00    2.851008e+00
  2.734755e+00    2.819639e+00
  2.750631e+00    2.734429e+00
  2.766506e+00    2.778676e+00
  2.782382e+00    2.876744e+00
  2.798257e+00    2.786252e+00
  2.814133e+00    2.748551e+00
  2.830008e+00    2.801505e+00
  2.845884e+00    2.917066e+00
  2.861760e+00    2.849856e+00
  2.877635e+00    2.778106e+00
  2.893511e+00    2.787797e+00
  2.909386e+00    2.832288e+00
  2.925262e+00    2.847409e+00
  2.941137e+00    2.812918e+00
  2.957013e+00    2.784498e+00
  2.972889e+00    2.799009e+00
  2.988764e+00    2.800755e+00
  3.004640e+00    2.784410e+00
  3.020515e+00    2.859352e+00
  3.036391e+00    2.927499e+00
  3.052266e+00    2.871353e+00
  3.068142e+00    2.863384e+00
  3.084018e+00    2.876050e+00
  3.099893e+00    2.832198e+00
  3.115769e+00    2.728888e+00
  3.131644e+00    2.792700e+00
  3.147520e+00    2.925169e+00
  3.163395e+00    2.955147e+00
  3.179271e+00    2.859781e+00
  3.195147e+00    2.858896e+00
  3.211022e+00    2.958928e+00
  3.226898e+00    2.833869e+00
  3.242773e+00    2.861223e+00
  3.258649e+00    2.992491e+00
  3.274525e+00    2.889570e+00
  3.290400e+00    2.922541e+00
  3.306276e+00    2.977902e+00
  3.322151e+00    2.935988e+00
  3.338027e+00    2.821052e+00
  3.353902e+00    2.854726e+00
  3.369778e+00    2.847759e+00
  3.385654e+00    2.872653e+00
  3.401529e+00    2.891389e+00
  3.417405e+00    2.873043e+00
  3.433280e+00    2.877381e+00
  3.449156e+00    2.885693e+00
  3.465031e+00    2.932039e+00
  3.480907e+00    2.926265e+00
  3.496783e+00    2.960029e+00
  3.512658e+00    3.004960e+00
  3.528534e+00    2.942224e+00
  3.544409e+00    2.951381e+00
  3.560285e+00    3.045067e+00
  3.576160e+00    3.023259e+00
  3.592036e+00    2.976266e+00
  3.607912e+00    2.913813e+00
  3.623787e+00    2.940983e+00
  3.639663e+00    2.963712e+00
  3.655538e+00    2.996444e+00
  3.671414e+00    2.936757e+00
  3.687289e+00    2.912939e+00
  3.703165e+00    2.937342e+00
  3.719041e+00    2.913277e+00
  3.734916e+00    2.943602e+00
  3.750792e+00    2.883946e+00
  3.766667e+00    2.977739e+00
  3.782543e+00    2.993795e+00
  3.798418e+00    2.990282e+00
  3.814294e+00    2.959513e+00
  3.830170e+00    2.969822e+00
  3.846045e+00    2.977401e+00
  3.861921e+00    3.027184e+00
  3.877796e+00    2.964691e+00
  3.893672e+00    2.946277e+00
  3.909547e+00    2.966780e+00
  3.925423e+00    2.945778e+00
  3.941299e+00    2.896363e+00
  3.957174e+00    3.006345e+00
  3.973050e+00    3.080930e+00
  3.988925e+00    3.076166e+00
  4.004801e+00    3.034017e+00
  4.020676e+00    2.966888e+00
  4.036552e+00    2.922416e+00
  4.052428e+00    2.989956e+00
  4.068303e+00    2.988042e+00
  4.084179e+00    2.956253e+00
  4.100054e+00    3.077507e+00
  4.115930e+00    3.063555e+00
  4.131806e+00    3.059056e+00
  4.147681e+00    3.095299e+00
  4.163557e+00    3.058380e+00
  4.179432e+00    3.008377e+00
  4.195308e+00    3.047915e+00
  4.211183e+00    3.025329e+00
  4.227059e+00    3.034422e+00
  4.242935e+00    2.989752e+00
  4.258810e+00    3.009861e+00
  4.274686e+00    3.028601e+00
  4.290561e+00    2.992483e+00
  4.306437e+00    3.004673e+00
  4.322312e+00    3.006397e+00
  4.338188e+00    3.009606e+00
  4.354064e+00    3.022065e+00
  4.369939e+00    3.013267e+00
  4.385815e+00    3.017388e+00
  4.401690e+00    3.055213e+00
  4.417566e+00    3.056065e+00
  4.433441e+00    2.981438e+00
  4.449317e+00    2.997565e+00
  4.465193e+00    3.010235e+00
  4.481068e+00    3.037206e+00
  4.496944e+00    3.011775e+00
  4.512819e+00    3.056223e+00
  4.528695e+00    3.099527e+00
  4.544570e+00    3.057505e+00
  4.560446e+00    3.029526e+00
  4.576322e+00    3.057625e+00
  4.592197e+00    3.155753e+00
  4.608073e+00    3.182353e+00
  4.623948e+00    3.127520e+00
  4.639824e+00    3.028402e+00
  4.655699e+00    3.098228e+00
  4.671575e+00    3.054796e+00
  4.687451e+00    2.940567e+00
  4.703326e+00    3.006061e+00
  4.719202e+00    3.115427e+00
  4.735077e+00    3.023330e+00
  4.750953e+00    3.037680e+00
  4.766828e+00    3.011313e+00
  4.782704e+00    3.005535e+00
  4.798580e+00    3.027154e+00
  4.814455e+00    3.036327e+00
  4.830331e+00    3.118011e+00
  4.846206e+00    3.099480e+00
  4.862082e+00    3.064296e+00
  4.877957e+00    3.045506e+00
  4.893833e+00    3.027064e+00
  4.909709e+00    3.035632e+00
  4.925584e+00    3.086474e+00
  4.941460e+00    3.082649e+00
  4.957335e+00    3.096412e+00
  4.973211e+00    3.093560e+00
  4.989086e+00    3.077895e+00
  5.004962e+00    3.063193e+00
  5.020838e+00    3.066045e+00
  5.036713e+00    3.028034e+00
  5.052589e+00    3.060859e+00
  5.068464e+00    3.074728e+00
  5.084340e+00    3.131655e+00
  5.100216e+00    3.062346e+00
  5.116091e+00    3.119307e+00
  5.131967e+00    3.108121e+00
  5.147842e+00    3.160178e+00
  5.163718e+00    3.171414e+00
  5.179593e+00    3.126734e+00
  5.195469e+00    3.117937e+00
  5.211345e+00    3.023041e+00
  5.227220e+00    3.070301e+00
  5.243096e+00    3.109161e+00
  5.258971e+00    3.119802e+00
  5.274847e+00    3.029900e+00
  5.290722e+00    3.077424e+00
  5.306598e+00    3.121734e+00
  5.322474e+00    3.113620e+00
  5.338349e+00    3.131463e+00
  5.354225e+00    3.152655e+00
  5.370100e+00    3.177696e+00
  5.385976e+00    3.153652e+00
  5.401851e+00    2.989381e+00
  5.417727e+00    3.078317e+00
  5.433603e+00    3.066965e+00
  5.449478e+00    3.079890e+00
  5.465354e+00    3.059581e+00
  5.481229e+00    3.084572e+00
  5.497105e+00    3.040388e+00
  5.512980e+00    3.087788e+00
  5.528856e+00    3.085574e+00
  5.544732e+00    3.108378e+00
  5.560607e+00    3.118686e+00
  5.576483e+00    3.098549e+00
  5.592358e+00    3.018790e+00
  5.608234e+00    2.991359e+00
  5.624109e+00    2.951421e+00
  5.639985e+00    3.028992e+00
  5.655861e+00    3.051379e+00
  5.671736e+00    3.016405e+00
  5.687612e+00    3.060770e+00
  5.703487e+00    3.062853e+00
  5.719363e+00    2.959061e+00
  5.735238e+00    3.028209e+00
  5.751114e+00    3.042091e+00
  5.766990e+00    3.013227e+00
  5.782865e+00    3.007829e+00
  5.798741e+00    3.025228e+00
  5.814616e+00    3.079982e+00
  5.830492e+00    3.032997e+00
  5.846367e+00    3.045335e+00
  5.862243e+00    3.005321e+00
  5.878119e+00    3.052085e+00
  5.893994e+00    3.071805e+00
  5.909870e+00    3.061990e+00
  5.925745e+00    3.010584e+00
  5.941621e+00    2.920380e+00
  5.957497e+00    2.909039e+00
  5.973372e+00    2.964501e+00
  5.989248e+00    2.996686e+00
  6.005123e+00    3.009014e+00
  6.020999e+00    2.974489e+00
  6.036874e+00    3.028679e+00
  6.052750e+00    3.051114e+00
  6.068626e+00    3.003052e+00
  6.084501e+00    3.048701e+00
  6.100377e+00    3.003674e+00
  6.116252e+00    3.052541e+00
  6.132128e+00    3.034095e+00
  6.148003e+00    2.999413e+00
  6.163879e+00    3.054227e+00
  6.179755e+00    3.029482e+00
  6.195630e+00    3.096914e+00
  6.211506e+00    3.076806e+00
  6.227381e+00    3.046449e+00
  6.243257e+00    2.938782e+00
  6.259132e+00    3.003449e+00
  6.275008e+00    3.077858e+00
  6.290884e+00    2.984143e+00
  6.306759e+00    3.005080e+00
  6.322635e+00    2.974033e+00
  6.338510e+00    2.966084e+00
  6.354386e+00    3.098123e+00
  6.370261e+00    3.083903e+00
  6.386137e+00    2.994174e+00
  6.402013e+00    2.996991e+00
  6.417888e+00    3.002838e+00
  6.433764e+00    2.944099e+00
  6.449639e+00    2.958489e+00
  6.465515e+00    2.935105e+00
  6.481390e+00    2.946970e+00
  6.497266e+00    2.987789e+00
  6.513142e+00    2.977600e+00
  6.529017e+00    3.029889e+00
  6.544893e+00    3.068586e+00
  6.560768e+00    3.054198e+00
  6.576644e+00    3.056638e+00
  6.592519e+00    2.929722e+00
  6.608395e+00    2.986423e+00
  6.624271e+00    3.057452e+00
  6.640146e+00    3.030805e+00
  6.656022e+00    3.024632e+00
  6.671897e+00    3.086600e+00
  6.687773e+00    3.082279e+00
  6.703648e+00    3.020509e+00
  6.719524e+00    3.055113e+00
  6.735400e+00    3.002673e+00
  6.751275e+00    2.967538e+00
  6.767151e+00    2.971720e+00
  6.783026e+00    2.986844e+00
  6.798902e+00    3.002778e+00
  6.814777e+00    2.950544e+00
  6.830653e+00    2.995970e+00
  6.846529e+00    2.941756e+00
  6.862404e+00    3.008657e+00
  6.878280e+00    3.007612e+00
  6.894155e+00    2.974624e+00
  6.910031e+00    2.986820e+00
  6.925907e+00    3.025931e+00
  6.941782e+00    3.046909e+00
  6.957658e+00    3.014128e+00
  6.973533e+00    3.036246e+00
  6.989409e+00    2.974411e+00
  7.005284e+00    2.967191e+00
  7.021160e+00    3.004134e+00
  7.037036e+00    3.010637e+00
  7.052911e+00    2.976226e+00
  7.068787e+00    2.935933e+00
  7.084662e+00    2.968301e+00
  7.100538e+00    2.944341e+00
  7.116413e+00    2.926546e+00
  7.132289e+00    2.941362e+00
  7.148165e+00    2.994136e+00
  7.164040e+00    2.938935e+00
  7.179916e+00    2.943920e+00
  7.195791e+00    2.967046e+00
  7.211667e+00    2.988563e+00
  7.227542e+00    3.034759e+00
  7.243418e+00    2.975384e+00
  7.259294e+00    2.971049e+00
  7.275169e+00    3.033613e+00
  7.291045e+00    3.034515e+00
  7.306920e+00    3.002855e+00
  7.322796e+00    2.983359e+00
  7.338671e+00    3.012753e+00
  7.354547e+00    2.983829e+00
  7.370423e+00    2.945507e+00
  7.386298e+00    2.937629e+00
  7.402174e+00    2.932501e+00
  7.418049e+00    2.957046e+00
  7.433925e+00    2.969000e+00
  7.449800e+00    2.900605e+00
  7.465676e+00    2.941905e+00
  7.481552e+00    3.004788e+00
  7.497427e+00    2.941292e+00
  7.513303e+00    2.954087e+00
  7.529178e+00    3.002920e+00
  7.545054e+00    2.911837e+00
  7.560929e+00    2.942441e+00
  7.576805e+00    2.901732e+00
  7.592681e+00    2.929638e+00
  7.608556e+00    2.932634e+00
  7.624432e+00    2.923949e+00
  7.640307e+00    2.919064e+00
  7.656183e+00    2.967124e+00
  7.672058e+00    2.884084e+00
  7.687934e+00    2.890944e+00
  7.703810e+00    2.872840e+00
  7.719685e+00    2.927853e+00
  7.735561e+00    2.945029e+00
  7.751436e+00    2.906799e+00
  7.767312e+00    2.904663e+00
  7.783187e+00    2.881464e+00
  7.799063e+00    2.985199e+00
  7.814939e+00    3.027513e+00
  7.830814e+00    2.913856e+00
  7.846690e+00    2.877733e+00
  7.862565e+00    2.860144e+00
  7.878441e+00    2.918947e+00
  7.894317e+00    2.887259e+00
  7.910192e+00    2.878281e+00
  7.926068e+00    2.910471e+00
  7.941943e+00    2.942778e+00
  7.957819e+00    2.921936e+00
  7.973694e+00    2.934869e+00
  7.989570e+00    2.908409e+00
  8.005446e+00    2.905065e+00
  8.021321e+00    2.928207e+00
  8.037197e+00    2.922571e+00
  8.053072e+00    2.872904e+00
  8.068948e+00    2.833072e+00
  8.084823e+00    2.882888e+00
  8.100699e+00    2.884612e+00
  8.116575e+00    2.864777e+00
  8.132450e+00    2.893219e+00
  8.148326e+00    2.890254e+00
  8.164201e+00    2.861598e+00
  8.180077e+00    2.876005e+00
  8.195952e+00    2.889010e+00
  8.211828e+00    2.910306e+00
  8.227704e+00    2.939717e+00
  8.243579e+00    3.001648e+00
  8.259455e+00    2.913764e+00
  8.275330e+00    2.885715e+00
  8.291206e+00    2.951110e+00
  8.307081e+00    2.923493e+00
  8.322957e+00    2.884462e+00
  8.338833e+00    2.913994e+00
  8.354708e+00    2.870337e+00
  8.370584e+00    2.865957e+00
  8.386459e+00    2.898123e+00
  8.402335e+00    2.795175e+00
  8.418210e+00    2.872647e+00
  8.434086e+00    2.868484e+00
  8.449962e+00    2.868442e+00
  8.465837e+00    2.852089e+00
  8.481713e+00    2.825763e+00
  8.497588e+00    2.792910e+00
  8.513464e+00    2.795472e+00
  8.529339e+00    2.852435e+00
  8.545215e+00    2.854544e+00
  8.561091e+00    2.827276e+00
  8.576966e+00    2.898361e+00
  8.592842e+00    2.876810e+00
  8.608717e+00    2.903171e+00
  8.624593e+00    2.826823e+00
  8.640468e+00    2.818096e+00
  8.656344e+00    2.805928e+00
  8.672220e+00    2.868481e+00
  8.688095e+00    2.854760e+00
  8.703971e+00    2.853779e+00
  8.719846e+00    2.815759e+00
  8.735722e+00    2.792875e+00
  8.751598e+00    2.804175e+00
  8.767473e+00    2.807822e+00
  8.783349e+00    2.826578e+00
  8.799224e+00    2.803221e+00
  8.815100e+00    2.825288e+00
  8.830975e+00    2.900437e+00
  8.846851e+00    2.848075e+00
  8.862727e+00    2.853718e+00
  8.878602e+00    2.797953e+00
  8.894478e+00    2.819018e+00
  8.910353e+00    2.747273e+00
  8.926229e+00    2.845834e+00
  8.942104e+00    2.869696e+00
  8.957980e+00    2.859607e+00
  8.973856e+00    2.851780e+00
  8.989731e+00    2.801793e+00
  9.005607e+00    2.774065e+00
  9.021482e+00    2.799561e+00
  9.037358e+00    2.743911e+00
  9.053233e+00    2.766798e+00
  9.069109e+00    2.804400e+00
  9.084985e+00    2.748976e+00
  9.100860e+00    2.762987e+00
  9.116736e+00    2.773859e+00
  9.132611e+00    2.767784e+00
  9.148487e+00    2.776998e+00
  9.164362e+00    2.761042e+00
  9.180238e+00    2.738508e+00
  9.196114e+00    2.766529e+00
  9.211989e+00    2.779856e+00
  9.227865e+00    2.760329e+00
  9.243740e+00    2.802222e+00
  9.259616e+00    2.774994e+00
  9.275491e+00    2.757099e+00
  9.291367e+00    2.753254e+00
  9.307243e+00    2.690649e+00
  9.323118e+00    2.726271e+00
  9.338994e+00    2.762519e+00
  9.354869e+00    2.766253e+00
  9.370745e+00    2.722130e+00
  9.386620e+00    2.725683e+00
  9.402496e+00    2.767914e+00
  9.418372e+00    2.741233e+00
  9.434247e+00    2.718287e+00
  9.450123e+00    2.724442e+00
  9.465998e+00    2.722911e+00
  9.481874e+00    2.739817e+00
  9.497749e+00    2.714405e+00
  9.513625e+00    2.756269e+00
  9.529501e+00    2.782425e+00
  9.545376e+00    2.769323e+00
  9.561252e+00    2.710050e+00
  9.577127e+00    2.724877e+00
  9.593003e+00    2.773661e+00
  9.608878e+00    2.764130e+00
  9.624754e+00    2.702328e+00
  9.640630e+00    2.726039e+00
  9.656505e+00    2.736334e+00
  9.672381e+00    2.748863e+00
  9.688256e+00    2.742641e+00
  9.704132e+00    2.686579e+00
  9.720008e+00    2.681046e+00
  9.735883e+00    2.693968e+00
  9.751759e+00    2.707967e+00
  9.767634e+00    2.671710e+00
  9.783510e+00    2.668435e+00
  9.799385e+00    2.652692e+00
  9.815261e+00    2.693940e+00
  9.831137e+00    2.688548e+00
  9.847012e+00    2.657550e+00
  9.862888e+00    2.677226e+00
  9.878763e+00    2.633089e+00
  9.894639e+00    2.625173e+00
  9.910514e+00    2.613264e+00
  9.926390e+00    2.684998e+00
  9.942266e+00    2.680116e+00
  9.958141e+00    2.643231e+00
  9.974017e+00    2.623048e+00
  9.989892e+00    2.656305e+00
  1.000577e+01    2.674500e+00
  1.002164e+01    2.666564e+00
  1.003752e+01    2.680792e+00
  1.005339e+01    2.707010e+00
  1.006927e+01    2.617554e+00
  1.008515e+01    2.650208e+00
  1.010102e+01    2.636647e+00
  1.011690e+01    2.615540e+00
  1.013277e+01    2.624668e+00
  1.014865e+01    2.605505e+00
  1.016452e+01    2.573745e+00
  1.018040e+01    2.553598e+00
  1.019627e+01    2.584845e+00
  1.021215e+01    2.603745e+00
  1.022803e+01    2.663131e+00
  1.024390e+01    2.649478e+00
  1.025978e+01    2.622028e+00
  1.027565e+01    2.569897e+00
  1.029153e+01    2.523693e+00
  1.030740e+01    2.566233e+00
  1.032328e+01    2.622826e+00
  1.033915e+01    2.599218e+00
  1.035503e+01    2.558936e+00
  1.037091e+01    2.588216e+00
  1.038678e+01    2.622669e+00
  1.040266e+01    2.582460e+00
  1.041853e+01    2.611140e+00
  1.043441e+01    2.600055e+00
  1.045028e+01    2.614730e+00
  1.046616e+01    2.587851e+00
  1.048204e+01    2.588747e+00
  1.049791e+01    2.591605e+00
  1.051379e+01    2.570728e+00
  1.052966e+01    2.530445e+00
  1.054554e+01    2.512726e+00
  1.056141e+01    2.538935e+00
  1.057729e+01    2.552274e+00
  1.059316e+01    2.551023e+00
  1.060904e+01    2.533028e+00
  1.062492e+01    2.540190e+00
  1.064079e+01    2.567105e+00
  1.065667e+01    2.558538e+00
  1.067254e+01    2.526617e+00
  1.068842e+01    2.494497e+00
  1.070429e+01    2.492890e+00
  1.072017e+01    2.575356e+00
  1.073604e+01    2.569938e+00
  1.075192e+01    2.510352e+00
  1.076780e+01    2.514377e+00
  1.078367e+01    2.543728e+00
  1.079955e+01    2.537504e+00
  1.081542e+01    2.555110e+00
  1.083130e+01    2.527617e+00
  1.084717e+01    2.553135e+00
  1.086305e+01    2.498778e+00
  1.087892e+01    2.460396e+00
  1.089480e+01    2.463121e+00
  1.091068e+01    2.438577e+00
  1.092655e+01    2.456705e+00
  1.094243e+01    2.419234e+00
  1.095830e+01    2.429308e+00
  1.097418e+01    2.435694e+00
  1.099005e+01    2.440988e+00
  1.100593e+01    2.461046e+00
  1.102180e+01    2.466102e+00
  1.103768e+01    2.461697e+00
  1.105356e+01    2.465811e+00
  1.106943e+01    2.463195e+00
  1.108531e+01    2.454850e+00
  1.110118e+01    2.442578e+00
  1.111706e+01    2.452658e+00
  1.113293e+01    2.452419e+00
  1.114881e+01    2.434235e+00
  1.116468e+01    2.452662e+00
  1.118056e+01    2.443246e+00
  1.119644e+01    2.464087e+00
  1.121231e+01    2.396950e+00
  1.122819e+01    2.394183e+00
  1.124406e+01    2.462542e+00
  1.125994e+01    2.440004e+00
  1.127581e+01    2.461630e+00
  1.129169e+01    2.438863e+00
  1.130756e+01    2.416139e+00
  1.132344e+01    2.393078e+00
  1.133932e+01    2.439390e+00
  1.135519e+01    2.423236e+00
  1.137107e+01    2.404188e+00
  1.138694e+01    2.430296e+00
  1.140282e+01    2.448575e+00
  1.141869e+01    2.410005e+00
  1.143457e+01    2.363057e+00
  1.145045e+01    2.365191e+00
  1.146632e+01    2.377649e+00
  1.148220e+01    2.375073e+00
  1.149807e+01    2.381533e+00
  1.151395e+01    2.396945e+00
  1.152982e+01    2.387540e+00
  1.154570e+01    2.392488e+00
  1.156157e+01    2.401022e+00
  1.157745e+01    2.411433e+00
  1.159333e+01    2.440625e+00
  1.160920e+01    2.402753e+00
  1.162508e+01    2.371645e+00
  1.164095e+01    2.359249e+00
  1.165683e+01    2.337445e+00
  1.167270e+01    2.325991e+00
  1.168858e+01    2.355053e+00
  1.170445e+01    2.355343e+00
  1.172033e+01    2.372308e+00
  1.173621e+01    2.354371e+00
  1.175208e+01    2.376147e+00
  1.176796e+01    2.358057e+00
  1.178383e+01    2.339008e+00
  1.179971e+01    2.347908e+00
  1.181558e+01    2.346422e+00
  1.183146e+01    2.365282e+00
  1.184733e+01    2.370603e+00
  1.186321e+01    2.370468e+00
  1.187909e+01    2.346777e+00
  1.189496e+01    2.306005e+00
  1.191084e+01    2.294998e+00
  1.192671e+01    2.282530e+00
  1.194259e+01    2.284221e+00
  1.195846e+01    2.295418e+00
  1.197434e+01    2.292743e+00
  1.199021e+01    2.255857e+00
  1.200609e+01    2.331096e+00
  1.202197e+01    2.342225e+00
  1.203784e+01    2.308197e+00
  1.205372e+01    2.309275e+00
  1.206959e+01    2.311321e+00
  1.208547e+01    2.330429e+00
  1.210134e+01    2.331712e+00
  1.211722e+01    2.267289e+00
  1.213309e+01    2.286517e+00
  1.214897e+01    2.260294e+00
  1.216485e+01    2.274947e+00
  1.218072e+01    2.289361e+00
  1.219660e+01    2.272086e+00
  1.221247e+01    2.317611e+00
  1.222835e+01    2.342767e+00
  1.224422e+01    2.302331e+00
  1.226010e+01    2.269538e+00
  1.227597e+01    2.245340e+00
  1.229185e+01    2.283768e+00
  1.230773e+01    2.342064e+00
  1.232360e+01    2.352104e+00
  1.233948e+01    2.322106e+00
  1.235535e+01    2.320868e+00
  1.237123e+01    2.343399e+00
  1.238710e+01    2.332063e+00
  1.240298e+01    2.311129e+00
  1.241886e+01    2.305457e+00
  1.243473e+01    2.348475e+00
  1.245061e+01    2.326204e+00
  1.246648e+01    2.256912e+00
  1.248236e+01    2.282551e+00
  1.249823e+01    2.318688e+00
  1.251411e+01    2.317592e+00
  1.252998e+01    2.351177e+00
  1.254586e+01    2.378811e+00
  1.256174e+01    2.366759e+00
  1.257761e+01    2.331650e+00
  1.259349e+01    2.347502e+00
  1.260936e+01    2.378682e+00
  1.262524e+01    2.363195e+00
  1.264111e+01    2.388319e+00
  1.265699e+01    2.399255e+00
  1.267286e+01    2.434858e+00
  1.268874e+01    2.420398e+00
  1.270462e+01    2.423230e+00
  1.272049e+01    2.442843e+00
  1.273637e+01    2.454337e+00
  1.275224e+01    2.524435e+00
  1.276812e+01    2.579984e+00
  1.278399e+01    2.579421e+00
  1.279987e+01    2.629366e+00
  1.281574e+01    2.650097e+00
  1.283162e+01    2.711490e+00
  1.284750e+01    2.828311e+00
  1.286337e+01    2.892344e+00
  1.287925e+01    3.038018e+00
  1.289512e+01    3.167630e+00
  1.291100e+01    3.249172e+00
  1.292687e+01    3.436442e+00
  1.294275e+01    3.651945e+00
  1.295862e+01    3.952958e+00
  1.297450e+01    4.334086e+00
  1.299038e+01    4.776781e+00
  1.300625e+01    5.319188e+00
  1.302213e+01    6.064645e+00
  1.303800e+01    6.998539e+00
  1.305388e+01    8.136860e+00
  1.306975e+01    9.458510e+00
  1.308563e+01    1.079381e+01
  1.310150e+01    1.208598e+01
  1.311738e+01    1.326898e+01
  1.313326e+01    1.450011e+01
  1.314913e+01    1.567846e+01
  1.316501e+01    1.668119e+01
  1.318088e+01    1.735522e+01
  1.319676e+01    1.713127e+01
  1.321263e+01    1.590750e+01
  1.322851e+01    1.422401e+01
  1.324438e+01    1.214725e+01
  1.326026e+01    1.019855e+01
  1.327614e+01    8.607868e+00
  1.329201e+01    7.321780e+00
  1.330789e+01    6.288360e+00
  1.332376e+01    5.495008e+00
  1.333964e+01    4.914939e+00
  1.335551e+01    4.416783e+00
  1.337139e+01    4.060836e+00
  1.338727e+01    3.714825e+00
  1.340314e+01    3.451226e+00
  1.341902e+01    3.197000e+00
  1.343489e+01    3.088025e+00
  1.345077e+01    2.987636e+00
  1.346664e+01    2.868590e+00
  1.348252e+01    2.794741e+00
  1.349839e+01    2.685344e+00
  1.351427e+01    2.619084e+00
  1.353015e+01    2.563147e+00
  1.354602e+01    2.526263e+00
  1.356190e+01    2.512163e+00
  1.357777e+01    2.480199e+00
  1.359365e+01    2.392227e+00
  1.360952e+01    2.360695e+00
  1.362540e+01    2.335038e+00
  1.364127e+01    2.344184e+00
  1.365715e+01    2.304096e+00
  1.367303e+01    2.265774e+00
  1.368890e+01    2.261587e+00
  1.370478e+01    2.224984e+00
  1.372065e+01    2.182353e+00
  1.373653e+01    2.190554e+00
  1.375240e+01    2.184961e+00
  1.376828e+01    2.177604e+00
  1.378415e+01    2.164426e+00
  1.380003e+01    2.124483e+00
  1.381591e+01    2.107077e+00
  1.383178e+01    2.097782e+00
  1.384766e+01    2.113417e+00
  1.386353e+01    2.136569e+00
  1.387941e+01    2.131860e+00
  1.389528e+01    2.103899e+00
  1.391116e+01    2.108842e+00
  1.392703e+01    2.097999e+00
  1.394291e+01    2.106158e+00
  1.395879e+01    2.075424e+00
  1.397466e+01    2.080877e+00
  1.399054e+01    2.048101e+00
  1.400641e+01    2.032601e+00
  1.402229e+01    1.994543e+00
  1.403816e+01    2.029685e+00
  1.405404e+01    2.050350e+00
  1.406991e+01    2.015214e+00
  1.408579e+01    2.035183e+00
  1.410167e+01    1.966200e+00
  1.411754e+01    1.964149e+00
  1.413342e+01    1.977732e+00
  1.414929e+01    1.980820e+00
  1.416517e+01    2.005651e+00
  1.418104e+01    1.982686e+00
  1.419692e+01    1.962621e+00
  1.421279e+01    1.975494e+00
  1.422867e+01    1.959600e+00
  1.424455e+01    1.920724e+00
  1.426042e+01    1.958622e+00
  1.427630e+01    1.967367e+00
  1.429217e+01    1.969394e+00
  1.430805e+01    1.969037e+00
  1.432392e+01    1.932863e+00
  1.433980e+01    1.920721e+00
  1.435568e+01    1.914056e+00
  1.437155e+01    1.923323e+00
  1.438743e+01    1.925006e+00
  1.440330e+01    1.903727e+00
  1.441918e+01    1.904535e+00
  1.443505e+01    1.940215e+00
  1.445093e+01    1.926783e+00
  1.446680e+01    1.934679e+00
  1.448268e+01    1.921378e+00
  1.449856e+01    1.928740e+00
  1.451443e+01    1.957483e+00
  1.453031e+01    1.931418e+00
  1.454618e+01    1.874775e+00
  1.456206e+01    1.879559e+00
  1.457793e+01    1.880015e+00
  1.459381e+01    1.883334e+00
  1.460968e+01    1.876863e+00
  1.462556e+01    1.891633e+00
  1.464144e+01    1.879130e+00
  1.465731e+01    1.905355e+00
  1.467319e+01    1.921758e+00
  1.468906e+01    1.914988e+00
  1.470494e+01    1.898889e+00
  1.472081e+01    1.888081e+00
  1.473669e+01    1.867470e+00
  1.475256e+01    1.881799e+00
  1.476844e+01    1.871503e+00
  1.478432e+01    1.865137e+00
  1.480019e+01    1.908996e+00
  1.481607e+01    1.922374e+00
  1.483194e+01    1.895248e+00
  1.484782e+01    1.878601e+00
  1.486369e+01    1.883165e+00
  1.487957e+01    1.909083e+00
  1.489544e+01    1.950797e+00
  1.491132e+01    1.983412e+00
  1.492720e+01    1.970145e+00
  1.494307e+01    1.986344e+00
  1.495895e+01    1.999798e+00
  1.497482e+01    2.044424e+00
  1.499070e+01    2.086593e+00
  1.500657e+01    2.167154e+00
  1.502245e+01    2.208738e+00
  1.503832e+01    2.300588e+00
  1.505420e+01    2.339886e+00
  1.507008e+01    2.484758e+00
  1.508595e+01    2.675459e+00
  1.510183e+01    2.858298e+00
  1.511770e+01    3.076505e+00
  1.513358e+01    3.430433e+00
  1.514945e+01    3.831795e+00
  1.516533e+01    4.165380e+00
  1.518120e+01    4.509248e+00
  1.519708e+01    4.861066e+00
  1.521296e+01    5.187643e+00
  1.522883e+01    5.505005e+00
  1.524471e+01    5.704949e+00
  1.526058e+01    5.833262e+00
  1.527646e+01    5.774757e+00
  1.529233e+01    5.666897e+00
  1.530821e+01    5.404434e+00
  1.532409e+01    4.927262e+00
  1.533996e+01    4.435573e+00
  1.535584e+01    3.946758e+00
  1.537171e+01    3.460151e+00
  1.538759e+01    3.103045e+00
  1.540346e+01    2.850675e+00
  1.541934e+01    2.697697e+00
  1.543521e+01    2.481598e+00
  1.545109e+01    2.321601e+00
  1.546697e+01    2.222748e+00
  1.548284e+01    2.150626e+00
  1.549872e+01    2.077695e+00
  1.551459e+01    1.991664e+00
  1.553047e+01    2.004961e+00
  1.554634e+01    1.960206e+00
  1.556222e+01    1.886630e+00
  1.557809e+01    1.873205e+00
  1.559397e+01    1.840975e+00
  1.560985e+01    1.824083e+00
  1.562572e+01    1.809900e+00
  1.564160e+01    1.784094e+00
  1.565747e+01    1.762071e+00
  1.567335e+01    1.763393e+00
  1.568922e+01    1.742114e+00
  1.570510e+01    1.713160e+00
  1.572097e+01    1.708165e+00
  1.573685e+01    1.670290e+00
  1.575273e+01    1.710194e+00
  1.576860e+01    1.665265e+00
  1.578448e+01    1.644714e+00
  1.580035e+01    1.702325e+00
  1.581623e+01    1.645646e+00
  1.583210e+01    1.647003e+00
  1.584798e+01    1.664632e+00
  1.586385e+01    1.633125e+00
  1.587973e+01    1.611568e+00
  1.589561e+01    1.659365e+00
  1.591148e+01    1.651867e+00
  1.592736e+01    1.609259e+00
  1.594323e+01    1.645227e+00
  1.595911e+01    1.634700e+00
  1.597498e+01    1.623204e+00
  1.599086e+01    1.641344e+00
  1.600673e+01    1.581924e+00
  1.602261e+01    1.590594e+00
  1.603849e+01    1.574115e+00
  1.605436e+01    1.562278e+00
  1.607024e+01    1.602443e+00
  1.608611e+01    1.596193e+00
  1.610199e+01    1.583967e+00
  1.611786e+01    1.572373e+00
  1.613374e+01    1.551396e+00
  1.614961e+01    1.548188e+00
  1.616549e+01    1.561812e+00
  1.618137e+01    1.558980e+00
  1.619724e+01    1.547614e+00
  1.621312e+01    1.558883e+00
  1.622899e+01    1.569621e+00
  1.624487e+01    1.570375e+00
  1.626074e+01    1.530389e+00
  1.627662e+01    1.550057e+00
  1.629250e+01    1.557674e+00
  1.630837e+01    1.528111e+00
  1.632425e+01    1.517182e+00
  1.634012e+01    1.488921e+00
  1.635600e+01    1.534885e+00
  1.637187e+01    1.532934e+00
  1.638775e+01    1.519499e+00
  1.640362e+01    1.503546e+00
  1.641950e+01    1.498831e+00
  1.643538e+01    1.498459e+00
  1.645125e+01    1.499019e+00
  1.646713e+01    1.532411e+00
  1.648300e+01    1.544237e+00
  1.649888e+01    1.504687e+00
  1.651475e+01    1.485148e+00
  1.653063e+01    1.501281e+00
  1.654650e+01    1.498041e+00
  1.656238e+01    1.490136e+00
  1.657826e+01    1.481469e+00
  1.659413e+01    1.495686e+00
  1.661001e+01    1.481032e+00
  1.662588e+01    1.470535e+00
  1.664176e+01    1.459264e+00
  1.665763e+01    1.508243e+00
  1.667351e+01    1.476606e+00
  1.668938e+01    1.458645e+00
  1.670526e+01    1.494002e+00
  1.672114e+01    1.456959e+00
  1.673701e+01    1.420667e+00
  1.675289e+01    1.429992e+00
  1.676876e+01    1.484025e+00
  1.678464e+01    1.485592e+00
  1.680051e+01    1.477190e+00
  1.681639e+01    1.456095e+00
  1.683226e+01    1.441734e+00
  1.684814e+01    1.455577e+00
  1.686402e+01    1.460410e+00
  1.687989e+01    1.474731e+00
  1.689577e+01    1.462969e+00
  1.691164e+01    1.462035e+00
  1.692752e+01    1.423706e+00
  1.694339e+01    1.433843e+00
  1.695927e+01    1.448099e+00
  1.697514e+01    1.441396e+00
  1.699102e+01    1.415813e+00
  1.700690e+01    1.431639e+00
  1.702277e+01    1.420188e+00
  1.703865e+01    1.397840e+00
  1.705452e+01    1.428514e+00
  1.707040e+01    1.423768e+00
  1.708627e+01    1.412033e+00
  1.710215e+01    1.428401e+00
  1.711802e+01    1.411771e+00
  1.713390e+01    1.401074e+00
  1.714978e+01    1.398958e+00
  1.716565e+01    1.394275e+00
  1.718153e+01    1.386030e+00
  1.719740e+01    1.400426e+00
  1.721328e+01    1.392595e+00
  1.722915e+01    1.395288e+00
  1.724503e+01    1.384951e+00
  1.726091e+01    1.406375e+00
  1.727678e+01    1.374583e+00
  1.729266e+01    1.369425e+00
  1.730853e+01    1.375991e+00
  1.732441e+01    1.376311e+00
  1.734028e+01    1.385794e+00
  1.735616e+01    1.379278e+00
  1.737203e+01    1.352583e+00
  1.738791e+01    1.375326e+00
  1.740379e+01    1.359018e+00
  1.741966e+01    1.399825e+00
  1.743554e+01    1.370196e+00
  1.745141e+01    1.357696e+00
  1.746729e+01    1.337720e+00
  1.748316e+01    1.358824e+00
  1.749904e+01    1.372548e+00
  1.751491e+01    1.345599e+00
  1.753079e+01    1.355735e+00
  1.754667e+01    1.352671e+00
  1.756254e+01    1.359777e+00
  1.757842e+01    1.346797e+00
  1.759429e+01    1.350943e+00
  1.761017e+01    1.384177e+00
  1.762604e+01    1.377031e+00
  1.764192e+01    1.341790e+00
  1.765779e+01    1.309183e+00
  1.767367e+01    1.327476e+00
  1.768955e+01    1.328658e+00
  1.770542e+01    1.320226e+00
  1.772130e+01    1.318112e+00
  1.773717e+01    1.317702e+00
  1.775305e+01    1.302684e+00
  1.776892e+01    1.305022e+00
  1.778480e+01    1.317105e+00
  1.780067e+01    1.319311e+00
  1.781655e+01    1.321155e+00
  1.783243e+01    1.316690e+00
  1.784830e+01    1.337142e+00
  1.786418e+01    1.347538e+00
  1.788005e+01    1.309536e+00
  1.789593e+01    1.292586e+00
  1.791180e+01    1.305432e+00
  1.792768e+01    1.340011e+00
  1.794355e+01    1.294747e+00
  1.795943e+01    1.289707e+00
  1.797531e+01    1.297495e+00
  1.799118e+01    1.296419e+00
  1.800706e+01    1.273752e+00
  1.802293e+01    1.292122e+00
  1.803881e+01    1.309293e+00
  1.805468e+01    1.299491e+00
  1.807056e+01    1.286809e+00
  1.808643e+01    1.264428e+00
  1.810231e+01    1.269794e+00
  1.811819e+01    1.252206e+00
  1.813406e+01    1.273763e+00
  1.814994e+01    1.281220e+00
  1.816581e+01    1.273214e+00
  1.818169e+01    1.270768e+00
  1.819756e+01    1.275069e+00
  1.821344e+01    1.249635e+00
  1.822932e+01    1.230207e+00
  1.824519e+01    1.281700e+00
  1.826107e+01    1.268022e+00
  1.827694e+01    1.260541e+00
  1.829282e+01    1.265860e+00
  1.830869e+01    1.259708e+00
  1.832457e+01    1.253356e+00
  1.834044e+01    1.250748e+00
  1.835632e+01    1.254282e+00
  1.837220e+01    1.241364e+00
  1.838807e+01    1.277334e+00
  1.840395e+01    1.264393e+00
  1.841982e+01    1.248284e+00
  1.843570e+01    1.228738e+00
  1.845157e+01    1.242552e+00
  1.846745e+01    1.248647e+00
  1.848332e+01    1.232595e+00
  1.849920e+01    1.230895e+00
  1.851508e+01    1.242209e+00
  1.853095e+01    1.230730e+00
  1.854683e+01    1.242519e+00
  1.856270e+01    1.205137e+00
  1.857858e+01    1.200813e+00
  1.859445e+01    1.219710e+00
  1.861033e+01    1.211206e+00
  1.862620e+01    1.192447e+00
  1.864208e+01    1.223694e+00
  1.865796e+01    1.230051e+00
  1.867383e+01    1.225419e+00
  1.868971e+01    1.205854e+00
  1.870558e+01    1.215453e+00
  1.872146e+01    1.239805e+00
  1.873733e+01    1.234077e+00
  1.875321e+01    1.248985e+00
  1.876908e+01    1.221838e+00
  1.878496e+01    1.224210e+00
  1.880084e+01    1.226995e+00
  1.881671e+01    1.218693e+00
  1.883259e+01    1.197092e+00
  1.884846e+01    1.192294e+00
  1.886434e+01    1.209486e+00
  1.888021e+01    1.199833e+00
  1.889609e+01    1.202653e+00
  1.891196e+01    1.200712e+00
  1.892784e+01    1.193625e+00
  1.894372e+01    1.192139e+00
  1.895959e+01    1.197149e+00
  1.897547e+01    1.199004e+00
  1.899134e+01    1.204078e+00
  1.900722e+01    1.197523e+00
  1.902309e+01    1.161108e+00
  1.903897e+01    1.180972e+00
  1.905484e+01    1.202814e+00
  1.907072e+01    1.205403e+00
  1.908660e+01    1.194043e+00
  1.910247e+01    1.178547e+00
  1.911835e+01    1.202261e+00
  1.913422e+01    1.191768e+00
  1.915010e+01    1.181869e+00
  1.916597e+01    1.190550e+00
  1.918185e+01    1.156808e+00
  1.919773e+01    1.170455e+00
  1.921360e+01    1.182440e+00
  1.922948e+01    1.208309e+00
  1.924535e+01    1.171837e+00
  1.926123e+01    1.163693e+00
  1.927710e+01    1.168674e+00
  1.929298e+01    1.181591e+00
  1.930885e+01    1.181885e+00
  1.932473e+01    1.166415e+00
  1.934061e+01    1.163295e+00
  1.935648e+01    1.165348e+00
  1.937236e+01    1.142563e+00
  1.938823e+01    1.152155e+00
  1.940411e+01    1.138962e+00
  1.941998e+01    1.162677e+00
  1.943586e+01    1.137597e+00
  1.945173e+01    1.154027e+00
  1.946761e+01    1.161907e+00
  1.948349e+01    1.139798e+00
  1.949936e+01    1.165212e+00
  1.951524e+01    1.157950e+00
  1.953111e+01    1.140544e+00
  1.954699e+01    1.151233e+00
  1.956286e+01    1.140836e+00
  1.957874e+01    1.121971e+00
  1.959461e+01    1.135813e+00
  1.961049e+01    1.135772e+00
  1.962637e+01    1.128659e+00
  1.964224e+01    1.116444e+00
  1.965812e+01    1.152133e+00
  1.967399e+01    1.144243e+00
  1.968987e+01    1.127899e+00
  1.970574e+01    1.105920e+00
  1.972162e+01    1.137063e+00
  1.973749e+01    1.131962e+00
  1.975337e+01    1.111422e+00
  1.976925e+01    1.133050e+00
  1.978512e+01    1.133325e+00
  1.980100e+01    1.142028e+00
  1.981687e+01    1.150473e+00
  1.983275e+01    1.125281e+00
  1.984862e+01    1.121045e+00
  1.986450e+01    1.117039e+00
  1.988037e+01    1.113409e+00
  1.989625e+01    1.105376e+00
  1.991213e+01    1.092682e+00
  1.992800e+01    1.124456e+00
  1.994388e+01    1.121894e+00
  1.995975e+01    1.117964e+00
  1.997563e+01    1.116094e+00
  1.999150e+01    1.141279e+00
  2.000738e+01    1.124355e+00
  2.002325e+01    1.117897e+00
  2.003913e+01    1.100814e+00
  2.005501e+01    1.129956e+00
  2.007088e+01    1.148170e+00
  2.008676e+01    1.122824e+00
  2.010263e+01    1.109564e+00
  2.011851e+01    1.104784e+00
  2.013438e+01    1.087720e+00
  2.015026e+01    1.087759e+00
  2.016614e+01    1.088172e+00
  2.018201e+01    1.091548e+00
  2.019789e+01    1.086491e+00
  2.021376e+01    1.122415e+00
  2.022964e+01    1.105471e+00
  2.024551e+01    1.083230e+00
  2.026139e+01    1.101637e+00
  2.027726e+01    1.090123e+00
  2.029314e+01    1.073443e+00
  2.030902e+01    1.087519e+00
  2.032489e+01    1.088106e+00
  2.034077e+01    1.086661e+00
  2.035664e+01    1.091992e+00
  2.037252e+01    1.082989e+00
  2.038839e+01    1.098960e+00
  2.040427e+01    1.090482e+00
  2.042014e+01    1.066951e+00
  2.043602e+01    1.071148e+00
  2.045190e+01    1.084972e+00
  2.046777e+01    1.077933e+00
  2.048365e+01    1.085047e+00
  2.049952e+01    1.077214e+00
  2.051540e+01    1.089308e+00
  2.053127e+01    1.081632e+00
  2.054715e+01    1.077796e+00
  2.056302e+01    1.068922e+00
  2.057890e+01    1.070544e+00
  2.059478e+01    1.077293e+00
  2.061065e+01    1.066950e+00
  2.062653e+01    1.071190e+00
  2.064240e+01    1.055841e+00
  2.065828e+01    1.045942e+00
  2.067415e+01    1.067142e+00
  2.069003e+01    1.077695e+00
  2.070590e+01    1.081264e+00
  2.072178e+01    1.066988e+00
  2.073766e+01    1.065693e+00
  2.075353e+01    1.068892e+00
  2.076941e+01    1.074929e+00
  2.078528e+01    1.066327e+00
  2.080116e+01    1.079612e+00
  2.081703e+01    1.084394e+00
  2.083291e+01    1.070450e+00
  2.084878e+01    1.066291e+00
  2.086466e+01    1.062376e+00
  2.088054e+01    1.079867e+00
  2.089641e+01    1.071940e+00
  2.091229e+01    1.068842e+00
  2.092816e+01    1.074138e+00
  2.094404e+01    1.085181e+00
  2.095991e+01    1.082978e+00
  2.097579e+01    1.069183e+00
  2.099166e+01    1.087094e+00
  2.100754e+01    1.082332e+00
  2.102342e+01    1.090876e+00
  2.103929e+01    1.100680e+00
  2.105517e+01    1.086333e+00
  2.107104e+01    1.068848e+00
  2.108692e+01    1.051139e+00
  2.110279e+01    1.071080e+00
  2.111867e+01    1.080429e+00
  2.113455e+01    1.097831e+00
  2.115042e+01    1.117166e+00
  2.116630e+01    1.077955e+00
  2.118217e+01    1.072294e+00
  2.119805e+01    1.077737e+00
  2.121392e+01    1.103457e+00
  2.122980e+01    1.108354e+00
  2.124567e+01    1.100134e+00
  2.126155e+01    1.081012e+00
  2.127743e+01    1.068214e+00
  2.129330e+01    1.086292e+00
  2.130918e+01    1.124401e+00
  2.132505e+01    1.148155e+00
  2.134093e+01    1.126333e+00
  2.135680e+01    1.117732e+00
  2.137268e+01    1.136146e+00
  2.138855e+01    1.139710e+00
  2.140443e+01    1.161319e+00
  2.142031e+01    1.178625e+00
  2.143618e+01    1.175687e+00
  2.145206e+01    1.202002e+00
  2.146793e+01    1.215795e+00
  2.148381e+01    1.222334e+00
  2.149968e+01    1.247038e+00
  2.151556e+01    1.297158e+00
  2.153143e+01    1.316684e+00
  2.154731e+01    1.365034e+00
  2.156319e+01    1.428158e+00
  2.157906e+01    1.473765e+00
  2.159494e+01    1.506056e+00
  2.161081e+01    1.588750e+00
  2.162669e+01    1.691834e+00
  2.164256e+01    1.773990e+00
  2.165844e+01    1.889456e+00
  2.167431e+01    2.083629e+00
  2.169019e+01    2.253989e+00
  2.170607e+01    2.504543e+00
  2.172194e+01    2.810433e+00
  2.173782e+01    3.193242e+00
  2.175369e+01    3.618652e+00
  2.176957e+01    4.103212e+00
  2.178544e+01    4.718073e+00
  2.180132e+01    5.374934e+00
  2.181719e+01    6.086640e+00
  2.183307e+01    6.864355e+00
  2.184895e+01    7.549113e+00
  2.186482e+01    8.221582e+00
  2.188070e+01    8.870868e+00
  2.189657e+01    9.337274e+00
  2.191245e+01    9.462505e+00
  2.192832e+01    9.244386e+00
  2.194420e+01    8.523549e+00
  2.196007e+01    7.603775e+00
  2.197595e+01    6.586484e+00
  2.199183e+01    5.613917e+00
  2.200770e+01    4.751442e+00
  2.202358e+01    4.007010e+00
  2.203945e+01    3.464207e+00
  2.205533e+01    3.075151e+00
  2.207120e+01    2.720947e+00
  2.208708e+01    2.435419e+00
  2.210296e+01    2.193078e+00
  2.211883e+01    2.003961e+00
  2.213471e+01    1.860024e+00
  2.215058e+01    1.722817e+00
  2.216646e+01    1.633115e+00
  2.218233e+01    1.544451e+00
  2.219821e+01    1.467103e+00
  2.221408e+01    1.406036e+00
  2.222996e+01    1.357853e+00
  2.224584e+01    1.315689e+00
  2.226171e+01    1.270944e+00
  2.227759e+01    1.220283e+00
  2.229346e+01    1.210232e+00
  2.230934e+01    1.211899e+00
  2.232521e+01    1.175470e+00
  2.234109e+01    1.143820e+00
  2.235696e+01    1.098841e+00
  2.237284e+01    1.097010e+00
  2.238872e+01    1.081309e+00
  2.240459e+01    1.078151e+00
  2.242047e+01    1.052950e+00
  2.243634e+01    1.053518e+00
  2.245222e+01    1.043640e+00
  2.246809e+01    1.028803e+00
  2.248397e+01    1.019997e+00
  2.249984e+01    1.014670e+00
  2.251572e+01    1.002947e+00
  2.253160e+01    9.959776e-01
  2.254747e+01    9.905929e-01
  2.256335e+01    9.749461e-01
  2.257922e+01    9.917993e-01
  2.259510e+01    9.959763e-01
  2.261097e+01    9.665805e-01
  2.262685e+01    9.656699e-01
  2.264272e+01    9.810868e-01
  2.265860e+01    9.703462e-01
  2.267448e+01    9.713069e-01
  2.269035e+01    9.403843e-01
  2.270623e+01    9.253989e-01
  2.272210e+01    9.248790e-01
  2.273798e+01    9.308376e-01
  2.275385e+01    9.360547e-01
  2.276973e+01    9.362082e-01
  2.278560e+01    9.463661e-01
  2.280148e+01    9.351090e-01
  2.281736e+01    9.161609e-01
  2.283323e+01    9.152503e-01
  2.284911e+01    9.154226e-01
  2.286498e+01    9.055972e-01
  2.288086e+01    8.971602e-01
  2.289673e+01    9.196607e-01
  2.291261e+01    9.055789e-01
  2.292848e+01    9.055408e-01
  2.294436e+01    8.998971e-01
  2.296024e+01    8.827224e-01
  2.297611e+01    9.130749e-01
  2.299199e+01    8.942390e-01
  2.300786e+01    8.863364e-01
  2.302374e+01    8.918833e-01
  2.303961e+01    8.916281e-01
  2.305549e+01    8.811755e-01
  2.307137e+01    8.828152e-01
  2.308724e+01    8.889918e-01
  2.310312e+01    8.723570e-01
  2.311899e+01    8.908588e-01
  2.313487e+01    8.976539e-01
  2.315074e+01    9.002757e-01
  2.316662e+01    8.664308e-01
  2.318249e+01    8.590390e-01
  2.319837e+01    8.520231e-01
  2.321425e+01    8.676612e-01
  2.323012e+01    8.833206e-01
  2.324600e+01    8.533563e-01
  2.326187e+01    8.518818e-01
  2.327775e+01    8.448899e-01
  2.329362e+01    8.381898e-01
  2.330950e+01    8.590419e-01
  2.332537e+01    8.564702e-01
  2.334125e+01    8.597169e-01
  2.335713e+01    8.530367e-01
  2.337300e+01    8.462920e-01
  2.338888e+01    8.390974e-01
  2.340475e+01    8.681359e-01
  2.342063e+01    8.643584e-01
  2.343650e+01    8.428017e-01
  2.345238e+01    8.381679e-01
  2.346825e+01    8.399057e-01
  2.348413e+01    8.376845e-01
  2.350001e+01    8.332205e-01
  2.351588e+01    8.474551e-01
  2.353176e+01    8.331844e-01
  2.354763e+01    8.510967e-01
  2.356351e+01    8.514138e-01
  2.357938e+01    8.533406e-01
  2.359526e+01    8.384829e-01
  2.361113e+01    8.502275e-01
  2.362701e+01    8.596086e-01
  2.364289e+01    8.346983e-01
  2.365876e+01    8.277797e-01
  2.367464e+01    8.332285e-01
  2.369051e+01    8.263275e-01
  2.370639e+01    8.184153e-01
  2.372226e+01    8.293034e-01
  2.373814e+01    8.232027e-01
  2.375401e+01    8.148591e-01
  2.376989e+01    8.053851e-01
  2.378577e+01    8.174136e-01
  2.380164e+01    8.048301e-01
  2.381752e+01    8.018711e-01
  2.383339e+01    7.866874e-01
  2.384927e+01    7.898761e-01
  2.386514e+01    7.919082e-01
  2.388102e+01    7.813054e-01
  2.389689e+01    7.960663e-01
  2.391277e+01    7.874981e-01
  2.392865e+01    8.044671e-01
  2.394452e+01    7.834196e-01
  2.396040e+01    7.753624e-01
  2.397627e+01    8.065933e-01
  2.399215e+01    8.114195e-01
  2.400802e+01    7.912867e-01
  2.402390e+01    7.883250e-01
  2.403978e+01    7.947044e-01
  2.405565e+01    7.957833e-01
  2.407153e+01    7.590320e-01
  2.408740e+01    7.544960e-01
  2.410328e+01    7.879036e-01
  2.411915e+01    7.690657e-01
  2.413503e+01    7.666270e-01
  2.415090e+01    7.835977e-01
  2.416678e+01    7.786925e-01
  2.418266e+01    7.927098e-01
  2.419853e+01    7.832143e-01
  2.421441e+01    7.734696e-01
  2.423028e+01    7.511222e-01
  2.424616e+01    7.772502e-01
  2.426203e+01    7.900818e-01
  2.427791e+01    7.892491e-01
  2.429378e+01    7.752383e-01
  2.430966e+01    7.685921e-01
  2.432554e+01    7.994660e-01
  2.434141e+01    7.923170e-01
  2.435729e+01    7.944115e-01
  2.437316e+01    7.696556e-01
  2.438904e+01    7.773399e-01
  2.440491e+01    7.864679e-01
  2.442079e+01    7.901790e-01
  2.443666e+01    7.885705e-01
  2.445254e+01    7.883803e-01
  2.446842e+01    7.674803e-01
  2.448429e+01    7.686019e-01
  2.450017e+01    7.846880e-01
  2.451604e+01    7.841504e-01
  2.453192e+01    7.786415e-01
  2.454779e+01    8.006496e-01
  2.456367e+01    7.931027e-01
  2.457954e+01    7.812133e-01
  2.459542e+01    7.849491e-01
  2.461130e+01    7.786782e-01
  2.462717e+01    7.742025e-01
  2.464305e+01    7.863044e-01
  2.465892e+01    7.986711e-01
  2.467480e+01    7.756832e-01
  2.469067e+01    7.767144e-01
  2.470655e+01    7.847390e-01
  2.472242e+01    8.000262e-01
  2.473830e+01    8.112963e-01
  2.475418e+01    7.869565e-01
  2.477005e+01    7.613656e-01
  2.478593e+01    7.735005e-01
  2.480180e+01    8.111861e-01
  2.481768e+01    7.973509e-01
  2.483355e+01    7.889863e-01
  2.484943e+01    7.710379e-01
  2.486530e+01    7.791933e-01
  2.488118e+01    7.965904e-01
  2.489706e+01    7.925423e-01
  2.491293e+01    7.974376e-01
  2.492881e+01    7.973814e-01
  2.494468e+01    8.013061e-01
  2.496056e+01    7.985123e-01
  2.497643e+01    7.953301e-01
  2.499231e+01    8.031186e-01
  2.500819e+01    8.053696e-01
  2.502406e+01    7.913970e-01
  2.503994e+01    8.151643e-01
  2.505581e+01    8.281605e-01
  2.507169e+01    8.124909e-01
  2.508756e+01    7.927961e-01
  2.510344e+01    7.982199e-01
  2.511931e+01    8.133236e-01
  2.513519e+01    8.174240e-01
  2.515107e+01    8.302934e-01
  2.516694e+01    8.318279e-01
  2.518282e+01    8.277608e-01
  2.519869e+01    8.169873e-01
  2.521457e+01    8.295150e-01
  2.523044e+01    8.456265e-01
  2.524632e+01    8.430085e-01
  2.526219e+01    8.382636e-01
  2.527807e+01    8.226081e-01
  2.529395e+01    8.425456e-01
  2.530982e+01    8.667397e-01
  2.532570e+01    8.605366e-01
  2.534157e+01    8.517379e-01
  2.535745e+01    8.611086e-01
  2.537332e+01    8.804640e-01
  2.538920e+01    9.152328e-01
  2.540507e+01    8.975936e-01
  2.542095e+01    9.053634e-01
  2.543683e+01    9.022794e-01
  2.545270e+01    9.128760e-01
  2.546858e+01    9.245487e-01
  2.548445e+01    9.443065e-01
  2.550033e+01    9.674879e-01
  2.551620e+01    9.747860e-01
  2.553208e+01    1.004524e+00
  2.554795e+01    1.063318e+00
  2.556383e+01    1.049562e+00
  2.557971e+01    1.074829e+00
  2.559558e+01    1.085920e+00
  2.561146e+01    1.141154e+00
  2.562733e+01    1.171675e+00
  2.564321e+01    1.213593e+00
  2.565908e+01    1.224061e+00
  2.567496e+01    1.286390e+00
  2.569083e+01    1.409592e+00
  2.570671e+01    1.475333e+00
  2.572259e+01    1.540867e+00
  2.573846e+01    1.659715e+00
  2.575434e+01    1.836056e+00
  2.577021e+01    1.990999e+00
  2.578609e+01    2.244108e+00
  2.580196e+01    2.535357e+00
  2.581784e+01    2.841089e+00
  2.583371e+01    3.272553e+00
  2.584959e+01    3.782320e+00
  2.586547e+01    4.327821e+00
  2.588134e+01    4.909685e+00
  2.589722e+01    5.564856e+00
  2.591309e+01    6.194231e+00
  2.592897e+01    6.779064e+00
  2.594484e+01    7.328175e+00
  2.596072e+01    7.688113e+00
  2.597660e+01    7.743796e+00
  2.599247e+01    7.542247e+00
  2.600835e+01    7.149012e+00
  2.602422e+01    6.423470e+00
  2.604010e+01    5.619613e+00
  2.605597e+01    4.860364e+00
  2.607185e+01    4.144239e+00
  2.608772e+01    3.544524e+00
  2.610360e+01    3.083232e+00
  2.611948e+01    2.654269e+00
  2.613535e+01    2.338937e+00
  2.615123e+01    2.125412e+00
  2.616710e+01    1.930095e+00
  2.618298e+01    1.760090e+00
  2.619885e+01    1.632659e+00
  2.621473e+01    1.494040e+00
  2.623060e+01    1.426215e+00
  2.624648e+01    1.352297e+00
  2.626236e+01    1.298927e+00
  2.627823e+01    1.245410e+00
  2.629411e+01    1.182731e+00
  2.630998e+01    1.147319e+00
  2.632586e+01    1.113326e+00
  2.634173e+01    1.084816e+00
  2.635761e+01    1.051591e+00
  2.637348e+01    1.036963e+00
  2.638936e+01    1.034895e+00
  2.640524e+01    1.013074e+00
  2.642111e+01    9.746135e-01
  2.643699e+01    9.613428e-01
  2.645286e+01    9.500318e-01
  2.646874e+01    9.751722e-01
  2.648461e+01    9.509441e-01
  2.650049e+01    9.303568e-01
  2.651636e+01    9.406486e-01
  2.653224e+01    9.274122e-01
  2.654812e+01    9.142892e-01
  2.656399e+01    9.211389e-01
  2.657987e+01    9.263971e-01
  2.659574e+01    9.178321e-01
  2.661162e+01    8.959978e-01
  2.662749e+01    8.938961e-01
  2.664337e+01    8.814921e-01
  2.665924e+01    8.834915e-01
  2.667512e+01    9.082130e-01
  2.669100e+01    8.738613e-01
  2.670687e+01    8.879303e-01
  2.672275e+01    9.019224e-01
  2.673862e+01    9.099048e-01
  2.675450e+01    8.871632e-01
  2.677037e+01    8.826262e-01
  2.678625e+01    9.039847e-01
  2.680212e+01    8.811900e-01
  2.681800e+01    8.843205e-01
  2.683388e+01    8.763106e-01
  2.684975e+01    8.922002e-01
  2.686563e+01    9.092488e-01
  2.688150e+01    9.147014e-01
  2.689738e+01    9.211417e-01
  2.691325e+01    9.233876e-01
  2.692913e+01    9.260119e-01
  2.694501e+01    9.280791e-01
  2.696088e+01    9.635355e-01
  2.697676e+01    9.988180e-01
  2.699263e+01    1.015815e+00
  2.700851e+01    1.005007e+00
  2.702438e+01    1.054862e+00
  2.704026e+01    1.094919e+00
  2.705613e+01    1.133623e+00
  2.707201e+01    1.194861e+00
  2.708789e+01    1.255264e+00
  2.710376e+01    1.340617e+00
  2.711964e+01    1.412095e+00
  2.713551e+01    1.562556e+00
  2.715139e+01    1.695085e+00
  2.716726e+01    1.880101e+00
  2.718314e+01    2.008759e+00
  2.719901e+01    2.134225e+00
  2.721489e+01    2.239712e+00
  2.723077e+01    2.304604e+00
  2.724664e+01    2.243054e+00
  2.726252e+01    2.181983e+00
  2.727839e+01    2.049777e+00
  2.729427e+01    1.920744e+00
  2.731014e+01    1.765753e+00
  2.732602e+01    1.590131e+00
  2.734189e+01    1.438808e+00
  2.735777e+01    1.340557e+00
  2.737365e+01    1.235106e+00
  2.738952e+01    1.164437e+00
  2.740540e+01    1.144230e+00
  2.742127e+01    1.080240e+00
  2.743715e+01    1.024914e+00
  2.745302e+01    1.004661e+00
  2.746890e+01    9.621764e-01
  2.748477e+01    9.400426e-01
  2.750065e+01    9.284009e-01
  2.751653e+01    9.242265e-01
  2.753240e+01    9.189849e-01
  2.754828e+01    8.857619e-01
  2.756415e+01    8.859497e-01
  2.758003e+01    8.684648e-01
  2.759590e+01    8.612151e-01
  2.761178e+01    8.609760e-01
  2.762765e+01    8.390680e-01
  2.764353e+01    8.410237e-01
  2.765941e+01    8.245249e-01
  2.767528e+01    8.092324e-01
  2.769116e+01    8.199983e-01
  2.770703e+01    8.432809e-01
  2.772291e+01    8.285759e-01
  2.773878e+01    8.097432e-01
  2.775466e+01    8.149419e-01
  2.777054e+01    8.195554e-01
  2.778641e+01    8.033856e-01
  2.780229e+01    7.985913e-01
  2.781816e+01    8.038356e-01
  2.783404e+01    8.057827e-01
  2.784991e+01    7.885625e-01
  2.786579e+01    7.857550e-01
  2.788166e+01    7.708501e-01
  2.789754e+01    7.934164e-01
  2.791342e+01    7.889798e-01
  2.792929e+01    7.615915e-01
  2.794517e+01    7.734717e-01
  2.796104e+01    7.826495e-01
  2.797692e+01    7.908666e-01
  2.799279e+01    7.874053e-01
  2.800867e+01    7.893957e-01
  2.802454e+01    7.889022e-01
  2.804042e+01    7.905334e-01
  2.805630e+01    7.979746e-01
  2.807217e+01    7.970148e-01
  2.808805e+01    7.642344e-01
  2.810392e+01    7.770865e-01
  2.811980e+01    7.689255e-01
  2.813567e+01    7.771170e-01
  2.815155e+01    7.693015e-01
  2.816742e+01    7.802516e-01
  2.818330e+01    7.901871e-01
  2.819918e+01    7.572935e-01
  2.821505e+01    7.783616e-01
  2.823093e+01    7.894841e-01
  2.824680e+01    7.615258e-01
  2.826268e+01    7.469749e-01
  2.827855e+01    7.676078e-01
  2.829443e+01    7.604049e-01
  2.831030e+01    7.638313e-01
  2.832618e+01    7.670572e-01
  2.834206e+01    7.619264e-01
  2.835793e+01    7.561955e-01
  2.837381e+01    7.648765e-01
  2.838968e+01    7.517645e-01
  2.840556e+01    7.383024e-01
  2.842143e+01    7.562917e-01
  2.843731e+01    7.696757e-01
  2.845318e+01    7.610044e-01
  2.846906e+01    7.570379e-01
  2.848494e+01    7.525885e-01
  2.850081e+01    7.522072e-01
  2.851669e+01    7.424185e-01
  2.853256e+01    7.646147e-01
  2.854844e+01    7.599215e-01
  2.856431e+01    7.461314e-01
  2.858019e+01    7.388933e-01
  2.859606e+01    7.231424e-01
  2.861194e+01    7.373266e-01
  2.862782e+01    7.470997e-01
  2.864369e+01    7.364117e-01
  2.865957e+01    7.313936e-01
  2.867544e+01    7.330009e-01
  2.869132e+01    7.484823e-01
  2.870719e+01    7.471244e-01
  2.872307e+01    7.501600e-01
  2.873895e+01    7.703506e-01
  2.875482e+01    7.442259e-01
  2.877070e+01    7.151015e-01
  2.878657e+01    7.379407e-01
  2.880245e+01    7.434162e-01
  2.881832e+01    7.404831e-01
  2.883420e+01    7.469249e-01
  2.885007e+01    7.300540e-01
  2.886595e+01    7.407368e-01
  2.888183e+01    7.365465e-01
  2.889770e+01    7.394356e-01
  2.891358e+01    7.454216e-01
  2.892945e+01    7.412822e-01
  2.894533e+01    7.265257e-01
  2.896120e+01    7.257583e-01
  2.897708e+01    7.195657e-01
  2.899295e+01    7.411792e-01
  2.900883e+01    7.474037e-01
  2.902471e+01    7.336889e-01
  2.904058e+01    7.321563e-01
  2.905646e+01    7.437158e-01
  2.907233e+01    7.501342e-01
  2.908821e+01    7.540270e-01
  2.910408e+01    7.287443e-01
  2.911996e+01    7.283215e-01
  2.913583e+01    7.266771e-01
  2.915171e+01    7.216983e-01
  2.916759e+01    7.307948e-01
  2.918346e+01    7.398356e-01
  2.919934e+01    7.348013e-01
  2.921521e+01    7.238861e-01
  2.923109e+01    7.301180e-01
  2.924696e+01    7.241574e-01
  2.926284e+01    7.257413e-01
  2.927871e+01    7.154449e-01
  2.929459e+01    7.233865e-01
  2.931047e+01    7.413552e-01
  2.932634e+01    7.256812e-01
  2.934222e+01    7.126464e-01
  2.935809e+01    7.145946e-01
  2.937397e+01    7.310672e-01
  2.938984e+01    7.287441e-01
  2.940572e+01    7.088405e-01
  2.942159e+01    7.336081e-01
  2.943747e+01    7.288556e-01
  2.945335e+01    7.248365e-01
  2.946922e+01    7.116320e-01
  2.948510e+01    7.216845e-01
  2.950097e+01    7.261970e-01
  2.951685e+01    7.294619e-01
  2.953272e+01    7.180405e-01
  2.954860e+01    7.201220e-01
  2.956447e+01    7.186681e-01
  2.958035e+01    7.153488e-01
  2.959623e+01    7.277016e-01
  2.961210e+01    7.342806e-01
  2.962798e+01    7.118263e-01
  2.964385e+01    7.036518e-01
  2.965973e+01    7.056043e-01
  2.967560e+01    7.198343e-01
  2.969148e+01    7.172412e-01
  2.970736e+01    7.089247e-01
  2.972323e+01    7.145279e-01
  2.973911e+01    7.239546e-01
  2.975498e+01    7.089651e-01
  2.977086e+01    7.109644e-01
  2.978673e+01    7.248750e-01
  2.980261e+01    7.004061e-01
  2.981848e+01    6.921419e-01
  2.983436e+01    6.913898e-01
  2.985024e+01    7.156506e-01
  2.986611e+01    7.087778e-01
  2.988199e+01    7.191348e-01
  2.989786e+01    7.184330e-01
  2.991374e+01    7.246242e-01
  2.992961e+01    7.116892e-01
  2.994549e+01    7.000248e-01
  2.996136e+01    7.071055e-01
  2.997724e+01    7.158648e-01
  2.999312e+01    7.138053e-01
  3.000899e+01    7.164881e-01
  3.002487e+01    7.253426e-01
  3.004074e+01    7.132125e-01
  3.005662e+01    7.200091e-01
  3.007249e+01    7.332454e-01
  3.008837e+01    7.408254e-01
  3.010424e+01    7.318442e-01
  3.012012e+01    7.130397e-01
  3.013600e+01    7.361600e-01
  3.015187e+01    7.244870e-01
  3.016775e+01    6.940020e-01
  3.018362e+01    7.097470e-01
  3.019950e+01    7.142305e-01
  3.021537e+01    7.140276e-01
  3.023125e+01    6.995909e-01
  3.024712e+01    6.824433e-01
  3.026300e+01    7.139256e-01
  3.027888e+01    7.059331e-01
  3.029475e+01    7.072584e-01
  3.031063e+01    7.255089e-01
  3.032650e+01    7.121088e-01
  3.034238e+01    7.048854e-01
  3.035825e+01    6.837058e-01
  3.037413e+01    6.974456e-01
  3.039000e+01    7.062873e-01
  3.040588e+01    7.012304e-01
  3.042176e+01    7.054889e-01
  3.043763e+01    7.108821e-01
  3.045351e+01    7.120441e-01
  3.046938e+01    6.997298e-01
  3.048526e+01    6.928726e-01
  3.050113e+01    7.173370e-01
  3.051701e+01    7.127112e-01
  3.053288e+01    7.008396e-01
  3.054876e+01    7.023585e-01
  3.056464e+01    7.127731e-01
  3.058051e+01    6.990361e-01
  3.059639e+01    6.882585e-01
  3.061226e+01    7.073268e-01
  3.062814e+01    7.242552e-01
  3.064401e+01    7.129439e-01
  3.065989e+01    7.174640e-01
  3.067577e+01    7.103161e-01
  3.069164e+01    6.959101e-01
  3.070752e+01    6.796986e-01
  3.072339e+01    6.879490e-01
  3.073927e+01    7.143246e-01
  3.075514e+01    7.024994e-01
  3.077102e+01    7.165593e-01
  3.078689e+01    7.176789e-01
  3.080277e+01    7.134639e-01
  3.081865e+01    7.171649e-01
  3.083452e+01    7.187924e-01
  3.085040e+01    7.192648e-01
  3.086627e+01    7.143440e-01
  3.088215e+01    6.951584e-01
  3.089802e+01    6.903393e-01
  3.091390e+01    7.024856e-01
  3.092977e+01    7.023466e-01
  3.094565e+01    7.030631e-01
  3.096153e+01    7.192460e-01
  3.097740e+01    6.911720e-01
  3.099328e+01    7.095589e-01
  3.100915e+01    7.185873e-01
  3.102503e+01    7.370384e-01
  3.104090e+01    7.307119e-01
  3.105678e+01    7.277455e-01
  3.107265e+01    7.213571e-01
  3.108853e+01    7.299471e-01
  3.110441e+01    7.052497e-01
  3.112028e+01    7.051427e-01
  3.113616e+01    7.198957e-01
  3.115203e+01    7.238056e-01
  3.116791e+01    7.091019e-01
  3.118378e+01    6.939263e-01
  3.119966e+01    7.252859e-01
  3.121553e+01    7.336876e-01
  3.123141e+01    7.446063e-01
  3.124729e+01    7.495002e-01
  3.126316e+01    7.255228e-01
  3.127904e+01    7.103998e-01
  3.129491e+01    7.203285e-01
  3.131079e+01    7.391371e-01
  3.132666e+01    7.166922e-01
  3.134254e+01    7.081013e-01
  3.135841e+01    7.157626e-01
  3.137429e+01    7.360677e-01
  3.139017e+01    7.521191e-01
  3.140604e+01    7.311614e-01
  3.142192e+01    7.217731e-01
  3.143779e+01    7.253702e-01
  3.145367e+01    7.358871e-01
  3.146954e+01    7.442964e-01
  3.148542e+01    7.692602e-01
  3.150129e+01    7.925237e-01
  3.151717e+01    7.682794e-01
  3.153305e+01    7.836387e-01
  3.154892e+01    8.135918e-01
  3.156480e+01    8.034341e-01
  3.158067e+01    7.600424e-01
  3.159655e+01    7.726433e-01
  3.161242e+01    8.099229e-01
  3.162830e+01    8.270125e-01
  3.164418e+01    8.532543e-01
  3.166005e+01    8.629068e-01
  3.167593e+01    8.828468e-01
  3.169180e+01    9.101424e-01
  3.170768e+01    9.551064e-01
  3.172355e+01    9.989136e-01
  3.173943e+01    1.029534e+00
  3.175530e+01    1.081779e+00
  3.177118e+01    1.122408e+00
  3.178706e+01    1.231125e+00
  3.180293e+01    1.336345e+00
  3.181881e+01    1.452890e+00
  3.183468e+01    1.620853e+00
  3.185056e+01    1.752765e+00
  3.186643e+01    1.912330e+00
  3.188231e+01    2.040681e+00
  3.189818e+01    2.182325e+00
  3.191406e+01    2.286536e+00
  3.192994e+01    2.302345e+00
  3.194581e+01    2.252117e+00
  3.196169e+01    2.138152e+00
  3.197756e+01    1.990135e+00
  3.199344e+01    1.788568e+00
  3.200931e+01    1.612096e+00
  3.202519e+01    1.469151e+00
  3.204106e+01    1.352442e+00
  3.205694e+01    1.276258e+00
  3.207282e+01    1.158406e+00
  3.208869e+01    1.073511e+00
  3.210457e+01    1.029556e+00
  3.212044e+01    9.845706e-01
  3.213632e+01    9.340210e-01
  3.215219e+01    9.160006e-01
  3.216807e+01    8.863171e-01
  3.218394e+01    7.974843e-01
  3.219982e+01    8.110716e-01
  3.221570e+01    8.105140e-01
  3.223157e+01    8.100203e-01
  3.224745e+01    7.960696e-01
  3.226332e+01    7.692934e-01
  3.227920e+01    7.546551e-01
  3.229507e+01    7.767590e-01
  3.231095e+01    7.662787e-01
  3.232682e+01    7.455158e-01
  3.234270e+01    7.192338e-01
  3.235858e+01    7.356256e-01
  3.237445e+01    7.560632e-01
  3.239033e+01    7.429087e-01
  3.240620e+01    7.370613e-01
  3.242208e+01    7.408302e-01
  3.243795e+01    7.448043e-01
  3.245383e+01    7.192604e-01
  3.246970e+01    7.175456e-01
  3.248558e+01    7.488105e-01
  3.250146e+01    7.255205e-01
  3.251733e+01    7.258160e-01
  3.253321e+01    7.300203e-01
  3.254908e+01    7.237095e-01
