# == pyFAI calibration ==
# Distance Sample to Detector: 0.3999999939076516 m
# PONI: 9.750e-02, 1.135e-01 m
# Rotations: -0.000175 0.000000 -0.000000 rad
# 
# == Fit2d calibration ==
# Distance Sample-beamCenter: 400.000 mm
# Center: x=1514.000, y=1300.000 pix
# Tilt: 0.010 deg  TiltPlanRot: 0.010 deg
# 
# Detector Detector	 Spline= None	 PixelSize= 7.500e-05, 7.500e-05 m
#    Detector has a mask: False 
#    Detector has a dark current: False 
#    detector has a flat field: False 
# 
# Wavelength: 6.888e-11 m
# Mask applied: user provided
# Dark current applied: False
# Flat field applied: False
# Polarization factor: 0.99
# Normalization factor: 1.0
# --> /home/myspot/data/2024_07_Rosario/Ru-CGO-ex/2024-07-27_002_Ru-CGO-ex_Activtation_ramp_000002_data_000122.dat
#       q_nm^-1             I 
  2.003187e-02    0.000000e+00
  3.590745e-02    0.000000e+00
  5.178302e-02    0.000000e+00
  6.765859e-02    5.689427e-02
  8.353417e-02    1.132788e-01
  9.940974e-02    3.203979e-02
  1.152853e-01    5.132032e-02
  1.311609e-01    5.764125e-02
  1.470365e-01    2.690672e-02
  1.629120e-01    5.184782e-02
  1.787876e-01    6.634498e-02
  1.946632e-01    1.932512e-02
  2.105388e-01    1.876986e-02
  2.264143e-01    4.609135e-02
  2.422899e-01    8.925681e-02
  2.581655e-01    6.402019e-02
  2.740411e-01    2.931214e-02
  2.899166e-01    2.530289e-02
  3.057922e-01    7.511110e-02
  3.216678e-01    7.699794e-02
  3.375433e-01    9.821525e-02
  3.534189e-01    2.989828e-02
  3.692945e-01    8.530868e-03
  3.851701e-01    3.989939e-02
  4.010456e-01    5.753303e-02
  4.169212e-01    4.966155e-02
  4.327968e-01    3.928640e-02
  4.486724e-01    4.325845e-02
  4.645479e-01    3.060769e-02
  4.804235e-01    6.428119e-02
  4.962991e-01    3.477603e-02
  5.121747e-01    1.451857e-02
  5.280502e-01    3.948900e-02
  5.439258e-01    2.980541e-02
  5.598014e-01    6.427153e-02
  5.756770e-01    5.793599e-02
  5.915525e-01    4.362685e-02
  6.074281e-01    3.163455e-02
  6.233037e-01    2.955760e-02
  6.391793e-01    4.575263e-02
  6.550548e-01    3.673013e-02
  6.709304e-01    2.712095e-02
  6.868060e-01    4.534475e-02
  7.026815e-01    6.853887e-02
  7.185571e-01    4.083496e-02
  7.344327e-01    4.471890e-02
  7.503083e-01    5.686490e-02
  7.661838e-01    8.220246e-02
  7.820594e-01    9.464099e-02
  7.979350e-01    1.528550e-01
  8.138106e-01    1.656355e-01
  8.296861e-01    2.085794e-01
  8.455617e-01    2.663821e-01
  8.614373e-01    3.349280e-01
  8.773129e-01    4.291209e-01
  8.931884e-01    5.431227e-01
  9.090640e-01    5.723127e-01
  9.249396e-01    6.870969e-01
  9.408152e-01    6.687871e-01
  9.566907e-01    7.402526e-01
  9.725663e-01    9.631389e-01
  9.884419e-01    1.056407e+00
  1.004317e+00    1.028323e+00
  1.020193e+00    1.085830e+00
  1.036069e+00    1.211695e+00
  1.051944e+00    1.312173e+00
  1.067820e+00    1.239213e+00
  1.083695e+00    1.282427e+00
  1.099571e+00    1.400405e+00
  1.115446e+00    1.386013e+00
  1.131322e+00    1.375048e+00
  1.147198e+00    1.430690e+00
  1.163073e+00    1.515627e+00
  1.178949e+00    1.496894e+00
  1.194824e+00    1.509442e+00
  1.210700e+00    1.785003e+00
  1.226575e+00    2.091454e+00
  1.242451e+00    2.270436e+00
  1.258327e+00    2.397263e+00
  1.274202e+00    2.329014e+00
  1.290078e+00    2.300594e+00
  1.305953e+00    2.330821e+00
  1.321829e+00    2.390564e+00
  1.337705e+00    2.589642e+00
  1.353580e+00    2.542460e+00
  1.369456e+00    2.463371e+00
  1.385331e+00    2.483259e+00
  1.401207e+00    2.594286e+00
  1.417082e+00    2.577357e+00
  1.432958e+00    2.817853e+00
  1.448834e+00    2.873179e+00
  1.464709e+00    2.813092e+00
  1.480585e+00    2.812378e+00
  1.496460e+00    2.893561e+00
  1.512336e+00    2.955307e+00
  1.528211e+00    2.875078e+00
  1.544087e+00    2.833087e+00
  1.559963e+00    2.902625e+00
  1.575838e+00    2.902303e+00
  1.591714e+00    2.858594e+00
  1.607589e+00    2.763412e+00
  1.623465e+00    2.728211e+00
  1.639340e+00    2.778586e+00
  1.655216e+00    2.842643e+00
  1.671092e+00    2.817632e+00
  1.686967e+00    2.812375e+00
  1.702843e+00    2.918519e+00
  1.718718e+00    2.858689e+00
  1.734594e+00    2.857444e+00
  1.750469e+00    2.900017e+00
  1.766345e+00    2.738078e+00
  1.782221e+00    2.633177e+00
  1.798096e+00    2.678768e+00
  1.813972e+00    2.633964e+00
  1.829847e+00    2.671482e+00
  1.845723e+00    2.740105e+00
  1.861598e+00    2.760234e+00
  1.877474e+00    2.753424e+00
  1.893350e+00    2.690130e+00
  1.909225e+00    2.677987e+00
  1.925101e+00    2.706482e+00
  1.940976e+00    2.602670e+00
  1.956852e+00    2.712741e+00
  1.972727e+00    2.697084e+00
  1.988603e+00    2.675059e+00
  2.004479e+00    2.705645e+00
  2.020354e+00    2.758893e+00
  2.036230e+00    2.670636e+00
  2.052105e+00    2.592270e+00
  2.067981e+00    2.675776e+00
  2.083856e+00    2.772215e+00
  2.099732e+00    2.752352e+00
  2.115608e+00    2.618084e+00
  2.131483e+00    2.576069e+00
  2.147359e+00    2.708445e+00
  2.163234e+00    2.725858e+00
  2.179110e+00    2.686043e+00
  2.194985e+00    2.712962e+00
  2.210861e+00    2.678801e+00
  2.226737e+00    2.785549e+00
  2.242612e+00    2.747106e+00
  2.258488e+00    2.700894e+00
  2.274363e+00    2.742430e+00
  2.290239e+00    2.727406e+00
  2.306115e+00    2.602129e+00
  2.321990e+00    2.600441e+00
  2.337866e+00    2.724367e+00
  2.353741e+00    2.700903e+00
  2.369617e+00    2.730309e+00
  2.385492e+00    2.730737e+00
  2.401368e+00    2.753534e+00
  2.417244e+00    2.826801e+00
  2.433119e+00    2.753028e+00
  2.448995e+00    2.726974e+00
  2.464870e+00    2.681866e+00
  2.480746e+00    2.765131e+00
  2.496621e+00    2.819201e+00
  2.512497e+00    2.711045e+00
  2.528373e+00    2.763199e+00
  2.544248e+00    2.745054e+00
  2.560124e+00    2.661805e+00
  2.575999e+00    2.654259e+00
  2.591875e+00    2.707031e+00
  2.607750e+00    2.784419e+00
  2.623626e+00    2.711361e+00
  2.639502e+00    2.754889e+00
  2.655377e+00    2.697897e+00
  2.671253e+00    2.771034e+00
  2.687128e+00    2.794870e+00
  2.703004e+00    2.859661e+00
  2.718879e+00    2.791503e+00
  2.734755e+00    2.813097e+00
  2.750631e+00    2.793411e+00
  2.766506e+00    2.858739e+00
  2.782382e+00    2.786935e+00
  2.798257e+00    2.749464e+00
  2.814133e+00    2.801276e+00
  2.830008e+00    2.711828e+00
  2.845884e+00    2.677059e+00
  2.861760e+00    2.809839e+00
  2.877635e+00    2.796147e+00
  2.893511e+00    2.851323e+00
  2.909386e+00    2.828126e+00
  2.925262e+00    2.750639e+00
  2.941137e+00    2.816108e+00
  2.957013e+00    2.812821e+00
  2.972889e+00    2.807529e+00
  2.988764e+00    2.945015e+00
  3.004640e+00    2.932690e+00
  3.020515e+00    2.891309e+00
  3.036391e+00    2.915248e+00
  3.052266e+00    2.784128e+00
  3.068142e+00    2.799826e+00
  3.084018e+00    2.822973e+00
  3.099893e+00    2.783478e+00
  3.115769e+00    2.770406e+00
  3.131644e+00    2.785696e+00
  3.147520e+00    2.859591e+00
  3.163395e+00    2.980756e+00
  3.179271e+00    2.903420e+00
  3.195147e+00    2.938803e+00
  3.211022e+00    2.877059e+00
  3.226898e+00    2.880774e+00
  3.242773e+00    2.912843e+00
  3.258649e+00    2.921557e+00
  3.274525e+00    2.856489e+00
  3.290400e+00    2.780791e+00
  3.306276e+00    2.840059e+00
  3.322151e+00    2.929836e+00
  3.338027e+00    2.932996e+00
  3.353902e+00    2.857891e+00
  3.369778e+00    2.926160e+00
  3.385654e+00    2.868776e+00
  3.401529e+00    2.813770e+00
  3.417405e+00    2.865428e+00
  3.433280e+00    2.893814e+00
  3.449156e+00    2.880037e+00
  3.465031e+00    2.906069e+00
  3.480907e+00    2.869755e+00
  3.496783e+00    2.794633e+00
  3.512658e+00    2.857925e+00
  3.528534e+00    2.914302e+00
  3.544409e+00    2.908439e+00
  3.560285e+00    3.011880e+00
  3.576160e+00    3.024100e+00
  3.592036e+00    2.948447e+00
  3.607912e+00    2.985283e+00
  3.623787e+00    3.017094e+00
  3.639663e+00    2.942935e+00
  3.655538e+00    2.946774e+00
  3.671414e+00    2.966612e+00
  3.687289e+00    2.891790e+00
  3.703165e+00    2.887561e+00
  3.719041e+00    2.939880e+00
  3.734916e+00    2.912879e+00
  3.750792e+00    2.953224e+00
  3.766667e+00    2.956012e+00
  3.782543e+00    2.973069e+00
  3.798418e+00    2.968828e+00
  3.814294e+00    3.013904e+00
  3.830170e+00    2.948142e+00
  3.846045e+00    2.871388e+00
  3.861921e+00    2.885410e+00
  3.877796e+00    2.884977e+00
  3.893672e+00    2.954117e+00
  3.909547e+00    3.030792e+00
  3.925423e+00    3.005228e+00
  3.941299e+00    2.953352e+00
  3.957174e+00    2.946283e+00
  3.973050e+00    3.002884e+00
  3.988925e+00    2.901118e+00
  4.004801e+00    2.928747e+00
  4.020676e+00    2.976291e+00
  4.036552e+00    3.013023e+00
  4.052428e+00    2.943900e+00
  4.068303e+00    2.887181e+00
  4.084179e+00    2.857712e+00
  4.100054e+00    2.908149e+00
  4.115930e+00    2.978967e+00
  4.131806e+00    2.883545e+00
  4.147681e+00    2.937467e+00
  4.163557e+00    2.941152e+00
  4.179432e+00    2.957054e+00
  4.195308e+00    3.043485e+00
  4.211183e+00    3.050844e+00
  4.227059e+00    3.001830e+00
  4.242935e+00    3.012263e+00
  4.258810e+00    2.992600e+00
  4.274686e+00    3.008735e+00
  4.290561e+00    2.984951e+00
  4.306437e+00    3.048711e+00
  4.322312e+00    3.028052e+00
  4.338188e+00    2.970021e+00
  4.354064e+00    2.976765e+00
  4.369939e+00    3.069348e+00
  4.385815e+00    3.095958e+00
  4.401690e+00    3.026493e+00
  4.417566e+00    2.987345e+00
  4.433441e+00    2.990024e+00
  4.449317e+00    3.025995e+00
  4.465193e+00    3.070025e+00
  4.481068e+00    3.084662e+00
  4.496944e+00    3.099108e+00
  4.512819e+00    3.056969e+00
  4.528695e+00    3.068243e+00
  4.544570e+00    2.991626e+00
  4.560446e+00    2.997742e+00
  4.576322e+00    3.049414e+00
  4.592197e+00    3.034239e+00
  4.608073e+00    2.966290e+00
  4.623948e+00    2.964293e+00
  4.639824e+00    2.999774e+00
  4.655699e+00    3.069275e+00
  4.671575e+00    3.096391e+00
  4.687451e+00    3.032778e+00
  4.703326e+00    3.036016e+00
  4.719202e+00    3.060399e+00
  4.735077e+00    3.035320e+00
  4.750953e+00    3.055167e+00
  4.766828e+00    3.127695e+00
  4.782704e+00    3.097494e+00
  4.798580e+00    3.048292e+00
  4.814455e+00    3.094620e+00
  4.830331e+00    3.080093e+00
  4.846206e+00    3.063041e+00
  4.862082e+00    3.090196e+00
  4.877957e+00    3.040504e+00
  4.893833e+00    3.092099e+00
  4.909709e+00    3.064482e+00
  4.925584e+00    3.066876e+00
  4.941460e+00    3.099410e+00
  4.957335e+00    3.012305e+00
  4.973211e+00    3.064422e+00
  4.989086e+00    3.023094e+00
  5.004962e+00    3.081722e+00
  5.020838e+00    3.131056e+00
  5.036713e+00    3.091218e+00
  5.052589e+00    3.047780e+00
  5.068464e+00    3.099014e+00
  5.084340e+00    3.114664e+00
  5.100216e+00    2.991514e+00
  5.116091e+00    2.996052e+00
  5.131967e+00    2.991269e+00
  5.147842e+00    3.045428e+00
  5.163718e+00    3.104108e+00
  5.179593e+00    3.034356e+00
  5.195469e+00    3.064352e+00
  5.211345e+00    3.031138e+00
  5.227220e+00    3.130773e+00
  5.243096e+00    3.110864e+00
  5.258971e+00    3.095647e+00
  5.274847e+00    3.079069e+00
  5.290722e+00    3.008526e+00
  5.306598e+00    2.979515e+00
  5.322474e+00    3.070896e+00
  5.338349e+00    3.078037e+00
  5.354225e+00    3.092262e+00
  5.370100e+00    3.017832e+00
  5.385976e+00    3.106071e+00
  5.401851e+00    3.117080e+00
  5.417727e+00    3.069541e+00
  5.433603e+00    3.022048e+00
  5.449478e+00    3.079675e+00
  5.465354e+00    3.124937e+00
  5.481229e+00    3.032011e+00
  5.497105e+00    3.045764e+00
  5.512980e+00    2.962451e+00
  5.528856e+00    3.011202e+00
  5.544732e+00    3.060733e+00
  5.560607e+00    3.092514e+00
  5.576483e+00    3.107630e+00
  5.592358e+00    3.083277e+00
  5.608234e+00    3.075822e+00
  5.624109e+00    2.988726e+00
  5.639985e+00    2.924351e+00
  5.655861e+00    2.975925e+00
  5.671736e+00    3.007617e+00
  5.687612e+00    3.013570e+00
  5.703487e+00    3.002240e+00
  5.719363e+00    2.992326e+00
  5.735238e+00    3.092458e+00
  5.751114e+00    3.067643e+00
  5.766990e+00    2.988457e+00
  5.782865e+00    2.989717e+00
  5.798741e+00    2.968534e+00
  5.814616e+00    3.025763e+00
  5.830492e+00    2.948125e+00
  5.846367e+00    2.931772e+00
  5.862243e+00    2.995602e+00
  5.878119e+00    2.980467e+00
  5.893994e+00    3.022629e+00
  5.909870e+00    2.961444e+00
  5.925745e+00    2.920651e+00
  5.941621e+00    2.988448e+00
  5.957497e+00    2.980740e+00
  5.973372e+00    2.962029e+00
  5.989248e+00    3.070085e+00
  6.005123e+00    2.981217e+00
  6.020999e+00    2.938563e+00
  6.036874e+00    2.971184e+00
  6.052750e+00    2.924191e+00
  6.068626e+00    3.004360e+00
  6.084501e+00    3.022596e+00
  6.100377e+00    3.100181e+00
  6.116252e+00    3.094805e+00
  6.132128e+00    3.113391e+00
  6.148003e+00    3.086358e+00
  6.163879e+00    3.098819e+00
  6.179755e+00    3.000040e+00
  6.195630e+00    3.043821e+00
  6.211506e+00    3.088690e+00
  6.227381e+00    2.975131e+00
  6.243257e+00    2.943797e+00
  6.259132e+00    2.987982e+00
  6.275008e+00    2.972018e+00
  6.290884e+00    2.926876e+00
  6.306759e+00    2.976846e+00
  6.322635e+00    2.931382e+00
  6.338510e+00    2.929569e+00
  6.354386e+00    2.987151e+00
  6.370261e+00    3.027079e+00
  6.386137e+00    3.101905e+00
  6.402013e+00    3.037545e+00
  6.417888e+00    3.006152e+00
  6.433764e+00    3.049959e+00
  6.449639e+00    2.992486e+00
  6.465515e+00    3.084785e+00
  6.481390e+00    3.049997e+00
  6.497266e+00    2.958485e+00
  6.513142e+00    3.043499e+00
  6.529017e+00    2.979296e+00
  6.544893e+00    3.001347e+00
  6.560768e+00    2.998786e+00
  6.576644e+00    2.953436e+00
  6.592519e+00    2.955301e+00
  6.608395e+00    2.927340e+00
  6.624271e+00    2.942437e+00
  6.640146e+00    2.907294e+00
  6.656022e+00    2.955454e+00
  6.671897e+00    2.965949e+00
  6.687773e+00    2.961265e+00
  6.703648e+00    2.961959e+00
  6.719524e+00    2.954285e+00
  6.735400e+00    2.988125e+00
  6.751275e+00    2.988516e+00
  6.767151e+00    2.957463e+00
  6.783026e+00    2.979710e+00
  6.798902e+00    3.028573e+00
  6.814777e+00    2.971282e+00
  6.830653e+00    2.957657e+00
  6.846529e+00    2.961566e+00
  6.862404e+00    2.950856e+00
  6.878280e+00    3.058138e+00
  6.894155e+00    3.001958e+00
  6.910031e+00    2.944419e+00
  6.925907e+00    2.942716e+00
  6.941782e+00    2.967555e+00
  6.957658e+00    2.948608e+00
  6.973533e+00    2.942868e+00
  6.989409e+00    2.983800e+00
  7.005284e+00    3.015379e+00
  7.021160e+00    3.029679e+00
  7.037036e+00    2.968781e+00
  7.052911e+00    2.953773e+00
  7.068787e+00    2.882370e+00
  7.084662e+00    2.912349e+00
  7.100538e+00    2.958033e+00
  7.116413e+00    2.970400e+00
  7.132289e+00    3.016958e+00
  7.148165e+00    3.016437e+00
  7.164040e+00    3.064061e+00
  7.179916e+00    2.929506e+00
  7.195791e+00    2.944692e+00
  7.211667e+00    2.934469e+00
  7.227542e+00    2.892325e+00
  7.243418e+00    2.944309e+00
  7.259294e+00    2.996629e+00
  7.275169e+00    2.965916e+00
  7.291045e+00    2.922483e+00
  7.306920e+00    2.984592e+00
  7.322796e+00    2.976419e+00
  7.338671e+00    2.897536e+00
  7.354547e+00    2.932074e+00
  7.370423e+00    2.903729e+00
  7.386298e+00    2.840073e+00
  7.402174e+00    2.893492e+00
  7.418049e+00    2.968580e+00
  7.433925e+00    2.964613e+00
  7.449800e+00    2.927543e+00
  7.465676e+00    2.931235e+00
  7.481552e+00    2.951933e+00
  7.497427e+00    2.920055e+00
  7.513303e+00    2.894930e+00
  7.529178e+00    2.902101e+00
  7.545054e+00    2.973359e+00
  7.560929e+00    2.936786e+00
  7.576805e+00    2.926124e+00
  7.592681e+00    2.914937e+00
  7.608556e+00    2.850273e+00
  7.624432e+00    2.894987e+00
  7.640307e+00    2.907743e+00
  7.656183e+00    2.917636e+00
  7.672058e+00    2.920987e+00
  7.687934e+00    2.905316e+00
  7.703810e+00    2.916536e+00
  7.719685e+00    2.862634e+00
  7.735561e+00    2.822061e+00
  7.751436e+00    2.879165e+00
  7.767312e+00    2.864223e+00
  7.783187e+00    2.870833e+00
  7.799063e+00    2.864147e+00
  7.814939e+00    2.836746e+00
  7.830814e+00    2.891224e+00
  7.846690e+00    2.974421e+00
  7.862565e+00    2.973790e+00
  7.878441e+00    2.877220e+00
  7.894317e+00    2.886328e+00
  7.910192e+00    2.906998e+00
  7.926068e+00    2.923946e+00
  7.941943e+00    2.895649e+00
  7.957819e+00    2.881576e+00
  7.973694e+00    2.817967e+00
  7.989570e+00    2.853271e+00
  8.005446e+00    2.858284e+00
  8.021321e+00    2.849997e+00
  8.037197e+00    2.873673e+00
  8.053072e+00    2.927115e+00
  8.068948e+00    2.868378e+00
  8.084823e+00    2.875175e+00
  8.100699e+00    2.873157e+00
  8.116575e+00    2.885651e+00
  8.132450e+00    2.925038e+00
  8.148326e+00    2.892948e+00
  8.164201e+00    2.913998e+00
  8.180077e+00    2.899143e+00
  8.195952e+00    2.970544e+00
  8.211828e+00    2.974369e+00
  8.227704e+00    2.983464e+00
  8.243579e+00    2.927851e+00
  8.259455e+00    2.906061e+00
  8.275330e+00    2.873658e+00
  8.291206e+00    2.884196e+00
  8.307081e+00    2.825922e+00
  8.322957e+00    2.797522e+00
  8.338833e+00    2.879218e+00
  8.354708e+00    2.847959e+00
  8.370584e+00    2.851214e+00
  8.386459e+00    2.905177e+00
  8.402335e+00    2.861991e+00
  8.418210e+00    2.918922e+00
  8.434086e+00    2.876447e+00
  8.449962e+00    2.891176e+00
  8.465837e+00    2.890917e+00
  8.481713e+00    2.869128e+00
  8.497588e+00    2.871646e+00
  8.513464e+00    2.875912e+00
  8.529339e+00    2.840360e+00
  8.545215e+00    2.832793e+00
  8.561091e+00    2.836471e+00
  8.576966e+00    2.753469e+00
  8.592842e+00    2.820451e+00
  8.608717e+00    2.879534e+00
  8.624593e+00    2.845111e+00
  8.640468e+00    2.832118e+00
  8.656344e+00    2.821320e+00
  8.672220e+00    2.826842e+00
  8.688095e+00    2.849101e+00
  8.703971e+00    2.837597e+00
  8.719846e+00    2.895201e+00
  8.735722e+00    2.837334e+00
  8.751598e+00    2.817267e+00
  8.767473e+00    2.824677e+00
  8.783349e+00    2.822496e+00
  8.799224e+00    2.828582e+00
  8.815100e+00    2.847618e+00
  8.830975e+00    2.861397e+00
  8.846851e+00    2.757162e+00
  8.862727e+00    2.769188e+00
  8.878602e+00    2.807048e+00
  8.894478e+00    2.839123e+00
  8.910353e+00    2.824755e+00
  8.926229e+00    2.852324e+00
  8.942104e+00    2.829873e+00
  8.957980e+00    2.801801e+00
  8.973856e+00    2.780763e+00
  8.989731e+00    2.798317e+00
  9.005607e+00    2.792574e+00
  9.021482e+00    2.781562e+00
  9.037358e+00    2.822006e+00
  9.053233e+00    2.810903e+00
  9.069109e+00    2.723161e+00
  9.084985e+00    2.727570e+00
  9.100860e+00    2.698486e+00
  9.116736e+00    2.746323e+00
  9.132611e+00    2.768684e+00
  9.148487e+00    2.776404e+00
  9.164362e+00    2.799369e+00
  9.180238e+00    2.786322e+00
  9.196114e+00    2.758642e+00
  9.211989e+00    2.796544e+00
  9.227865e+00    2.773713e+00
  9.243740e+00    2.731534e+00
  9.259616e+00    2.762092e+00
  9.275491e+00    2.723440e+00
  9.291367e+00    2.728248e+00
  9.307243e+00    2.734408e+00
  9.323118e+00    2.740854e+00
  9.338994e+00    2.735282e+00
  9.354869e+00    2.737846e+00
  9.370745e+00    2.688333e+00
  9.386620e+00    2.689778e+00
  9.402496e+00    2.699908e+00
  9.418372e+00    2.697818e+00
  9.434247e+00    2.699231e+00
  9.450123e+00    2.691009e+00
  9.465998e+00    2.670484e+00
  9.481874e+00    2.714685e+00
  9.497749e+00    2.754879e+00
  9.513625e+00    2.687906e+00
  9.529501e+00    2.751455e+00
  9.545376e+00    2.759837e+00
  9.561252e+00    2.736401e+00
  9.577127e+00    2.698950e+00
  9.593003e+00    2.693741e+00
  9.608878e+00    2.742627e+00
  9.624754e+00    2.743798e+00
  9.640630e+00    2.681905e+00
  9.656505e+00    2.668032e+00
  9.672381e+00    2.683946e+00
  9.688256e+00    2.708090e+00
  9.704132e+00    2.683422e+00
  9.720008e+00    2.703867e+00
  9.735883e+00    2.724092e+00
  9.751759e+00    2.681056e+00
  9.767634e+00    2.691182e+00
  9.783510e+00    2.615906e+00
  9.799385e+00    2.628670e+00
  9.815261e+00    2.701356e+00
  9.831137e+00    2.681471e+00
  9.847012e+00    2.580379e+00
  9.862888e+00    2.585416e+00
  9.878763e+00    2.664939e+00
  9.894639e+00    2.618803e+00
  9.910514e+00    2.630512e+00
  9.926390e+00    2.607765e+00
  9.942266e+00    2.652903e+00
  9.958141e+00    2.615645e+00
  9.974017e+00    2.582081e+00
  9.989892e+00    2.596954e+00
  1.000577e+01    2.608238e+00
  1.002164e+01    2.603776e+00
  1.003752e+01    2.635050e+00
  1.005339e+01    2.635706e+00
  1.006927e+01    2.612425e+00
  1.008515e+01    2.644116e+00
  1.010102e+01    2.630293e+00
  1.011690e+01    2.646159e+00
  1.013277e+01    2.621761e+00
  1.014865e+01    2.574473e+00
  1.016452e+01    2.599250e+00
  1.018040e+01    2.614570e+00
  1.019627e+01    2.617889e+00
  1.021215e+01    2.601550e+00
  1.022803e+01    2.589469e+00
  1.024390e+01    2.608706e+00
  1.025978e+01    2.586982e+00
  1.027565e+01    2.592880e+00
  1.029153e+01    2.635943e+00
  1.030740e+01    2.604252e+00
  1.032328e+01    2.582649e+00
  1.033915e+01    2.546624e+00
  1.035503e+01    2.594480e+00
  1.037091e+01    2.608500e+00
  1.038678e+01    2.560134e+00
  1.040266e+01    2.569167e+00
  1.041853e+01    2.505411e+00
  1.043441e+01    2.500175e+00
  1.045028e+01    2.565402e+00
  1.046616e+01    2.602825e+00
  1.048204e+01    2.591578e+00
  1.049791e+01    2.599579e+00
  1.051379e+01    2.560198e+00
  1.052966e+01    2.553881e+00
  1.054554e+01    2.556165e+00
  1.056141e+01    2.588925e+00
  1.057729e+01    2.574975e+00
  1.059316e+01    2.580932e+00
  1.060904e+01    2.548489e+00
  1.062492e+01    2.539322e+00
  1.064079e+01    2.583767e+00
  1.065667e+01    2.536476e+00
  1.067254e+01    2.527643e+00
  1.068842e+01    2.491326e+00
  1.070429e+01    2.527119e+00
  1.072017e+01    2.484629e+00
  1.073604e+01    2.501515e+00
  1.075192e+01    2.520540e+00
  1.076780e+01    2.500126e+00
  1.078367e+01    2.478908e+00
  1.079955e+01    2.451607e+00
  1.081542e+01    2.508779e+00
  1.083130e+01    2.501642e+00
  1.084717e+01    2.465081e+00
  1.086305e+01    2.467884e+00
  1.087892e+01    2.500119e+00
  1.089480e+01    2.489987e+00
  1.091068e+01    2.468326e+00
  1.092655e+01    2.436191e+00
  1.094243e+01    2.442179e+00
  1.095830e+01    2.414710e+00
  1.097418e+01    2.435286e+00
  1.099005e+01    2.448449e+00
  1.100593e+01    2.468665e+00
  1.102180e+01    2.425734e+00
  1.103768e+01    2.419462e+00
  1.105356e+01    2.451698e+00
  1.106943e+01    2.467913e+00
  1.108531e+01    2.465043e+00
  1.110118e+01    2.420292e+00
  1.111706e+01    2.462230e+00
  1.113293e+01    2.426488e+00
  1.114881e+01    2.404240e+00
  1.116468e+01    2.406086e+00
  1.118056e+01    2.434218e+00
  1.119644e+01    2.421391e+00
  1.121231e+01    2.413477e+00
  1.122819e+01    2.412966e+00
  1.124406e+01    2.409201e+00
  1.125994e+01    2.431002e+00
  1.127581e+01    2.388194e+00
  1.129169e+01    2.372679e+00
  1.130756e+01    2.416961e+00
  1.132344e+01    2.381982e+00
  1.133932e+01    2.370508e+00
  1.135519e+01    2.394136e+00
  1.137107e+01    2.421473e+00
  1.138694e+01    2.420773e+00
  1.140282e+01    2.423755e+00
  1.141869e+01    2.375564e+00
  1.143457e+01    2.361345e+00
  1.145045e+01    2.383048e+00
  1.146632e+01    2.343969e+00
  1.148220e+01    2.359387e+00
  1.149807e+01    2.374614e+00
  1.151395e+01    2.391049e+00
  1.152982e+01    2.377691e+00
  1.154570e+01    2.355432e+00
  1.156157e+01    2.346206e+00
  1.157745e+01    2.353639e+00
  1.159333e+01    2.321938e+00
  1.160920e+01    2.307607e+00
  1.162508e+01    2.327631e+00
  1.164095e+01    2.347920e+00
  1.165683e+01    2.365503e+00
  1.167270e+01    2.379490e+00
  1.168858e+01    2.381755e+00
  1.170445e+01    2.312464e+00
  1.172033e+01    2.292337e+00
  1.173621e+01    2.324358e+00
  1.175208e+01    2.307403e+00
  1.176796e+01    2.316333e+00
  1.178383e+01    2.314780e+00
  1.179971e+01    2.308582e+00
  1.181558e+01    2.316690e+00
  1.183146e+01    2.335474e+00
  1.184733e+01    2.308818e+00
  1.186321e+01    2.302483e+00
  1.187909e+01    2.309035e+00
  1.189496e+01    2.320796e+00
  1.191084e+01    2.290000e+00
  1.192671e+01    2.292213e+00
  1.194259e+01    2.292677e+00
  1.195846e+01    2.313924e+00
  1.197434e+01    2.273336e+00
  1.199021e+01    2.300265e+00
  1.200609e+01    2.307927e+00
  1.202197e+01    2.313360e+00
  1.203784e+01    2.295315e+00
  1.205372e+01    2.297273e+00
  1.206959e+01    2.325770e+00
  1.208547e+01    2.334486e+00
  1.210134e+01    2.283992e+00
  1.211722e+01    2.270401e+00
  1.213309e+01    2.350711e+00
  1.214897e+01    2.325113e+00
  1.216485e+01    2.357382e+00
  1.218072e+01    2.325940e+00
  1.219660e+01    2.292999e+00
  1.221247e+01    2.302272e+00
  1.222835e+01    2.282008e+00
  1.224422e+01    2.274167e+00
  1.226010e+01    2.290311e+00
  1.227597e+01    2.268742e+00
  1.229185e+01    2.267041e+00
  1.230773e+01    2.266197e+00
  1.232360e+01    2.278500e+00
  1.233948e+01    2.258089e+00
  1.235535e+01    2.266567e+00
  1.237123e+01    2.291918e+00
  1.238710e+01    2.317528e+00
  1.240298e+01    2.300308e+00
  1.241886e+01    2.322097e+00
  1.243473e+01    2.254474e+00
  1.245061e+01    2.302616e+00
  1.246648e+01    2.320299e+00
  1.248236e+01    2.334352e+00
  1.249823e+01    2.319291e+00
  1.251411e+01    2.303152e+00
  1.252998e+01    2.284887e+00
  1.254586e+01    2.290008e+00
  1.256174e+01    2.349508e+00
  1.257761e+01    2.330308e+00
  1.259349e+01    2.332967e+00
  1.260936e+01    2.331278e+00
  1.262524e+01    2.373925e+00
  1.264111e+01    2.399961e+00
  1.265699e+01    2.435241e+00
  1.267286e+01    2.462853e+00
  1.268874e+01    2.437258e+00
  1.270462e+01    2.436041e+00
  1.272049e+01    2.412434e+00
  1.273637e+01    2.464474e+00
  1.275224e+01    2.512416e+00
  1.276812e+01    2.534479e+00
  1.278399e+01    2.566175e+00
  1.279987e+01    2.612909e+00
  1.281574e+01    2.693193e+00
  1.283162e+01    2.770258e+00
  1.284750e+01    2.792455e+00
  1.286337e+01    2.926426e+00
  1.287925e+01    2.996666e+00
  1.289512e+01    3.105593e+00
  1.291100e+01    3.261853e+00
  1.292687e+01    3.450625e+00
  1.294275e+01    3.640522e+00
  1.295862e+01    3.957711e+00
  1.297450e+01    4.343694e+00
  1.299038e+01    4.795128e+00
  1.300625e+01    5.378644e+00
  1.302213e+01    6.036704e+00
  1.303800e+01    6.986350e+00
  1.305388e+01    8.122888e+00
  1.306975e+01    9.449781e+00
  1.308563e+01    1.082308e+01
  1.310150e+01    1.214653e+01
  1.311738e+01    1.334544e+01
  1.313326e+01    1.455941e+01
  1.314913e+01    1.577102e+01
  1.316501e+01    1.676885e+01
  1.318088e+01    1.723645e+01
  1.319676e+01    1.699652e+01
  1.321263e+01    1.584019e+01
  1.322851e+01    1.406573e+01
  1.324438e+01    1.198259e+01
  1.326026e+01    1.003841e+01
  1.327614e+01    8.509035e+00
  1.329201e+01    7.270517e+00
  1.330789e+01    6.284321e+00
  1.332376e+01    5.524813e+00
  1.333964e+01    4.921286e+00
  1.335551e+01    4.401583e+00
  1.337139e+01    4.008027e+00
  1.338727e+01    3.737498e+00
  1.340314e+01    3.452358e+00
  1.341902e+01    3.275604e+00
  1.343489e+01    3.095903e+00
  1.345077e+01    2.968575e+00
  1.346664e+01    2.847887e+00
  1.348252e+01    2.726851e+00
  1.349839e+01    2.640642e+00
  1.351427e+01    2.570383e+00
  1.353015e+01    2.551130e+00
  1.354602e+01    2.473552e+00
  1.356190e+01    2.441357e+00
  1.357777e+01    2.422448e+00
  1.359365e+01    2.407309e+00
  1.360952e+01    2.386123e+00
  1.362540e+01    2.328696e+00
  1.364127e+01    2.307063e+00
  1.365715e+01    2.234307e+00
  1.367303e+01    2.232955e+00
  1.368890e+01    2.220049e+00
  1.370478e+01    2.211068e+00
  1.372065e+01    2.211638e+00
  1.373653e+01    2.182875e+00
  1.375240e+01    2.178397e+00
  1.376828e+01    2.169594e+00
  1.378415e+01    2.127471e+00
  1.380003e+01    2.096355e+00
  1.381591e+01    2.137967e+00
  1.383178e+01    2.130085e+00
  1.384766e+01    2.086730e+00
  1.386353e+01    2.087575e+00
  1.387941e+01    2.050947e+00
  1.389528e+01    2.056941e+00
  1.391116e+01    2.036139e+00
  1.392703e+01    2.042594e+00
  1.394291e+01    2.044128e+00
  1.395879e+01    2.032340e+00
  1.397466e+01    2.012305e+00
  1.399054e+01    2.039886e+00
  1.400641e+01    2.053483e+00
  1.402229e+01    2.040408e+00
  1.403816e+01    2.037514e+00
  1.405404e+01    2.043749e+00
  1.406991e+01    2.036924e+00
  1.408579e+01    2.004490e+00
  1.410167e+01    1.992445e+00
  1.411754e+01    2.010947e+00
  1.413342e+01    2.022825e+00
  1.414929e+01    1.991701e+00
  1.416517e+01    1.973780e+00
  1.418104e+01    1.985456e+00
  1.419692e+01    1.970778e+00
  1.421279e+01    1.965186e+00
  1.422867e+01    1.941191e+00
  1.424455e+01    1.968761e+00
  1.426042e+01    1.928527e+00
  1.427630e+01    1.918264e+00
  1.429217e+01    1.939695e+00
  1.430805e+01    1.933971e+00
  1.432392e+01    1.951049e+00
  1.433980e+01    1.933394e+00
  1.435568e+01    1.927328e+00
  1.437155e+01    1.949882e+00
  1.438743e+01    1.956844e+00
  1.440330e+01    1.903950e+00
  1.441918e+01    1.887837e+00
  1.443505e+01    1.893223e+00
  1.445093e+01    1.875520e+00
  1.446680e+01    1.883402e+00
  1.448268e+01    1.891507e+00
  1.449856e+01    1.878084e+00
  1.451443e+01    1.904458e+00
  1.453031e+01    1.918574e+00
  1.454618e+01    1.905678e+00
  1.456206e+01    1.866619e+00
  1.457793e+01    1.848393e+00
  1.459381e+01    1.867317e+00
  1.460968e+01    1.886968e+00
  1.462556e+01    1.920891e+00
  1.464144e+01    1.904848e+00
  1.465731e+01    1.916282e+00
  1.467319e+01    1.917014e+00
  1.468906e+01    1.858186e+00
  1.470494e+01    1.870492e+00
  1.472081e+01    1.886882e+00
  1.473669e+01    1.916872e+00
  1.475256e+01    1.880968e+00
  1.476844e+01    1.856894e+00
  1.478432e+01    1.840078e+00
  1.480019e+01    1.835947e+00
  1.481607e+01    1.876055e+00
  1.483194e+01    1.893850e+00
  1.484782e+01    1.891069e+00
  1.486369e+01    1.891631e+00
  1.487957e+01    1.905102e+00
  1.489544e+01    1.922059e+00
  1.491132e+01    1.937963e+00
  1.492720e+01    1.984368e+00
  1.494307e+01    1.977371e+00
  1.495895e+01    1.988473e+00
  1.497482e+01    2.065213e+00
  1.499070e+01    2.090756e+00
  1.500657e+01    2.120968e+00
  1.502245e+01    2.200043e+00
  1.503832e+01    2.277607e+00
  1.505420e+01    2.359413e+00
  1.507008e+01    2.460854e+00
  1.508595e+01    2.666016e+00
  1.510183e+01    2.833506e+00
  1.511770e+01    3.066557e+00
  1.513358e+01    3.441062e+00
  1.514945e+01    3.793176e+00
  1.516533e+01    4.183385e+00
  1.518120e+01    4.531743e+00
  1.519708e+01    4.904397e+00
  1.521296e+01    5.228344e+00
  1.522883e+01    5.493593e+00
  1.524471e+01    5.639364e+00
  1.526058e+01    5.882507e+00
  1.527646e+01    5.882473e+00
  1.529233e+01    5.692190e+00
  1.530821e+01    5.376436e+00
  1.532409e+01    4.936385e+00
  1.533996e+01    4.338655e+00
  1.535584e+01    3.870394e+00
  1.537171e+01    3.490518e+00
  1.538759e+01    3.115679e+00
  1.540346e+01    2.863935e+00
  1.541934e+01    2.589961e+00
  1.543521e+01    2.419254e+00
  1.545109e+01    2.284587e+00
  1.546697e+01    2.202713e+00
  1.548284e+01    2.125580e+00
  1.549872e+01    2.050229e+00
  1.551459e+01    1.950987e+00
  1.553047e+01    1.893036e+00
  1.554634e+01    1.899844e+00
  1.556222e+01    1.906676e+00
  1.557809e+01    1.854170e+00
  1.559397e+01    1.845990e+00
  1.560985e+01    1.790689e+00
  1.562572e+01    1.766960e+00
  1.564160e+01    1.763777e+00
  1.565747e+01    1.728851e+00
  1.567335e+01    1.707585e+00
  1.568922e+01    1.743608e+00
  1.570510e+01    1.725124e+00
  1.572097e+01    1.708863e+00
  1.573685e+01    1.699638e+00
  1.575273e+01    1.709446e+00
  1.576860e+01    1.690928e+00
  1.578448e+01    1.674876e+00
  1.580035e+01    1.694864e+00
  1.581623e+01    1.648557e+00
  1.583210e+01    1.608443e+00
  1.584798e+01    1.677816e+00
  1.586385e+01    1.636914e+00
  1.587973e+01    1.619108e+00
  1.589561e+01    1.633871e+00
  1.591148e+01    1.622606e+00
  1.592736e+01    1.642578e+00
  1.594323e+01    1.609712e+00
  1.595911e+01    1.614570e+00
  1.597498e+01    1.590576e+00
  1.599086e+01    1.584746e+00
  1.600673e+01    1.587143e+00
  1.602261e+01    1.588597e+00
  1.603849e+01    1.560432e+00
  1.605436e+01    1.571491e+00
  1.607024e+01    1.619328e+00
  1.608611e+01    1.597513e+00
  1.610199e+01    1.558112e+00
  1.611786e+01    1.559466e+00
  1.613374e+01    1.575401e+00
  1.614961e+01    1.563113e+00
  1.616549e+01    1.577767e+00
  1.618137e+01    1.541610e+00
  1.619724e+01    1.536369e+00
  1.621312e+01    1.523966e+00
  1.622899e+01    1.529917e+00
  1.624487e+01    1.535849e+00
  1.626074e+01    1.534174e+00
  1.627662e+01    1.510195e+00
  1.629250e+01    1.524262e+00
  1.630837e+01    1.549415e+00
  1.632425e+01    1.567396e+00
  1.634012e+01    1.527932e+00
  1.635600e+01    1.500644e+00
  1.637187e+01    1.505085e+00
  1.638775e+01    1.501581e+00
  1.640362e+01    1.528432e+00
  1.641950e+01    1.518156e+00
  1.643538e+01    1.505975e+00
  1.645125e+01    1.506630e+00
  1.646713e+01    1.499819e+00
  1.648300e+01    1.486576e+00
  1.649888e+01    1.478750e+00
  1.651475e+01    1.464591e+00
  1.653063e+01    1.475713e+00
  1.654650e+01    1.484396e+00
  1.656238e+01    1.472578e+00
  1.657826e+01    1.485866e+00
  1.659413e+01    1.472464e+00
  1.661001e+01    1.483146e+00
  1.662588e+01    1.458503e+00
  1.664176e+01    1.473546e+00
  1.665763e+01    1.480354e+00
  1.667351e+01    1.480377e+00
  1.668938e+01    1.479553e+00
  1.670526e+01    1.467336e+00
  1.672114e+01    1.434012e+00
  1.673701e+01    1.429879e+00
  1.675289e+01    1.440472e+00
  1.676876e+01    1.472541e+00
  1.678464e+01    1.452928e+00
  1.680051e+01    1.444494e+00
  1.681639e+01    1.444877e+00
  1.683226e+01    1.443326e+00
  1.684814e+01    1.426880e+00
  1.686402e+01    1.417717e+00
  1.687989e+01    1.423758e+00
  1.689577e+01    1.444750e+00
  1.691164e+01    1.441043e+00
  1.692752e+01    1.436341e+00
  1.694339e+01    1.426150e+00
  1.695927e+01    1.424077e+00
  1.697514e+01    1.403990e+00
  1.699102e+01    1.400378e+00
  1.700690e+01    1.408858e+00
  1.702277e+01    1.416835e+00
  1.703865e+01    1.415283e+00
  1.705452e+01    1.425944e+00
  1.707040e+01    1.441267e+00
  1.708627e+01    1.383046e+00
  1.710215e+01    1.388998e+00
  1.711802e+01    1.408841e+00
  1.713390e+01    1.412630e+00
  1.714978e+01    1.423205e+00
  1.716565e+01    1.393118e+00
  1.718153e+01    1.405801e+00
  1.719740e+01    1.364288e+00
  1.721328e+01    1.331387e+00
  1.722915e+01    1.378615e+00
  1.724503e+01    1.387469e+00
  1.726091e+01    1.381258e+00
  1.727678e+01    1.360994e+00
  1.729266e+01    1.325494e+00
  1.730853e+01    1.331410e+00
  1.732441e+01    1.367595e+00
  1.734028e+01    1.365619e+00
  1.735616e+01    1.377294e+00
  1.737203e+01    1.381389e+00
  1.738791e+01    1.371201e+00
  1.740379e+01    1.363096e+00
  1.741966e+01    1.364656e+00
  1.743554e+01    1.353463e+00
  1.745141e+01    1.343977e+00
  1.746729e+01    1.333979e+00
  1.748316e+01    1.351559e+00
  1.749904e+01    1.322933e+00
  1.751491e+01    1.347052e+00
  1.753079e+01    1.356825e+00
  1.754667e+01    1.342244e+00
  1.756254e+01    1.359186e+00
  1.757842e+01    1.345150e+00
  1.759429e+01    1.331188e+00
  1.761017e+01    1.337162e+00
  1.762604e+01    1.336546e+00
  1.764192e+01    1.352467e+00
  1.765779e+01    1.327351e+00
  1.767367e+01    1.356413e+00
  1.768955e+01    1.346359e+00
  1.770542e+01    1.344843e+00
  1.772130e+01    1.332934e+00
  1.773717e+01    1.323264e+00
  1.775305e+01    1.290276e+00
  1.776892e+01    1.303507e+00
  1.778480e+01    1.318110e+00
  1.780067e+01    1.278221e+00
  1.781655e+01    1.303757e+00
  1.783243e+01    1.308327e+00
  1.784830e+01    1.312551e+00
  1.786418e+01    1.305518e+00
  1.788005e+01    1.296126e+00
  1.789593e+01    1.287594e+00
  1.791180e+01    1.294927e+00
  1.792768e+01    1.297771e+00
  1.794355e+01    1.301914e+00
  1.795943e+01    1.280917e+00
  1.797531e+01    1.267630e+00
  1.799118e+01    1.282681e+00
  1.800706e+01    1.321728e+00
  1.802293e+01    1.294782e+00
  1.803881e+01    1.249730e+00
  1.805468e+01    1.265987e+00
  1.807056e+01    1.301239e+00
  1.808643e+01    1.266287e+00
  1.810231e+01    1.250362e+00
  1.811819e+01    1.250335e+00
  1.813406e+01    1.295950e+00
  1.814994e+01    1.295667e+00
  1.816581e+01    1.279080e+00
  1.818169e+01    1.250363e+00
  1.819756e+01    1.257499e+00
  1.821344e+01    1.248244e+00
  1.822932e+01    1.262180e+00
  1.824519e+01    1.247871e+00
  1.826107e+01    1.255632e+00
  1.827694e+01    1.254364e+00
  1.829282e+01    1.229268e+00
  1.830869e+01    1.264404e+00
  1.832457e+01    1.257272e+00
  1.834044e+01    1.238083e+00
  1.835632e+01    1.229701e+00
  1.837220e+01    1.250774e+00
  1.838807e+01    1.235769e+00
  1.840395e+01    1.232046e+00
  1.841982e+01    1.239217e+00
  1.843570e+01    1.215495e+00
  1.845157e+01    1.218446e+00
  1.846745e+01    1.238335e+00
  1.848332e+01    1.224543e+00
  1.849920e+01    1.225126e+00
  1.851508e+01    1.233525e+00
  1.853095e+01    1.238486e+00
  1.854683e+01    1.221855e+00
  1.856270e+01    1.214184e+00
  1.857858e+01    1.215999e+00
  1.859445e+01    1.216291e+00
  1.861033e+01    1.224845e+00
  1.862620e+01    1.222523e+00
  1.864208e+01    1.223910e+00
  1.865796e+01    1.233586e+00
  1.867383e+01    1.219083e+00
  1.868971e+01    1.223110e+00
  1.870558e+01    1.218793e+00
  1.872146e+01    1.211859e+00
  1.873733e+01    1.216459e+00
  1.875321e+01    1.194423e+00
  1.876908e+01    1.182433e+00
  1.878496e+01    1.173760e+00
  1.880084e+01    1.177315e+00
  1.881671e+01    1.201580e+00
  1.883259e+01    1.191928e+00
  1.884846e+01    1.177246e+00
  1.886434e+01    1.190900e+00
  1.888021e+01    1.226608e+00
  1.889609e+01    1.200040e+00
  1.891196e+01    1.169814e+00
  1.892784e+01    1.175705e+00
  1.894372e+01    1.193901e+00
  1.895959e+01    1.188989e+00
  1.897547e+01    1.194208e+00
  1.899134e+01    1.179701e+00
  1.900722e+01    1.200057e+00
  1.902309e+01    1.172131e+00
  1.903897e+01    1.172701e+00
  1.905484e+01    1.166434e+00
  1.907072e+01    1.177909e+00
  1.908660e+01    1.186506e+00
  1.910247e+01    1.164295e+00
  1.911835e+01    1.147990e+00
  1.913422e+01    1.162468e+00
  1.915010e+01    1.180355e+00
  1.916597e+01    1.177370e+00
  1.918185e+01    1.166895e+00
  1.919773e+01    1.168873e+00
  1.921360e+01    1.145324e+00
  1.922948e+01    1.164524e+00
  1.924535e+01    1.158209e+00
  1.926123e+01    1.159133e+00
  1.927710e+01    1.164489e+00
  1.929298e+01    1.143643e+00
  1.930885e+01    1.132527e+00
  1.932473e+01    1.162011e+00
  1.934061e+01    1.179374e+00
  1.935648e+01    1.169821e+00
  1.937236e+01    1.189707e+00
  1.938823e+01    1.142460e+00
  1.940411e+01    1.166034e+00
  1.941998e+01    1.171407e+00
  1.943586e+01    1.194375e+00
  1.945173e+01    1.168306e+00
  1.946761e+01    1.155615e+00
  1.948349e+01    1.166138e+00
  1.949936e+01    1.140500e+00
  1.951524e+01    1.139620e+00
  1.953111e+01    1.135437e+00
  1.954699e+01    1.131494e+00
  1.956286e+01    1.125097e+00
  1.957874e+01    1.143732e+00
  1.959461e+01    1.154416e+00
  1.961049e+01    1.136968e+00
  1.962637e+01    1.114469e+00
  1.964224e+01    1.090092e+00
  1.965812e+01    1.113149e+00
  1.967399e+01    1.115122e+00
  1.968987e+01    1.120739e+00
  1.970574e+01    1.115889e+00
  1.972162e+01    1.131110e+00
  1.973749e+01    1.137391e+00
  1.975337e+01    1.118643e+00
  1.976925e+01    1.126228e+00
  1.978512e+01    1.136381e+00
  1.980100e+01    1.133458e+00
  1.981687e+01    1.124624e+00
  1.983275e+01    1.115626e+00
  1.984862e+01    1.140752e+00
  1.986450e+01    1.111573e+00
  1.988037e+01    1.090896e+00
  1.989625e+01    1.096558e+00
  1.991213e+01    1.090784e+00
  1.992800e+01    1.100258e+00
  1.994388e+01    1.114377e+00
  1.995975e+01    1.115359e+00
  1.997563e+01    1.089657e+00
  1.999150e+01    1.100853e+00
  2.000738e+01    1.105241e+00
  2.002325e+01    1.098257e+00
  2.003913e+01    1.086363e+00
  2.005501e+01    1.112656e+00
  2.007088e+01    1.097966e+00
  2.008676e+01    1.090991e+00
  2.010263e+01    1.108873e+00
  2.011851e+01    1.115482e+00
  2.013438e+01    1.086581e+00
  2.015026e+01    1.103370e+00
  2.016614e+01    1.088717e+00
  2.018201e+01    1.068320e+00
  2.019789e+01    1.079562e+00
  2.021376e+01    1.092761e+00
  2.022964e+01    1.078977e+00
  2.024551e+01    1.089767e+00
  2.026139e+01    1.078074e+00
  2.027726e+01    1.105581e+00
  2.029314e+01    1.083651e+00
  2.030902e+01    1.070546e+00
  2.032489e+01    1.077965e+00
  2.034077e+01    1.068481e+00
  2.035664e+01    1.066273e+00
  2.037252e+01    1.083023e+00
  2.038839e+01    1.088861e+00
  2.040427e+01    1.067921e+00
  2.042014e+01    1.056920e+00
  2.043602e+01    1.061617e+00
  2.045190e+01    1.073786e+00
  2.046777e+01    1.093227e+00
  2.048365e+01    1.100080e+00
  2.049952e+01    1.097283e+00
  2.051540e+01    1.081232e+00
  2.053127e+01    1.073763e+00
  2.054715e+01    1.064643e+00
  2.056302e+01    1.081071e+00
  2.057890e+01    1.078017e+00
  2.059478e+01    1.082434e+00
  2.061065e+01    1.081078e+00
  2.062653e+01    1.072937e+00
  2.064240e+01    1.096291e+00
  2.065828e+01    1.077358e+00
  2.067415e+01    1.073045e+00
  2.069003e+01    1.063697e+00
  2.070590e+01    1.052717e+00
  2.072178e+01    1.067438e+00
  2.073766e+01    1.057909e+00
  2.075353e+01    1.048058e+00
  2.076941e+01    1.071361e+00
  2.078528e+01    1.083462e+00
  2.080116e+01    1.073536e+00
  2.081703e+01    1.082868e+00
  2.083291e+01    1.059327e+00
  2.084878e+01    1.059391e+00
  2.086466e+01    1.068487e+00
  2.088054e+01    1.059901e+00
  2.089641e+01    1.042058e+00
  2.091229e+01    1.081347e+00
  2.092816e+01    1.060578e+00
  2.094404e+01    1.087510e+00
  2.095991e+01    1.074172e+00
  2.097579e+01    1.036610e+00
  2.099166e+01    1.040864e+00
  2.100754e+01    1.058118e+00
  2.102342e+01    1.062230e+00
  2.103929e+01    1.062055e+00
  2.105517e+01    1.052970e+00
  2.107104e+01    1.072047e+00
  2.108692e+01    1.080003e+00
  2.110279e+01    1.070988e+00
  2.111867e+01    1.087174e+00
  2.113455e+01    1.058537e+00
  2.115042e+01    1.041816e+00
  2.116630e+01    1.069843e+00
  2.118217e+01    1.083688e+00
  2.119805e+01    1.073768e+00
  2.121392e+01    1.067206e+00
  2.122980e+01    1.077270e+00
  2.124567e+01    1.086401e+00
  2.126155e+01    1.082104e+00
  2.127743e+01    1.095566e+00
  2.129330e+01    1.117690e+00
  2.130918e+01    1.106798e+00
  2.132505e+01    1.115498e+00
  2.134093e+01    1.128663e+00
  2.135680e+01    1.130364e+00
  2.137268e+01    1.146013e+00
  2.138855e+01    1.144097e+00
  2.140443e+01    1.150287e+00
  2.142031e+01    1.157127e+00
  2.143618e+01    1.201420e+00
  2.145206e+01    1.181683e+00
  2.146793e+01    1.220043e+00
  2.148381e+01    1.219457e+00
  2.149968e+01    1.251558e+00
  2.151556e+01    1.268525e+00
  2.153143e+01    1.315078e+00
  2.154731e+01    1.360097e+00
  2.156319e+01    1.379124e+00
  2.157906e+01    1.474648e+00
  2.159494e+01    1.540263e+00
  2.161081e+01    1.588513e+00
  2.162669e+01    1.685090e+00
  2.164256e+01    1.776325e+00
  2.165844e+01    1.912176e+00
  2.167431e+01    2.106793e+00
  2.169019e+01    2.277808e+00
  2.170607e+01    2.513189e+00
  2.172194e+01    2.825346e+00
  2.173782e+01    3.170302e+00
  2.175369e+01    3.614272e+00
  2.176957e+01    4.116545e+00
  2.178544e+01    4.791780e+00
  2.180132e+01    5.422375e+00
  2.181719e+01    6.064220e+00
  2.183307e+01    6.847814e+00
  2.184895e+01    7.572020e+00
  2.186482e+01    8.350474e+00
  2.188070e+01    9.003865e+00
  2.189657e+01    9.427369e+00
  2.191245e+01    9.531674e+00
  2.192832e+01    9.159242e+00
  2.194420e+01    8.486931e+00
  2.196007e+01    7.553866e+00
  2.197595e+01    6.528684e+00
  2.199183e+01    5.512917e+00
  2.200770e+01    4.657579e+00
  2.202358e+01    3.996629e+00
  2.203945e+01    3.461167e+00
  2.205533e+01    3.022547e+00
  2.207120e+01    2.693989e+00
  2.208708e+01    2.411033e+00
  2.210296e+01    2.167615e+00
  2.211883e+01    1.994072e+00
  2.213471e+01    1.838498e+00
  2.215058e+01    1.721856e+00
  2.216646e+01    1.615004e+00
  2.218233e+01    1.519677e+00
  2.219821e+01    1.467328e+00
  2.221408e+01    1.404340e+00
  2.222996e+01    1.317155e+00
  2.224584e+01    1.292662e+00
  2.226171e+01    1.260696e+00
  2.227759e+01    1.221803e+00
  2.229346e+01    1.203370e+00
  2.230934e+01    1.195735e+00
  2.232521e+01    1.169075e+00
  2.234109e+01    1.128279e+00
  2.235696e+01    1.095928e+00
  2.237284e+01    1.109316e+00
  2.238872e+01    1.104490e+00
  2.240459e+01    1.069564e+00
  2.242047e+01    1.036308e+00
  2.243634e+01    1.029574e+00
  2.245222e+01    1.014861e+00
  2.246809e+01    1.019304e+00
  2.248397e+01    1.003189e+00
  2.249984e+01    9.992974e-01
  2.251572e+01    9.865918e-01
  2.253160e+01    9.840311e-01
  2.254747e+01    1.014445e+00
  2.256335e+01    1.009509e+00
  2.257922e+01    9.993706e-01
  2.259510e+01    9.837263e-01
  2.261097e+01    9.977427e-01
  2.262685e+01    9.706183e-01
  2.264272e+01    9.732675e-01
  2.265860e+01    9.878919e-01
  2.267448e+01    9.660265e-01
  2.269035e+01    9.508755e-01
  2.270623e+01    9.505471e-01
  2.272210e+01    9.370230e-01
  2.273798e+01    9.393127e-01
  2.275385e+01    9.228228e-01
  2.276973e+01    9.231704e-01
  2.278560e+01    9.208252e-01
  2.280148e+01    9.335679e-01
  2.281736e+01    9.117177e-01
  2.283323e+01    9.198912e-01
  2.284911e+01    9.131022e-01
  2.286498e+01    9.179785e-01
  2.288086e+01    9.116744e-01
  2.289673e+01    9.008298e-01
  2.291261e+01    9.071183e-01
  2.292848e+01    9.014034e-01
  2.294436e+01    8.873606e-01
  2.296024e+01    8.848456e-01
  2.297611e+01    8.790907e-01
  2.299199e+01    8.866254e-01
  2.300786e+01    9.024097e-01
  2.302374e+01    9.027703e-01
  2.303961e+01    8.958899e-01
  2.305549e+01    8.840014e-01
  2.307137e+01    8.964806e-01
  2.308724e+01    8.929691e-01
  2.310312e+01    8.907511e-01
  2.311899e+01    8.767197e-01
  2.313487e+01    8.720027e-01
  2.315074e+01    8.903717e-01
  2.316662e+01    8.771934e-01
  2.318249e+01    8.736016e-01
  2.319837e+01    8.785341e-01
  2.321425e+01    8.856165e-01
  2.323012e+01    8.596191e-01
  2.324600e+01    8.525459e-01
  2.326187e+01    8.524981e-01
  2.327775e+01    8.694864e-01
  2.329362e+01    8.694464e-01
  2.330950e+01    8.482904e-01
  2.332537e+01    8.464400e-01
  2.334125e+01    8.677030e-01
  2.335713e+01    8.560645e-01
  2.337300e+01    8.354897e-01
  2.338888e+01    8.348359e-01
  2.340475e+01    8.280568e-01
  2.342063e+01    8.379434e-01
  2.343650e+01    8.128001e-01
  2.345238e+01    8.475730e-01
  2.346825e+01    8.438913e-01
  2.348413e+01    8.396445e-01
  2.350001e+01    8.400918e-01
  2.351588e+01    8.447157e-01
  2.353176e+01    8.487172e-01
  2.354763e+01    8.165177e-01
  2.356351e+01    8.164900e-01
  2.357938e+01    8.425155e-01
  2.359526e+01    8.375519e-01
  2.361113e+01    8.297764e-01
  2.362701e+01    8.389236e-01
  2.364289e+01    8.443957e-01
  2.365876e+01    8.357249e-01
  2.367464e+01    8.265640e-01
  2.369051e+01    8.202891e-01
  2.370639e+01    8.117641e-01
  2.372226e+01    8.263375e-01
  2.373814e+01    8.129099e-01
  2.375401e+01    8.056771e-01
  2.376989e+01    7.926679e-01
  2.378577e+01    8.141735e-01
  2.380164e+01    8.188738e-01
  2.381752e+01    8.100168e-01
  2.383339e+01    8.073627e-01
  2.384927e+01    7.909524e-01
  2.386514e+01    7.749885e-01
  2.388102e+01    7.923585e-01
  2.389689e+01    8.149043e-01
  2.391277e+01    8.084150e-01
  2.392865e+01    7.966796e-01
  2.394452e+01    7.899908e-01
  2.396040e+01    7.723641e-01
  2.397627e+01    7.677490e-01
  2.399215e+01    7.850690e-01
  2.400802e+01    7.795771e-01
  2.402390e+01    7.912513e-01
  2.403978e+01    7.828184e-01
  2.405565e+01    7.832599e-01
  2.407153e+01    7.810135e-01
  2.408740e+01    7.805393e-01
  2.410328e+01    7.650963e-01
  2.411915e+01    7.802573e-01
  2.413503e+01    7.770408e-01
  2.415090e+01    7.906716e-01
  2.416678e+01    7.920219e-01
  2.418266e+01    7.854571e-01
  2.419853e+01    7.726575e-01
  2.421441e+01    7.724143e-01
  2.423028e+01    7.569569e-01
  2.424616e+01    7.521766e-01
  2.426203e+01    7.753440e-01
  2.427791e+01    7.843893e-01
  2.429378e+01    7.882303e-01
  2.430966e+01    7.887560e-01
  2.432554e+01    7.699769e-01
  2.434141e+01    7.758679e-01
  2.435729e+01    7.612979e-01
  2.437316e+01    7.769391e-01
  2.438904e+01    7.643781e-01
  2.440491e+01    7.646931e-01
  2.442079e+01    7.687312e-01
  2.443666e+01    7.679725e-01
  2.445254e+01    7.670004e-01
  2.446842e+01    7.706519e-01
  2.448429e+01    7.659522e-01
  2.450017e+01    7.750560e-01
  2.451604e+01    7.841925e-01
  2.453192e+01    7.792724e-01
  2.454779e+01    7.958518e-01
  2.456367e+01    8.135821e-01
  2.457954e+01    7.960568e-01
  2.459542e+01    7.701391e-01
  2.461130e+01    7.712216e-01
  2.462717e+01    7.760962e-01
  2.464305e+01    7.807159e-01
  2.465892e+01    7.844404e-01
  2.467480e+01    7.942456e-01
  2.469067e+01    7.788227e-01
  2.470655e+01    8.000557e-01
  2.472242e+01    7.909286e-01
  2.473830e+01    7.865520e-01
  2.475418e+01    7.878358e-01
  2.477005e+01    7.843813e-01
  2.478593e+01    7.796912e-01
  2.480180e+01    7.890528e-01
  2.481768e+01    7.935322e-01
  2.483355e+01    7.934403e-01
  2.484943e+01    8.012206e-01
  2.486530e+01    7.735699e-01
  2.488118e+01    7.731465e-01
  2.489706e+01    7.730709e-01
  2.491293e+01    7.829579e-01
  2.492881e+01    7.935187e-01
  2.494468e+01    7.869763e-01
  2.496056e+01    7.974258e-01
  2.497643e+01    7.871668e-01
  2.499231e+01    8.018526e-01
  2.500819e+01    7.958529e-01
  2.502406e+01    7.908235e-01
  2.503994e+01    7.990335e-01
  2.505581e+01    8.072959e-01
  2.507169e+01    8.086669e-01
  2.508756e+01    7.899199e-01
  2.510344e+01    8.008025e-01
  2.511931e+01    8.100154e-01
  2.513519e+01    8.044431e-01
  2.515107e+01    7.915043e-01
  2.516694e+01    8.133609e-01
  2.518282e+01    8.074892e-01
  2.519869e+01    8.165454e-01
  2.521457e+01    8.496857e-01
  2.523044e+01    8.511938e-01
  2.524632e+01    8.451421e-01
  2.526219e+01    8.308144e-01
  2.527807e+01    8.276002e-01
  2.529395e+01    8.544953e-01
  2.530982e+01    8.726695e-01
  2.532570e+01    8.642659e-01
  2.534157e+01    8.492619e-01
  2.535745e+01    8.714999e-01
  2.537332e+01    8.934262e-01
  2.538920e+01    8.994905e-01
  2.540507e+01    9.130230e-01
  2.542095e+01    8.935689e-01
  2.543683e+01    9.077274e-01
  2.545270e+01    9.173738e-01
  2.546858e+01    9.243700e-01
  2.548445e+01    9.373618e-01
  2.550033e+01    9.514309e-01
  2.551620e+01    9.633238e-01
  2.553208e+01    9.854127e-01
  2.554795e+01    9.936506e-01
  2.556383e+01    1.017335e+00
  2.557971e+01    1.068598e+00
  2.559558e+01    1.093579e+00
  2.561146e+01    1.139239e+00
  2.562733e+01    1.189353e+00
  2.564321e+01    1.202873e+00
  2.565908e+01    1.258622e+00
  2.567496e+01    1.322777e+00
  2.569083e+01    1.358336e+00
  2.570671e+01    1.480357e+00
  2.572259e+01    1.613717e+00
  2.573846e+01    1.688534e+00
  2.575434e+01    1.853880e+00
  2.577021e+01    2.075519e+00
  2.578609e+01    2.277961e+00
  2.580196e+01    2.528384e+00
  2.581784e+01    2.868368e+00
  2.583371e+01    3.268910e+00
  2.584959e+01    3.756549e+00
  2.586547e+01    4.273957e+00
  2.588134e+01    4.895774e+00
  2.589722e+01    5.580533e+00
  2.591309e+01    6.209219e+00
  2.592897e+01    6.839017e+00
  2.594484e+01    7.335587e+00
  2.596072e+01    7.744324e+00
  2.597660e+01    7.795384e+00
  2.599247e+01    7.594744e+00
  2.600835e+01    7.126637e+00
  2.602422e+01    6.400721e+00
  2.604010e+01    5.570717e+00
  2.605597e+01    4.793996e+00
  2.607185e+01    4.082505e+00
  2.608772e+01    3.535511e+00
  2.610360e+01    3.030191e+00
  2.611948e+01    2.654473e+00
  2.613535e+01    2.345345e+00
  2.615123e+01    2.134846e+00
  2.616710e+01    1.893048e+00
  2.618298e+01    1.736059e+00
  2.619885e+01    1.603128e+00
  2.621473e+01    1.514573e+00
  2.623060e+01    1.425718e+00
  2.624648e+01    1.333423e+00
  2.626236e+01    1.254042e+00
  2.627823e+01    1.242584e+00
  2.629411e+01    1.195477e+00
  2.630998e+01    1.129296e+00
  2.632586e+01    1.096688e+00
  2.634173e+01    1.080843e+00
  2.635761e+01    1.057245e+00
  2.637348e+01    1.022625e+00
  2.638936e+01    9.860471e-01
  2.640524e+01    9.727907e-01
  2.642111e+01    9.596677e-01
  2.643699e+01    9.753795e-01
  2.645286e+01    9.737014e-01
  2.646874e+01    9.583293e-01
  2.648461e+01    9.692192e-01
  2.650049e+01    9.558088e-01
  2.651636e+01    9.059162e-01
  2.653224e+01    9.079770e-01
  2.654812e+01    9.231977e-01
  2.656399e+01    9.135770e-01
  2.657987e+01    8.869401e-01
  2.659574e+01    8.939846e-01
  2.661162e+01    9.066190e-01
  2.662749e+01    9.180468e-01
  2.664337e+01    9.203574e-01
  2.665924e+01    8.848628e-01
  2.667512e+01    8.912609e-01
  2.669100e+01    8.768664e-01
  2.670687e+01    8.965800e-01
  2.672275e+01    8.882666e-01
  2.673862e+01    8.926005e-01
  2.675450e+01    8.785256e-01
  2.677037e+01    8.872730e-01
  2.678625e+01    9.053819e-01
  2.680212e+01    9.023420e-01
  2.681800e+01    8.867265e-01
  2.683388e+01    8.870448e-01
  2.684975e+01    9.054011e-01
  2.686563e+01    9.276395e-01
  2.688150e+01    9.101189e-01
  2.689738e+01    9.082919e-01
  2.691325e+01    9.293386e-01
  2.692913e+01    9.504836e-01
  2.694501e+01    9.317994e-01
  2.696088e+01    9.455518e-01
  2.697676e+01    9.679852e-01
  2.699263e+01    9.717512e-01
  2.700851e+01    1.005274e+00
  2.702438e+01    1.055675e+00
  2.704026e+01    1.094500e+00
  2.705613e+01    1.152055e+00
  2.707201e+01    1.188294e+00
  2.708789e+01    1.269026e+00
  2.710376e+01    1.358878e+00
  2.711964e+01    1.477639e+00
  2.713551e+01    1.590056e+00
  2.715139e+01    1.737654e+00
  2.716726e+01    1.874755e+00
  2.718314e+01    1.994598e+00
  2.719901e+01    2.163803e+00
  2.721489e+01    2.259588e+00
  2.723077e+01    2.298253e+00
  2.724664e+01    2.268063e+00
  2.726252e+01    2.172111e+00
  2.727839e+01    2.057900e+00
  2.729427e+01    1.889404e+00
  2.731014e+01    1.735639e+00
  2.732602e+01    1.581668e+00
  2.734189e+01    1.454105e+00
  2.735777e+01    1.345049e+00
  2.737365e+01    1.260185e+00
  2.738952e+01    1.163440e+00
  2.740540e+01    1.099088e+00
  2.742127e+01    1.083539e+00
  2.743715e+01    1.041178e+00
  2.745302e+01    9.851843e-01
  2.746890e+01    9.515046e-01
  2.748477e+01    9.465951e-01
  2.750065e+01    9.376571e-01
  2.751653e+01    9.324969e-01
  2.753240e+01    8.948228e-01
  2.754828e+01    8.834445e-01
  2.756415e+01    8.643719e-01
  2.758003e+01    8.792512e-01
  2.759590e+01    8.468048e-01
  2.761178e+01    8.388203e-01
  2.762765e+01    8.321264e-01
  2.764353e+01    8.311300e-01
  2.765941e+01    8.221373e-01
  2.767528e+01    8.393602e-01
  2.769116e+01    8.348442e-01
  2.770703e+01    8.189775e-01
  2.772291e+01    8.232738e-01
  2.773878e+01    8.238849e-01
  2.775466e+01    8.393701e-01
  2.777054e+01    8.194845e-01
  2.778641e+01    8.253086e-01
  2.780229e+01    8.063351e-01
  2.781816e+01    7.881637e-01
  2.783404e+01    7.883596e-01
  2.784991e+01    8.039263e-01
  2.786579e+01    7.859567e-01
  2.788166e+01    7.904313e-01
  2.789754e+01    7.820283e-01
  2.791342e+01    8.003026e-01
  2.792929e+01    7.902919e-01
  2.794517e+01    7.800961e-01
  2.796104e+01    7.964191e-01
  2.797692e+01    7.841746e-01
  2.799279e+01    7.857057e-01
  2.800867e+01    8.002166e-01
  2.802454e+01    7.755786e-01
  2.804042e+01    7.679796e-01
  2.805630e+01    7.556974e-01
  2.807217e+01    7.588968e-01
  2.808805e+01    7.587240e-01
  2.810392e+01    7.590288e-01
  2.811980e+01    7.887309e-01
  2.813567e+01    7.696379e-01
  2.815155e+01    7.707088e-01
  2.816742e+01    7.692328e-01
  2.818330e+01    7.582594e-01
  2.819918e+01    7.560886e-01
  2.821505e+01    7.602876e-01
  2.823093e+01    7.355922e-01
  2.824680e+01    7.543563e-01
  2.826268e+01    7.567939e-01
  2.827855e+01    7.417275e-01
  2.829443e+01    7.351893e-01
  2.831030e+01    7.603348e-01
  2.832618e+01    7.767422e-01
  2.834206e+01    7.485451e-01
  2.835793e+01    7.348522e-01
  2.837381e+01    7.515025e-01
  2.838968e+01    7.552178e-01
  2.840556e+01    7.563791e-01
  2.842143e+01    7.575014e-01
  2.843731e+01    7.538053e-01
  2.845318e+01    7.604681e-01
  2.846906e+01    7.496858e-01
  2.848494e+01    7.431871e-01
  2.850081e+01    7.541316e-01
  2.851669e+01    7.597274e-01
  2.853256e+01    7.407594e-01
  2.854844e+01    7.341293e-01
  2.856431e+01    7.321587e-01
  2.858019e+01    7.419199e-01
  2.859606e+01    7.495893e-01
  2.861194e+01    7.302588e-01
  2.862782e+01    7.306967e-01
  2.864369e+01    7.329733e-01
  2.865957e+01    7.634041e-01
  2.867544e+01    7.419418e-01
  2.869132e+01    7.436376e-01
  2.870719e+01    7.269040e-01
  2.872307e+01    7.266935e-01
  2.873895e+01    7.198454e-01
  2.875482e+01    7.360885e-01
  2.877070e+01    7.342314e-01
  2.878657e+01    7.454860e-01
  2.880245e+01    7.429956e-01
  2.881832e+01    7.325595e-01
  2.883420e+01    7.316511e-01
  2.885007e+01    7.430390e-01
  2.886595e+01    7.362190e-01
  2.888183e+01    7.332628e-01
  2.889770e+01    7.204064e-01
  2.891358e+01    7.400974e-01
  2.892945e+01    7.593008e-01
  2.894533e+01    7.471755e-01
  2.896120e+01    7.338307e-01
  2.897708e+01    7.315630e-01
  2.899295e+01    7.259181e-01
  2.900883e+01    7.376112e-01
  2.902471e+01    7.146167e-01
  2.904058e+01    7.263581e-01
  2.905646e+01    7.235976e-01
  2.907233e+01    7.215711e-01
  2.908821e+01    7.420086e-01
  2.910408e+01    7.272153e-01
  2.911996e+01    7.096815e-01
  2.913583e+01    7.392813e-01
  2.915171e+01    7.473863e-01
  2.916759e+01    7.250782e-01
  2.918346e+01    7.188678e-01
  2.919934e+01    7.339283e-01
  2.921521e+01    7.095811e-01
  2.923109e+01    7.241952e-01
  2.924696e+01    7.187608e-01
  2.926284e+01    7.195302e-01
  2.927871e+01    7.200398e-01
  2.929459e+01    7.279093e-01
  2.931047e+01    7.245914e-01
  2.932634e+01    7.208437e-01
  2.934222e+01    7.312035e-01
  2.935809e+01    7.189890e-01
  2.937397e+01    7.037908e-01
  2.938984e+01    7.228512e-01
  2.940572e+01    7.221309e-01
  2.942159e+01    7.234965e-01
  2.943747e+01    7.090491e-01
  2.945335e+01    7.189615e-01
  2.946922e+01    7.070218e-01
  2.948510e+01    7.193688e-01
  2.950097e+01    7.200539e-01
  2.951685e+01    7.144801e-01
  2.953272e+01    7.403138e-01
  2.954860e+01    7.232679e-01
  2.956447e+01    7.110221e-01
  2.958035e+01    7.333811e-01
  2.959623e+01    7.243137e-01
  2.961210e+01    7.262797e-01
  2.962798e+01    7.320166e-01
  2.964385e+01    7.284815e-01
  2.965973e+01    7.067755e-01
  2.967560e+01    6.964591e-01
  2.969148e+01    7.075658e-01
  2.970736e+01    7.093953e-01
  2.972323e+01    7.184517e-01
  2.973911e+01    7.264299e-01
  2.975498e+01    7.152478e-01
  2.977086e+01    7.119137e-01
  2.978673e+01    7.524633e-01
  2.980261e+01    7.186875e-01
  2.981848e+01    6.907583e-01
  2.983436e+01    7.095670e-01
  2.985024e+01    7.080727e-01
  2.986611e+01    7.161800e-01
  2.988199e+01    7.425058e-01
  2.989786e+01    7.282822e-01
  2.991374e+01    7.155308e-01
  2.992961e+01    7.168321e-01
  2.994549e+01    7.053983e-01
  2.996136e+01    7.185431e-01
  2.997724e+01    7.371272e-01
  2.999312e+01    7.367593e-01
  3.000899e+01    7.441366e-01
  3.002487e+01    7.290214e-01
  3.004074e+01    7.212700e-01
  3.005662e+01    7.326197e-01
  3.007249e+01    7.353994e-01
  3.008837e+01    7.371641e-01
  3.010424e+01    7.273781e-01
  3.012012e+01    7.233422e-01
  3.013600e+01    6.824766e-01
  3.015187e+01    6.827114e-01
  3.016775e+01    6.909603e-01
  3.018362e+01    6.950516e-01
  3.019950e+01    7.198782e-01
  3.021537e+01    6.932244e-01
  3.023125e+01    6.976478e-01
  3.024712e+01    7.362546e-01
  3.026300e+01    7.127680e-01
  3.027888e+01    6.654789e-01
  3.029475e+01    6.892498e-01
  3.031063e+01    7.120343e-01
  3.032650e+01    7.069685e-01
  3.034238e+01    7.135907e-01
  3.035825e+01    7.090989e-01
  3.037413e+01    7.256752e-01
  3.039000e+01    7.021095e-01
  3.040588e+01    6.983474e-01
  3.042176e+01    7.075106e-01
  3.043763e+01    7.075793e-01
  3.045351e+01    7.304586e-01
  3.046938e+01    7.262086e-01
  3.048526e+01    6.938702e-01
  3.050113e+01    7.030526e-01
  3.051701e+01    7.051193e-01
  3.053288e+01    7.065443e-01
  3.054876e+01    7.033299e-01
  3.056464e+01    7.303036e-01
  3.058051e+01    7.278271e-01
  3.059639e+01    7.358184e-01
  3.061226e+01    7.343898e-01
  3.062814e+01    7.108395e-01
  3.064401e+01    7.033460e-01
  3.065989e+01    7.051148e-01
  3.067577e+01    6.989022e-01
  3.069164e+01    7.000162e-01
  3.070752e+01    7.029280e-01
  3.072339e+01    7.225590e-01
  3.073927e+01    7.031177e-01
  3.075514e+01    7.061109e-01
  3.077102e+01    7.044367e-01
  3.078689e+01    7.051513e-01
  3.080277e+01    7.147208e-01
  3.081865e+01    7.116119e-01
  3.083452e+01    7.068155e-01
  3.085040e+01    7.133431e-01
  3.086627e+01    7.237836e-01
  3.088215e+01    7.181055e-01
  3.089802e+01    6.887352e-01
  3.091390e+01    7.217319e-01
  3.092977e+01    7.117137e-01
  3.094565e+01    7.081657e-01
  3.096153e+01    7.269982e-01
  3.097740e+01    7.082115e-01
  3.099328e+01    7.000218e-01
  3.100915e+01    7.116031e-01
  3.102503e+01    7.262502e-01
  3.104090e+01    7.143328e-01
  3.105678e+01    7.156397e-01
  3.107265e+01    7.045825e-01
  3.108853e+01    7.045883e-01
  3.110441e+01    7.273218e-01
  3.112028e+01    7.112424e-01
  3.113616e+01    7.142576e-01
  3.115203e+01    7.187074e-01
  3.116791e+01    7.012724e-01
  3.118378e+01    7.063169e-01
  3.119966e+01    7.164832e-01
  3.121553e+01    7.421200e-01
  3.123141e+01    7.235601e-01
  3.124729e+01    7.170700e-01
  3.126316e+01    7.374805e-01
  3.127904e+01    7.255258e-01
  3.129491e+01    7.300546e-01
  3.131079e+01    7.164044e-01
  3.132666e+01    7.207338e-01
  3.134254e+01    7.395843e-01
  3.135841e+01    7.309652e-01
  3.137429e+01    7.598286e-01
  3.139017e+01    7.653037e-01
  3.140604e+01    7.247638e-01
  3.142192e+01    7.159854e-01
  3.143779e+01    7.241436e-01
  3.145367e+01    7.129844e-01
  3.146954e+01    7.423834e-01
  3.148542e+01    7.535535e-01
  3.150129e+01    7.440979e-01
  3.151717e+01    7.656246e-01
  3.153305e+01    7.773424e-01
  3.154892e+01    7.744785e-01
  3.156480e+01    7.782404e-01
  3.158067e+01    7.782032e-01
  3.159655e+01    7.954664e-01
  3.161242e+01    8.047146e-01
  3.162830e+01    8.173388e-01
  3.164418e+01    8.641090e-01
  3.166005e+01    8.791313e-01
  3.167593e+01    8.965875e-01
  3.169180e+01    9.107741e-01
  3.170768e+01    9.529300e-01
  3.172355e+01    9.892017e-01
  3.173943e+01    1.043528e+00
  3.175530e+01    1.077985e+00
  3.177118e+01    1.168641e+00
  3.178706e+01    1.246259e+00
  3.180293e+01    1.399093e+00
  3.181881e+01    1.475329e+00
  3.183468e+01    1.583880e+00
  3.185056e+01    1.754287e+00
  3.186643e+01    1.926601e+00
  3.188231e+01    2.049143e+00
  3.189818e+01    2.164875e+00
  3.191406e+01    2.222181e+00
  3.192994e+01    2.261762e+00
  3.194581e+01    2.211181e+00
  3.196169e+01    2.112348e+00
  3.197756e+01    1.945500e+00
  3.199344e+01    1.771478e+00
  3.200931e+01    1.621399e+00
  3.202519e+01    1.462720e+00
  3.204106e+01    1.331946e+00
  3.205694e+01    1.216980e+00
  3.207282e+01    1.121112e+00
  3.208869e+01    1.070236e+00
  3.210457e+01    1.001275e+00
  3.212044e+01    9.532720e-01
  3.213632e+01    9.315372e-01
  3.215219e+01    8.916553e-01
  3.216807e+01    8.525358e-01
  3.218394e+01    8.316479e-01
  3.219982e+01    8.328661e-01
  3.221570e+01    8.248366e-01
  3.223157e+01    8.125036e-01
  3.224745e+01    7.950136e-01
  3.226332e+01    8.043271e-01
  3.227920e+01    8.003958e-01
  3.229507e+01    7.709915e-01
  3.231095e+01    7.512740e-01
  3.232682e+01    7.603254e-01
  3.234270e+01    7.562378e-01
  3.235858e+01    7.258612e-01
  3.237445e+01    7.371006e-01
  3.239033e+01    7.492400e-01
  3.240620e+01    7.481214e-01
  3.242208e+01    7.302117e-01
  3.243795e+01    7.481228e-01
  3.245383e+01    7.343011e-01
  3.246970e+01    7.269854e-01
  3.248558e+01    7.072728e-01
  3.250146e+01    7.298126e-01
  3.251733e+01    6.935207e-01
  3.253321e+01    7.014041e-01
  3.254908e+01    7.188615e-01
