# == pyFAI calibration ==
# Distance Sample to Detector: 0.3999999939076516 m
# PONI: 9.750e-02, 1.135e-01 m
# Rotations: -0.000175 0.000000 -0.000000 rad
# 
# == Fit2d calibration ==
# Distance Sample-beamCenter: 400.000 mm
# Center: x=1514.000, y=1300.000 pix
# Tilt: 0.010 deg  TiltPlanRot: 0.010 deg
# 
# Detector Detector	 Spline= None	 PixelSize= 7.500e-05, 7.500e-05 m
#    Detector has a mask: False 
#    Detector has a dark current: False 
#    detector has a flat field: False 
# 
# Wavelength: 6.888e-11 m
# Mask applied: user provided
# Dark current applied: False
# Flat field applied: False
# Polarization factor: 0.99
# Normalization factor: 1.0
# --> /home/myspot/data/2024_07_Rosario/Ru-CGO-ex/2024-07-27_002_Ru-CGO-ex_Activtation_ramp_000002_data_000096.dat
#       q_nm^-1             I 
  2.003187e-02    0.000000e+00
  3.590745e-02    3.427850e-02
  5.178302e-02    1.157582e-01
  6.765859e-02    1.163706e-01
  8.353417e-02    7.505766e-02
  9.940974e-02    1.979760e-02
  1.152853e-01    3.266994e-02
  1.311609e-01    2.939202e-02
  1.470365e-01    1.851584e-02
  1.629120e-01    6.112038e-02
  1.787876e-01    7.879633e-02
  1.946632e-01    3.977541e-02
  2.105388e-01    2.116488e-02
  2.264143e-01    1.863842e-02
  2.422899e-01    4.192580e-02
  2.581655e-01    6.501893e-02
  2.740411e-01    6.485347e-02
  2.899166e-01    3.152290e-02
  3.057922e-01    3.086887e-02
  3.216678e-01    3.431277e-02
  3.375433e-01    3.840203e-02
  3.534189e-01    3.763426e-02
  3.692945e-01    4.819574e-02
  3.851701e-01    4.058872e-02
  4.010456e-01    6.212241e-02
  4.169212e-01    4.581415e-02
  4.327968e-01    5.105682e-02
  4.486724e-01    2.549175e-02
  4.645479e-01    4.300979e-02
  4.804235e-01    4.829901e-02
  4.962991e-01    7.118526e-02
  5.121747e-01    6.066649e-02
  5.280502e-01    3.775558e-02
  5.439258e-01    3.530703e-02
  5.598014e-01    3.673417e-02
  5.756770e-01    3.080259e-02
  5.915525e-01    2.716911e-02
  6.074281e-01    3.704973e-02
  6.233037e-01    1.488935e-02
  6.391793e-01    2.192306e-02
  6.550548e-01    2.261420e-02
  6.709304e-01    2.640643e-02
  6.868060e-01    2.616710e-02
  7.026815e-01    3.815053e-02
  7.185571e-01    2.193481e-02
  7.344327e-01    2.293400e-02
  7.503083e-01    5.436020e-02
  7.661838e-01    5.719043e-02
  7.820594e-01    1.148567e-01
  7.979350e-01    1.277231e-01
  8.138106e-01    1.822671e-01
  8.296861e-01    2.384719e-01
  8.455617e-01    2.718913e-01
  8.614373e-01    3.416534e-01
  8.773129e-01    4.268267e-01
  8.931884e-01    5.154491e-01
  9.090640e-01    5.822216e-01
  9.249396e-01    5.830818e-01
  9.408152e-01    6.271409e-01
  9.566907e-01    8.318378e-01
  9.725663e-01    9.216293e-01
  9.884419e-01    9.314370e-01
  1.004317e+00    9.346332e-01
  1.020193e+00    1.052544e+00
  1.036069e+00    1.142839e+00
  1.051944e+00    1.236230e+00
  1.067820e+00    1.233742e+00
  1.083695e+00    1.275283e+00
  1.099571e+00    1.381462e+00
  1.115446e+00    1.442551e+00
  1.131322e+00    1.418103e+00
  1.147198e+00    1.312996e+00
  1.163073e+00    1.454956e+00
  1.178949e+00    1.543799e+00
  1.194824e+00    1.593156e+00
  1.210700e+00    1.776037e+00
  1.226575e+00    2.065183e+00
  1.242451e+00    2.143082e+00
  1.258327e+00    2.371304e+00
  1.274202e+00    2.420740e+00
  1.290078e+00    2.509195e+00
  1.305953e+00    2.537276e+00
  1.321829e+00    2.515160e+00
  1.337705e+00    2.561683e+00
  1.353580e+00    2.552666e+00
  1.369456e+00    2.537026e+00
  1.385331e+00    2.623683e+00
  1.401207e+00    2.741839e+00
  1.417082e+00    2.745086e+00
  1.432958e+00    2.746997e+00
  1.448834e+00    2.781012e+00
  1.464709e+00    2.763943e+00
  1.480585e+00    2.843894e+00
  1.496460e+00    2.789848e+00
  1.512336e+00    2.754056e+00
  1.528211e+00    2.739109e+00
  1.544087e+00    3.011370e+00
  1.559963e+00    3.028965e+00
  1.575838e+00    2.953494e+00
  1.591714e+00    2.813576e+00
  1.607589e+00    3.025613e+00
  1.623465e+00    2.918565e+00
  1.639340e+00    2.868572e+00
  1.655216e+00    2.801723e+00
  1.671092e+00    2.851088e+00
  1.686967e+00    2.941949e+00
  1.702843e+00    2.860365e+00
  1.718718e+00    2.831502e+00
  1.734594e+00    2.849513e+00
  1.750469e+00    2.798015e+00
  1.766345e+00    2.661377e+00
  1.782221e+00    2.674272e+00
  1.798096e+00    2.781665e+00
  1.813972e+00    2.824064e+00
  1.829847e+00    2.834866e+00
  1.845723e+00    2.873991e+00
  1.861598e+00    2.850091e+00
  1.877474e+00    2.715803e+00
  1.893350e+00    2.737918e+00
  1.909225e+00    2.789896e+00
  1.925101e+00    2.774208e+00
  1.940976e+00    2.727815e+00
  1.956852e+00    2.658130e+00
  1.972727e+00    2.650915e+00
  1.988603e+00    2.727087e+00
  2.004479e+00    2.723280e+00
  2.020354e+00    2.756779e+00
  2.036230e+00    2.730471e+00
  2.052105e+00    2.706550e+00
  2.067981e+00    2.748660e+00
  2.083856e+00    2.640148e+00
  2.099732e+00    2.718873e+00
  2.115608e+00    2.719275e+00
  2.131483e+00    2.736296e+00
  2.147359e+00    2.745188e+00
  2.163234e+00    2.696395e+00
  2.179110e+00    2.716487e+00
  2.194985e+00    2.728681e+00
  2.210861e+00    2.693664e+00
  2.226737e+00    2.791067e+00
  2.242612e+00    2.760089e+00
  2.258488e+00    2.702856e+00
  2.274363e+00    2.582289e+00
  2.290239e+00    2.711832e+00
  2.306115e+00    2.709543e+00
  2.321990e+00    2.674842e+00
  2.337866e+00    2.701488e+00
  2.353741e+00    2.725229e+00
  2.369617e+00    2.810354e+00
  2.385492e+00    2.792053e+00
  2.401368e+00    2.698915e+00
  2.417244e+00    2.729220e+00
  2.433119e+00    2.743432e+00
  2.448995e+00    2.630112e+00
  2.464870e+00    2.625726e+00
  2.480746e+00    2.725599e+00
  2.496621e+00    2.775278e+00
  2.512497e+00    2.772644e+00
  2.528373e+00    2.762113e+00
  2.544248e+00    2.794646e+00
  2.560124e+00    2.813672e+00
  2.575999e+00    2.784220e+00
  2.591875e+00    2.801086e+00
  2.607750e+00    2.763296e+00
  2.623626e+00    2.691130e+00
  2.639502e+00    2.763147e+00
  2.655377e+00    2.778402e+00
  2.671253e+00    2.829604e+00
  2.687128e+00    2.817037e+00
  2.703004e+00    2.813159e+00
  2.718879e+00    2.780067e+00
  2.734755e+00    2.755358e+00
  2.750631e+00    2.709539e+00
  2.766506e+00    2.806703e+00
  2.782382e+00    2.777349e+00
  2.798257e+00    2.766016e+00
  2.814133e+00    2.771051e+00
  2.830008e+00    2.865818e+00
  2.845884e+00    2.786679e+00
  2.861760e+00    2.852472e+00
  2.877635e+00    2.914089e+00
  2.893511e+00    2.876206e+00
  2.909386e+00    2.798485e+00
  2.925262e+00    2.827568e+00
  2.941137e+00    2.922055e+00
  2.957013e+00    2.933127e+00
  2.972889e+00    2.853337e+00
  2.988764e+00    2.815302e+00
  3.004640e+00    2.863472e+00
  3.020515e+00    2.864594e+00
  3.036391e+00    2.807125e+00
  3.052266e+00    2.939687e+00
  3.068142e+00    2.911310e+00
  3.084018e+00    2.886823e+00
  3.099893e+00    2.902782e+00
  3.115769e+00    2.890625e+00
  3.131644e+00    2.842084e+00
  3.147520e+00    2.821308e+00
  3.163395e+00    2.934117e+00
  3.179271e+00    2.878265e+00
  3.195147e+00    2.815829e+00
  3.211022e+00    2.802405e+00
  3.226898e+00    2.894964e+00
  3.242773e+00    2.870494e+00
  3.258649e+00    2.823679e+00
  3.274525e+00    2.837292e+00
  3.290400e+00    2.962597e+00
  3.306276e+00    2.940557e+00
  3.322151e+00    2.901246e+00
  3.338027e+00    2.969424e+00
  3.353902e+00    2.952144e+00
  3.369778e+00    2.959548e+00
  3.385654e+00    2.894387e+00
  3.401529e+00    2.923006e+00
  3.417405e+00    2.947397e+00
  3.433280e+00    2.933275e+00
  3.449156e+00    2.913283e+00
  3.465031e+00    2.886749e+00
  3.480907e+00    2.928234e+00
  3.496783e+00    2.910585e+00
  3.512658e+00    2.981436e+00
  3.528534e+00    3.014539e+00
  3.544409e+00    2.975342e+00
  3.560285e+00    2.965643e+00
  3.576160e+00    2.883278e+00
  3.592036e+00    2.897462e+00
  3.607912e+00    2.943813e+00
  3.623787e+00    2.923452e+00
  3.639663e+00    2.939422e+00
  3.655538e+00    2.952563e+00
  3.671414e+00    3.066726e+00
  3.687289e+00    3.009629e+00
  3.703165e+00    2.932692e+00
  3.719041e+00    2.977223e+00
  3.734916e+00    2.895645e+00
  3.750792e+00    2.863864e+00
  3.766667e+00    2.927733e+00
  3.782543e+00    2.967713e+00
  3.798418e+00    2.980019e+00
  3.814294e+00    3.018069e+00
  3.830170e+00    2.942131e+00
  3.846045e+00    2.903294e+00
  3.861921e+00    2.908843e+00
  3.877796e+00    2.942173e+00
  3.893672e+00    3.025712e+00
  3.909547e+00    2.968836e+00
  3.925423e+00    2.915352e+00
  3.941299e+00    2.927726e+00
  3.957174e+00    2.907281e+00
  3.973050e+00    2.935312e+00
  3.988925e+00    2.974547e+00
  4.004801e+00    2.986713e+00
  4.020676e+00    3.039605e+00
  4.036552e+00    3.011749e+00
  4.052428e+00    2.939216e+00
  4.068303e+00    3.023219e+00
  4.084179e+00    3.045117e+00
  4.100054e+00    3.005434e+00
  4.115930e+00    2.972063e+00
  4.131806e+00    2.961937e+00
  4.147681e+00    3.048699e+00
  4.163557e+00    3.040865e+00
  4.179432e+00    3.083851e+00
  4.195308e+00    3.008286e+00
  4.211183e+00    2.974381e+00
  4.227059e+00    2.926707e+00
  4.242935e+00    2.960023e+00
  4.258810e+00    2.980460e+00
  4.274686e+00    2.955511e+00
  4.290561e+00    2.972553e+00
  4.306437e+00    3.060631e+00
  4.322312e+00    3.060460e+00
  4.338188e+00    3.075924e+00
  4.354064e+00    2.978513e+00
  4.369939e+00    2.929689e+00
  4.385815e+00    3.028115e+00
  4.401690e+00    3.005705e+00
  4.417566e+00    3.069071e+00
  4.433441e+00    3.059014e+00
  4.449317e+00    3.070846e+00
  4.465193e+00    3.016451e+00
  4.481068e+00    3.020734e+00
  4.496944e+00    3.026463e+00
  4.512819e+00    3.053360e+00
  4.528695e+00    3.047990e+00
  4.544570e+00    2.980713e+00
  4.560446e+00    2.975194e+00
  4.576322e+00    2.989152e+00
  4.592197e+00    3.084115e+00
  4.608073e+00    3.112529e+00
  4.623948e+00    3.017425e+00
  4.639824e+00    2.986567e+00
  4.655699e+00    3.021989e+00
  4.671575e+00    3.092864e+00
  4.687451e+00    3.071837e+00
  4.703326e+00    3.109113e+00
  4.719202e+00    3.063866e+00
  4.735077e+00    3.067146e+00
  4.750953e+00    3.096595e+00
  4.766828e+00    3.103543e+00
  4.782704e+00    3.124275e+00
  4.798580e+00    3.060866e+00
  4.814455e+00    3.031021e+00
  4.830331e+00    3.039877e+00
  4.846206e+00    3.091383e+00
  4.862082e+00    3.016022e+00
  4.877957e+00    2.984275e+00
  4.893833e+00    3.011136e+00
  4.909709e+00    3.003060e+00
  4.925584e+00    2.988920e+00
  4.941460e+00    3.047152e+00
  4.957335e+00    3.077818e+00
  4.973211e+00    3.088080e+00
  4.989086e+00    3.123493e+00
  5.004962e+00    3.118568e+00
  5.020838e+00    3.086073e+00
  5.036713e+00    3.046998e+00
  5.052589e+00    3.073484e+00
  5.068464e+00    3.130601e+00
  5.084340e+00    3.142298e+00
  5.100216e+00    3.085802e+00
  5.116091e+00    3.052398e+00
  5.131967e+00    3.060529e+00
  5.147842e+00    3.071004e+00
  5.163718e+00    3.079844e+00
  5.179593e+00    3.130460e+00
  5.195469e+00    3.090211e+00
  5.211345e+00    3.136262e+00
  5.227220e+00    3.112391e+00
  5.243096e+00    3.099841e+00
  5.258971e+00    3.073494e+00
  5.274847e+00    3.051439e+00
  5.290722e+00    3.057234e+00
  5.306598e+00    3.028855e+00
  5.322474e+00    3.075004e+00
  5.338349e+00    3.102880e+00
  5.354225e+00    3.073529e+00
  5.370100e+00    3.172734e+00
  5.385976e+00    3.059185e+00
  5.401851e+00    2.939861e+00
  5.417727e+00    3.064016e+00
  5.433603e+00    3.081900e+00
  5.449478e+00    3.069405e+00
  5.465354e+00    2.998288e+00
  5.481229e+00    2.998099e+00
  5.497105e+00    2.969521e+00
  5.512980e+00    3.027571e+00
  5.528856e+00    3.033777e+00
  5.544732e+00    3.033878e+00
  5.560607e+00    3.030314e+00
  5.576483e+00    2.992621e+00
  5.592358e+00    3.025358e+00
  5.608234e+00    3.009715e+00
  5.624109e+00    3.061027e+00
  5.639985e+00    3.156137e+00
  5.655861e+00    3.099008e+00
  5.671736e+00    3.089369e+00
  5.687612e+00    3.138830e+00
  5.703487e+00    3.090012e+00
  5.719363e+00    3.014806e+00
  5.735238e+00    3.066852e+00
  5.751114e+00    3.013421e+00
  5.766990e+00    3.037286e+00
  5.782865e+00    2.999801e+00
  5.798741e+00    2.917675e+00
  5.814616e+00    2.979944e+00
  5.830492e+00    2.975290e+00
  5.846367e+00    3.031468e+00
  5.862243e+00    2.986753e+00
  5.878119e+00    2.985067e+00
  5.893994e+00    3.018408e+00
  5.909870e+00    3.029583e+00
  5.925745e+00    3.001191e+00
  5.941621e+00    2.958795e+00
  5.957497e+00    3.033804e+00
  5.973372e+00    3.012064e+00
  5.989248e+00    3.003974e+00
  6.005123e+00    2.997656e+00
  6.020999e+00    3.089198e+00
  6.036874e+00    3.070273e+00
  6.052750e+00    2.961501e+00
  6.068626e+00    2.932080e+00
  6.084501e+00    2.982491e+00
  6.100377e+00    3.044184e+00
  6.116252e+00    3.034133e+00
  6.132128e+00    3.023218e+00
  6.148003e+00    3.077240e+00
  6.163879e+00    3.043639e+00
  6.179755e+00    2.976712e+00
  6.195630e+00    2.966872e+00
  6.211506e+00    3.021514e+00
  6.227381e+00    3.026851e+00
  6.243257e+00    3.021872e+00
  6.259132e+00    3.062169e+00
  6.275008e+00    2.914297e+00
  6.290884e+00    2.978326e+00
  6.306759e+00    2.992776e+00
  6.322635e+00    3.004899e+00
  6.338510e+00    2.981220e+00
  6.354386e+00    2.954947e+00
  6.370261e+00    2.970295e+00
  6.386137e+00    3.012390e+00
  6.402013e+00    2.980512e+00
  6.417888e+00    2.938679e+00
  6.433764e+00    2.890656e+00
  6.449639e+00    2.982989e+00
  6.465515e+00    2.991050e+00
  6.481390e+00    2.924946e+00
  6.497266e+00    2.987343e+00
  6.513142e+00    3.039293e+00
  6.529017e+00    3.090796e+00
  6.544893e+00    3.025060e+00
  6.560768e+00    3.026875e+00
  6.576644e+00    3.055890e+00
  6.592519e+00    2.998675e+00
  6.608395e+00    2.979124e+00
  6.624271e+00    3.010005e+00
  6.640146e+00    2.986259e+00
  6.656022e+00    2.975343e+00
  6.671897e+00    2.918080e+00
  6.687773e+00    3.035822e+00
  6.703648e+00    3.022022e+00
  6.719524e+00    2.985863e+00
  6.735400e+00    2.995061e+00
  6.751275e+00    3.015687e+00
  6.767151e+00    3.017257e+00
  6.783026e+00    2.967041e+00
  6.798902e+00    2.930591e+00
  6.814777e+00    2.949647e+00
  6.830653e+00    2.979322e+00
  6.846529e+00    2.970713e+00
  6.862404e+00    3.009855e+00
  6.878280e+00    2.967320e+00
  6.894155e+00    2.979542e+00
  6.910031e+00    2.967966e+00
  6.925907e+00    2.948584e+00
  6.941782e+00    2.986649e+00
  6.957658e+00    2.948364e+00
  6.973533e+00    2.964556e+00
  6.989409e+00    3.051230e+00
  7.005284e+00    2.966293e+00
  7.021160e+00    2.936963e+00
  7.037036e+00    2.970241e+00
  7.052911e+00    2.969431e+00
  7.068787e+00    2.994903e+00
  7.084662e+00    2.973828e+00
  7.100538e+00    2.995541e+00
  7.116413e+00    2.908097e+00
  7.132289e+00    2.954952e+00
  7.148165e+00    3.030053e+00
  7.164040e+00    2.983061e+00
  7.179916e+00    2.962824e+00
  7.195791e+00    2.975533e+00
  7.211667e+00    2.961555e+00
  7.227542e+00    2.993719e+00
  7.243418e+00    2.930516e+00
  7.259294e+00    2.926167e+00
  7.275169e+00    2.943509e+00
  7.291045e+00    2.990588e+00
  7.306920e+00    2.942612e+00
  7.322796e+00    2.920767e+00
  7.338671e+00    2.928631e+00
  7.354547e+00    2.972743e+00
  7.370423e+00    2.981323e+00
  7.386298e+00    3.000143e+00
  7.402174e+00    3.025192e+00
  7.418049e+00    2.986420e+00
  7.433925e+00    2.922120e+00
  7.449800e+00    2.925962e+00
  7.465676e+00    2.892160e+00
  7.481552e+00    2.905298e+00
  7.497427e+00    2.898437e+00
  7.513303e+00    2.980889e+00
  7.529178e+00    2.984983e+00
  7.545054e+00    2.947147e+00
  7.560929e+00    2.901099e+00
  7.576805e+00    2.910410e+00
  7.592681e+00    2.961116e+00
  7.608556e+00    2.942142e+00
  7.624432e+00    2.909930e+00
  7.640307e+00    2.931232e+00
  7.656183e+00    2.937871e+00
  7.672058e+00    2.932842e+00
  7.687934e+00    2.894075e+00
  7.703810e+00    2.866915e+00
  7.719685e+00    2.892411e+00
  7.735561e+00    2.914367e+00
  7.751436e+00    2.931302e+00
  7.767312e+00    2.947134e+00
  7.783187e+00    2.919712e+00
  7.799063e+00    2.920987e+00
  7.814939e+00    2.929800e+00
  7.830814e+00    2.913282e+00
  7.846690e+00    2.887106e+00
  7.862565e+00    2.876056e+00
  7.878441e+00    2.899295e+00
  7.894317e+00    2.848208e+00
  7.910192e+00    2.877931e+00
  7.926068e+00    2.834378e+00
  7.941943e+00    2.850398e+00
  7.957819e+00    2.868606e+00
  7.973694e+00    2.909476e+00
  7.989570e+00    2.884483e+00
  8.005446e+00    2.896153e+00
  8.021321e+00    2.838514e+00
  8.037197e+00    2.838729e+00
  8.053072e+00    2.906887e+00
  8.068948e+00    2.942493e+00
  8.084823e+00    2.923652e+00
  8.100699e+00    2.900779e+00
  8.116575e+00    2.868248e+00
  8.132450e+00    2.955337e+00
  8.148326e+00    2.914543e+00
  8.164201e+00    2.978078e+00
  8.180077e+00    2.923346e+00
  8.195952e+00    2.915643e+00
  8.211828e+00    2.946276e+00
  8.227704e+00    2.963120e+00
  8.243579e+00    2.968469e+00
  8.259455e+00    2.958138e+00
  8.275330e+00    2.909320e+00
  8.291206e+00    2.909575e+00
  8.307081e+00    2.958501e+00
  8.322957e+00    2.902344e+00
  8.338833e+00    2.856039e+00
  8.354708e+00    2.844958e+00
  8.370584e+00    2.872931e+00
  8.386459e+00    2.864085e+00
  8.402335e+00    2.896550e+00
  8.418210e+00    2.891704e+00
  8.434086e+00    2.874960e+00
  8.449962e+00    2.850756e+00
  8.465837e+00    2.814188e+00
  8.481713e+00    2.851703e+00
  8.497588e+00    2.860926e+00
  8.513464e+00    2.848608e+00
  8.529339e+00    2.861584e+00
  8.545215e+00    2.842722e+00
  8.561091e+00    2.833986e+00
  8.576966e+00    2.844911e+00
  8.592842e+00    2.890648e+00
  8.608717e+00    2.880097e+00
  8.624593e+00    2.794992e+00
  8.640468e+00    2.805791e+00
  8.656344e+00    2.912188e+00
  8.672220e+00    2.811795e+00
  8.688095e+00    2.817210e+00
  8.703971e+00    2.849345e+00
  8.719846e+00    2.805064e+00
  8.735722e+00    2.791965e+00
  8.751598e+00    2.767599e+00
  8.767473e+00    2.794810e+00
  8.783349e+00    2.825448e+00
  8.799224e+00    2.863099e+00
  8.815100e+00    2.831926e+00
  8.830975e+00    2.827228e+00
  8.846851e+00    2.793359e+00
  8.862727e+00    2.761497e+00
  8.878602e+00    2.803349e+00
  8.894478e+00    2.798060e+00
  8.910353e+00    2.765217e+00
  8.926229e+00    2.811345e+00
  8.942104e+00    2.840497e+00
  8.957980e+00    2.817039e+00
  8.973856e+00    2.812764e+00
  8.989731e+00    2.743022e+00
  9.005607e+00    2.795365e+00
  9.021482e+00    2.772859e+00
  9.037358e+00    2.796679e+00
  9.053233e+00    2.814524e+00
  9.069109e+00    2.797455e+00
  9.084985e+00    2.795525e+00
  9.100860e+00    2.815599e+00
  9.116736e+00    2.857111e+00
  9.132611e+00    2.800280e+00
  9.148487e+00    2.744863e+00
  9.164362e+00    2.762861e+00
  9.180238e+00    2.759249e+00
  9.196114e+00    2.756429e+00
  9.211989e+00    2.732859e+00
  9.227865e+00    2.755089e+00
  9.243740e+00    2.740366e+00
  9.259616e+00    2.749156e+00
  9.275491e+00    2.746387e+00
  9.291367e+00    2.766302e+00
  9.307243e+00    2.772669e+00
  9.323118e+00    2.772124e+00
  9.338994e+00    2.748580e+00
  9.354869e+00    2.720919e+00
  9.370745e+00    2.713240e+00
  9.386620e+00    2.734035e+00
  9.402496e+00    2.748220e+00
  9.418372e+00    2.758132e+00
  9.434247e+00    2.699306e+00
  9.450123e+00    2.764204e+00
  9.465998e+00    2.737404e+00
  9.481874e+00    2.725234e+00
  9.497749e+00    2.747898e+00
  9.513625e+00    2.723079e+00
  9.529501e+00    2.691673e+00
  9.545376e+00    2.678156e+00
  9.561252e+00    2.693800e+00
  9.577127e+00    2.721027e+00
  9.593003e+00    2.722814e+00
  9.608878e+00    2.766954e+00
  9.624754e+00    2.805160e+00
  9.640630e+00    2.740962e+00
  9.656505e+00    2.704266e+00
  9.672381e+00    2.681040e+00
  9.688256e+00    2.710627e+00
  9.704132e+00    2.669651e+00
  9.720008e+00    2.719790e+00
  9.735883e+00    2.719110e+00
  9.751759e+00    2.698993e+00
  9.767634e+00    2.679886e+00
  9.783510e+00    2.677018e+00
  9.799385e+00    2.658158e+00
  9.815261e+00    2.574029e+00
  9.831137e+00    2.649007e+00
  9.847012e+00    2.713622e+00
  9.862888e+00    2.755932e+00
  9.878763e+00    2.709570e+00
  9.894639e+00    2.660497e+00
  9.910514e+00    2.686227e+00
  9.926390e+00    2.692387e+00
  9.942266e+00    2.708309e+00
  9.958141e+00    2.685079e+00
  9.974017e+00    2.662178e+00
  9.989892e+00    2.648569e+00
  1.000577e+01    2.667862e+00
  1.002164e+01    2.710461e+00
  1.003752e+01    2.698618e+00
  1.005339e+01    2.661432e+00
  1.006927e+01    2.606712e+00
  1.008515e+01    2.639807e+00
  1.010102e+01    2.663745e+00
  1.011690e+01    2.626960e+00
  1.013277e+01    2.589467e+00
  1.014865e+01    2.655607e+00
  1.016452e+01    2.619015e+00
  1.018040e+01    2.558014e+00
  1.019627e+01    2.577862e+00
  1.021215e+01    2.621448e+00
  1.022803e+01    2.626838e+00
  1.024390e+01    2.611449e+00
  1.025978e+01    2.608028e+00
  1.027565e+01    2.644410e+00
  1.029153e+01    2.646407e+00
  1.030740e+01    2.652397e+00
  1.032328e+01    2.633018e+00
  1.033915e+01    2.599444e+00
  1.035503e+01    2.572966e+00
  1.037091e+01    2.598463e+00
  1.038678e+01    2.617807e+00
  1.040266e+01    2.624487e+00
  1.041853e+01    2.562637e+00
  1.043441e+01    2.568538e+00
  1.045028e+01    2.557228e+00
  1.046616e+01    2.561670e+00
  1.048204e+01    2.534438e+00
  1.049791e+01    2.528019e+00
  1.051379e+01    2.553130e+00
  1.052966e+01    2.564831e+00
  1.054554e+01    2.560278e+00
  1.056141e+01    2.540104e+00
  1.057729e+01    2.533401e+00
  1.059316e+01    2.539845e+00
  1.060904e+01    2.616503e+00
  1.062492e+01    2.583525e+00
  1.064079e+01    2.490776e+00
  1.065667e+01    2.545824e+00
  1.067254e+01    2.578018e+00
  1.068842e+01    2.554602e+00
  1.070429e+01    2.586890e+00
  1.072017e+01    2.553416e+00
  1.073604e+01    2.514205e+00
  1.075192e+01    2.537411e+00
  1.076780e+01    2.544400e+00
  1.078367e+01    2.504801e+00
  1.079955e+01    2.460417e+00
  1.081542e+01    2.473784e+00
  1.083130e+01    2.528478e+00
  1.084717e+01    2.469704e+00
  1.086305e+01    2.449150e+00
  1.087892e+01    2.446338e+00
  1.089480e+01    2.498778e+00
  1.091068e+01    2.525722e+00
  1.092655e+01    2.485767e+00
  1.094243e+01    2.477672e+00
  1.095830e+01    2.509915e+00
  1.097418e+01    2.448578e+00
  1.099005e+01    2.444155e+00
  1.100593e+01    2.454450e+00
  1.102180e+01    2.440080e+00
  1.103768e+01    2.442434e+00
  1.105356e+01    2.446982e+00
  1.106943e+01    2.445287e+00
  1.108531e+01    2.418717e+00
  1.110118e+01    2.419108e+00
  1.111706e+01    2.426010e+00
  1.113293e+01    2.455627e+00
  1.114881e+01    2.401223e+00
  1.116468e+01    2.427353e+00
  1.118056e+01    2.439261e+00
  1.119644e+01    2.396099e+00
  1.121231e+01    2.376248e+00
  1.122819e+01    2.429524e+00
  1.124406e+01    2.443739e+00
  1.125994e+01    2.401481e+00
  1.127581e+01    2.448070e+00
  1.129169e+01    2.420166e+00
  1.130756e+01    2.422560e+00
  1.132344e+01    2.433264e+00
  1.133932e+01    2.426883e+00
  1.135519e+01    2.424946e+00
  1.137107e+01    2.417747e+00
  1.138694e+01    2.385434e+00
  1.140282e+01    2.418704e+00
  1.141869e+01    2.412509e+00
  1.143457e+01    2.390798e+00
  1.145045e+01    2.338872e+00
  1.146632e+01    2.358357e+00
  1.148220e+01    2.377371e+00
  1.149807e+01    2.418549e+00
  1.151395e+01    2.387481e+00
  1.152982e+01    2.366456e+00
  1.154570e+01    2.336714e+00
  1.156157e+01    2.346411e+00
  1.157745e+01    2.395867e+00
  1.159333e+01    2.416146e+00
  1.160920e+01    2.413514e+00
  1.162508e+01    2.349762e+00
  1.164095e+01    2.357717e+00
  1.165683e+01    2.380078e+00
  1.167270e+01    2.403845e+00
  1.168858e+01    2.389413e+00
  1.170445e+01    2.348509e+00
  1.172033e+01    2.316333e+00
  1.173621e+01    2.323776e+00
  1.175208e+01    2.300244e+00
  1.176796e+01    2.300094e+00
  1.178383e+01    2.326798e+00
  1.179971e+01    2.322433e+00
  1.181558e+01    2.320027e+00
  1.183146e+01    2.321506e+00
  1.184733e+01    2.330290e+00
  1.186321e+01    2.332547e+00
  1.187909e+01    2.319636e+00
  1.189496e+01    2.299220e+00
  1.191084e+01    2.359932e+00
  1.192671e+01    2.327311e+00
  1.194259e+01    2.302283e+00
  1.195846e+01    2.332993e+00
  1.197434e+01    2.324797e+00
  1.199021e+01    2.309424e+00
  1.200609e+01    2.329952e+00
  1.202197e+01    2.312223e+00
  1.203784e+01    2.312491e+00
  1.205372e+01    2.282678e+00
  1.206959e+01    2.281287e+00
  1.208547e+01    2.317610e+00
  1.210134e+01    2.333656e+00
  1.211722e+01    2.338076e+00
  1.213309e+01    2.317056e+00
  1.214897e+01    2.307573e+00
  1.216485e+01    2.331636e+00
  1.218072e+01    2.288275e+00
  1.219660e+01    2.255401e+00
  1.221247e+01    2.257716e+00
  1.222835e+01    2.304072e+00
  1.224422e+01    2.317844e+00
  1.226010e+01    2.297344e+00
  1.227597e+01    2.348163e+00
  1.229185e+01    2.314389e+00
  1.230773e+01    2.270900e+00
  1.232360e+01    2.264565e+00
  1.233948e+01    2.337729e+00
  1.235535e+01    2.324802e+00
  1.237123e+01    2.259149e+00
  1.238710e+01    2.266787e+00
  1.240298e+01    2.288125e+00
  1.241886e+01    2.310920e+00
  1.243473e+01    2.312340e+00
  1.245061e+01    2.312757e+00
  1.246648e+01    2.322494e+00
  1.248236e+01    2.354540e+00
  1.249823e+01    2.332020e+00
  1.251411e+01    2.347934e+00
  1.252998e+01    2.386037e+00
  1.254586e+01    2.375251e+00
  1.256174e+01    2.331407e+00
  1.257761e+01    2.343997e+00
  1.259349e+01    2.348550e+00
  1.260936e+01    2.364582e+00
  1.262524e+01    2.400680e+00
  1.264111e+01    2.447686e+00
  1.265699e+01    2.437267e+00
  1.267286e+01    2.442298e+00
  1.268874e+01    2.459404e+00
  1.270462e+01    2.516314e+00
  1.272049e+01    2.512608e+00
  1.273637e+01    2.513157e+00
  1.275224e+01    2.547649e+00
  1.276812e+01    2.592304e+00
  1.278399e+01    2.604853e+00
  1.279987e+01    2.628921e+00
  1.281574e+01    2.709950e+00
  1.283162e+01    2.776825e+00
  1.284750e+01    2.849498e+00
  1.286337e+01    2.926084e+00
  1.287925e+01    2.999588e+00
  1.289512e+01    3.119832e+00
  1.291100e+01    3.243867e+00
  1.292687e+01    3.431430e+00
  1.294275e+01    3.710531e+00
  1.295862e+01    3.981438e+00
  1.297450e+01    4.340448e+00
  1.299038e+01    4.756122e+00
  1.300625e+01    5.405695e+00
  1.302213e+01    6.089901e+00
  1.303800e+01    6.962357e+00
  1.305388e+01    8.125733e+00
  1.306975e+01    9.436859e+00
  1.308563e+01    1.091153e+01
  1.310150e+01    1.221004e+01
  1.311738e+01    1.350473e+01
  1.313326e+01    1.489930e+01
  1.314913e+01    1.615756e+01
  1.316501e+01    1.705746e+01
  1.318088e+01    1.779650e+01
  1.319676e+01    1.789983e+01
  1.321263e+01    1.696362e+01
  1.322851e+01    1.510643e+01
  1.324438e+01    1.301670e+01
  1.326026e+01    1.100948e+01
  1.327614e+01    9.222667e+00
  1.329201e+01    7.796847e+00
  1.330789e+01    6.712937e+00
  1.332376e+01    5.837508e+00
  1.333964e+01    5.142617e+00
  1.335551e+01    4.591663e+00
  1.337139e+01    4.170146e+00
  1.338727e+01    3.872463e+00
  1.340314e+01    3.564327e+00
  1.341902e+01    3.379549e+00
  1.343489e+01    3.201846e+00
  1.345077e+01    3.057041e+00
  1.346664e+01    2.929458e+00
  1.348252e+01    2.852829e+00
  1.349839e+01    2.728378e+00
  1.351427e+01    2.656033e+00
  1.353015e+01    2.599882e+00
  1.354602e+01    2.506734e+00
  1.356190e+01    2.511630e+00
  1.357777e+01    2.470696e+00
  1.359365e+01    2.445903e+00
  1.360952e+01    2.352675e+00
  1.362540e+01    2.329232e+00
  1.364127e+01    2.333223e+00
  1.365715e+01    2.293478e+00
  1.367303e+01    2.303694e+00
  1.368890e+01    2.265700e+00
  1.370478e+01    2.239501e+00
  1.372065e+01    2.213589e+00
  1.373653e+01    2.237845e+00
  1.375240e+01    2.212464e+00
  1.376828e+01    2.189501e+00
  1.378415e+01    2.138480e+00
  1.380003e+01    2.140772e+00
  1.381591e+01    2.126982e+00
  1.383178e+01    2.105897e+00
  1.384766e+01    2.105081e+00
  1.386353e+01    2.133836e+00
  1.387941e+01    2.136198e+00
  1.389528e+01    2.112499e+00
  1.391116e+01    2.076016e+00
  1.392703e+01    2.035557e+00
  1.394291e+01    2.039637e+00
  1.395879e+01    2.039325e+00
  1.397466e+01    2.034332e+00
  1.399054e+01    2.044844e+00
  1.400641e+01    2.035964e+00
  1.402229e+01    2.041663e+00
  1.403816e+01    2.082130e+00
  1.405404e+01    2.063055e+00
  1.406991e+01    2.049266e+00
  1.408579e+01    2.001570e+00
  1.410167e+01    1.949772e+00
  1.411754e+01    2.021569e+00
  1.413342e+01    2.005736e+00
  1.414929e+01    2.004516e+00
  1.416517e+01    1.982740e+00
  1.418104e+01    1.979046e+00
  1.419692e+01    1.961627e+00
  1.421279e+01    1.925862e+00
  1.422867e+01    1.968994e+00
  1.424455e+01    1.992800e+00
  1.426042e+01    1.945616e+00
  1.427630e+01    1.946297e+00
  1.429217e+01    1.948578e+00
  1.430805e+01    1.957331e+00
  1.432392e+01    1.964535e+00
  1.433980e+01    1.956676e+00
  1.435568e+01    1.940690e+00
  1.437155e+01    1.971017e+00
  1.438743e+01    1.915868e+00
  1.440330e+01    1.890217e+00
  1.441918e+01    1.878173e+00
  1.443505e+01    1.902597e+00
  1.445093e+01    1.924180e+00
  1.446680e+01    1.925342e+00
  1.448268e+01    1.896834e+00
  1.449856e+01    1.914734e+00
  1.451443e+01    1.898985e+00
  1.453031e+01    1.903578e+00
  1.454618e+01    1.892135e+00
  1.456206e+01    1.873071e+00
  1.457793e+01    1.899009e+00
  1.459381e+01    1.904079e+00
  1.460968e+01    1.876172e+00
  1.462556e+01    1.893878e+00
  1.464144e+01    1.893543e+00
  1.465731e+01    1.883187e+00
  1.467319e+01    1.897795e+00
  1.468906e+01    1.899012e+00
  1.470494e+01    1.884826e+00
  1.472081e+01    1.852410e+00
  1.473669e+01    1.881167e+00
  1.475256e+01    1.885483e+00
  1.476844e+01    1.871486e+00
  1.478432e+01    1.872769e+00
  1.480019e+01    1.934458e+00
  1.481607e+01    1.915033e+00
  1.483194e+01    1.911089e+00
  1.484782e+01    1.893683e+00
  1.486369e+01    1.905090e+00
  1.487957e+01    1.917286e+00
  1.489544e+01    1.927941e+00
  1.491132e+01    1.930244e+00
  1.492720e+01    1.916921e+00
  1.494307e+01    1.976022e+00
  1.495895e+01    2.032670e+00
  1.497482e+01    2.077241e+00
  1.499070e+01    2.096837e+00
  1.500657e+01    2.125509e+00
  1.502245e+01    2.195518e+00
  1.503832e+01    2.288104e+00
  1.505420e+01    2.392375e+00
  1.507008e+01    2.491909e+00
  1.508595e+01    2.642377e+00
  1.510183e+01    2.874245e+00
  1.511770e+01    3.084060e+00
  1.513358e+01    3.391704e+00
  1.514945e+01    3.723009e+00
  1.516533e+01    4.131529e+00
  1.518120e+01    4.554567e+00
  1.519708e+01    4.909053e+00
  1.521296e+01    5.269446e+00
  1.522883e+01    5.583895e+00
  1.524471e+01    5.844631e+00
  1.526058e+01    6.065735e+00
  1.527646e+01    6.082386e+00
  1.529233e+01    5.912498e+00
  1.530821e+01    5.700265e+00
  1.532409e+01    5.248089e+00
  1.533996e+01    4.687537e+00
  1.535584e+01    4.113741e+00
  1.537171e+01    3.610802e+00
  1.538759e+01    3.253060e+00
  1.540346e+01    2.942651e+00
  1.541934e+01    2.733013e+00
  1.543521e+01    2.523742e+00
  1.545109e+01    2.352705e+00
  1.546697e+01    2.250492e+00
  1.548284e+01    2.190499e+00
  1.549872e+01    2.139863e+00
  1.551459e+01    2.064718e+00
  1.553047e+01    2.014406e+00
  1.554634e+01    1.936910e+00
  1.556222e+01    1.904865e+00
  1.557809e+01    1.868518e+00
  1.559397e+01    1.876935e+00
  1.560985e+01    1.850888e+00
  1.562572e+01    1.790344e+00
  1.564160e+01    1.754348e+00
  1.565747e+01    1.761910e+00
  1.567335e+01    1.762995e+00
  1.568922e+01    1.733325e+00
  1.570510e+01    1.720206e+00
  1.572097e+01    1.744985e+00
  1.573685e+01    1.729139e+00
  1.575273e+01    1.713339e+00
  1.576860e+01    1.699452e+00
  1.578448e+01    1.714183e+00
  1.580035e+01    1.689759e+00
  1.581623e+01    1.663884e+00
  1.583210e+01    1.656857e+00
  1.584798e+01    1.653176e+00
  1.586385e+01    1.640499e+00
  1.587973e+01    1.645342e+00
  1.589561e+01    1.661694e+00
  1.591148e+01    1.618808e+00
  1.592736e+01    1.613554e+00
  1.594323e+01    1.600864e+00
  1.595911e+01    1.626349e+00
  1.597498e+01    1.643798e+00
  1.599086e+01    1.611641e+00
  1.600673e+01    1.605794e+00
  1.602261e+01    1.606471e+00
  1.603849e+01    1.610587e+00
  1.605436e+01    1.559218e+00
  1.607024e+01    1.554681e+00
  1.608611e+01    1.580693e+00
  1.610199e+01    1.591455e+00
  1.611786e+01    1.544422e+00
  1.613374e+01    1.542111e+00
  1.614961e+01    1.563587e+00
  1.616549e+01    1.576967e+00
  1.618137e+01    1.551687e+00
  1.619724e+01    1.550836e+00
  1.621312e+01    1.537002e+00
  1.622899e+01    1.550846e+00
  1.624487e+01    1.560864e+00
  1.626074e+01    1.551359e+00
  1.627662e+01    1.559529e+00
  1.629250e+01    1.529937e+00
  1.630837e+01    1.532826e+00
  1.632425e+01    1.524231e+00
  1.634012e+01    1.513366e+00
  1.635600e+01    1.521274e+00
  1.637187e+01    1.528821e+00
  1.638775e+01    1.535913e+00
  1.640362e+01    1.518993e+00
  1.641950e+01    1.529540e+00
  1.643538e+01    1.539570e+00
  1.645125e+01    1.512687e+00
  1.646713e+01    1.492817e+00
  1.648300e+01    1.515542e+00
  1.649888e+01    1.496194e+00
  1.651475e+01    1.490889e+00
  1.653063e+01    1.498116e+00
  1.654650e+01    1.512332e+00
  1.656238e+01    1.516343e+00
  1.657826e+01    1.519998e+00
  1.659413e+01    1.492333e+00
  1.661001e+01    1.485157e+00
  1.662588e+01    1.470187e+00
  1.664176e+01    1.472300e+00
  1.665763e+01    1.468300e+00
  1.667351e+01    1.500244e+00
  1.668938e+01    1.484314e+00
  1.670526e+01    1.467243e+00
  1.672114e+01    1.440944e+00
  1.673701e+01    1.461648e+00
  1.675289e+01    1.443035e+00
  1.676876e+01    1.479073e+00
  1.678464e+01    1.497296e+00
  1.680051e+01    1.493079e+00
  1.681639e+01    1.468276e+00
  1.683226e+01    1.454377e+00
  1.684814e+01    1.442491e+00
  1.686402e+01    1.428432e+00
  1.687989e+01    1.443538e+00
  1.689577e+01    1.424924e+00
  1.691164e+01    1.415887e+00
  1.692752e+01    1.441672e+00
  1.694339e+01    1.444126e+00
  1.695927e+01    1.474248e+00
  1.697514e+01    1.449880e+00
  1.699102e+01    1.434639e+00
  1.700690e+01    1.398605e+00
  1.702277e+01    1.416643e+00
  1.703865e+01    1.414664e+00
  1.705452e+01    1.411478e+00
  1.707040e+01    1.393784e+00
  1.708627e+01    1.395332e+00
  1.710215e+01    1.405301e+00
  1.711802e+01    1.378262e+00
  1.713390e+01    1.386260e+00
  1.714978e+01    1.384806e+00
  1.716565e+01    1.370485e+00
  1.718153e+01    1.373195e+00
  1.719740e+01    1.378466e+00
  1.721328e+01    1.398058e+00
  1.722915e+01    1.389415e+00
  1.724503e+01    1.385572e+00
  1.726091e+01    1.417743e+00
  1.727678e+01    1.397380e+00
  1.729266e+01    1.352119e+00
  1.730853e+01    1.344481e+00
  1.732441e+01    1.353693e+00
  1.734028e+01    1.378268e+00
  1.735616e+01    1.376458e+00
  1.737203e+01    1.367057e+00
  1.738791e+01    1.365082e+00
  1.740379e+01    1.367171e+00
  1.741966e+01    1.367218e+00
  1.743554e+01    1.360101e+00
  1.745141e+01    1.360048e+00
  1.746729e+01    1.362536e+00
  1.748316e+01    1.335633e+00
  1.749904e+01    1.351797e+00
  1.751491e+01    1.354926e+00
  1.753079e+01    1.356063e+00
  1.754667e+01    1.337481e+00
  1.756254e+01    1.345604e+00
  1.757842e+01    1.354596e+00
  1.759429e+01    1.349660e+00
  1.761017e+01    1.346902e+00
  1.762604e+01    1.349290e+00
  1.764192e+01    1.317172e+00
  1.765779e+01    1.325836e+00
  1.767367e+01    1.350731e+00
  1.768955e+01    1.335693e+00
  1.770542e+01    1.292383e+00
  1.772130e+01    1.304949e+00
  1.773717e+01    1.311991e+00
  1.775305e+01    1.326597e+00
  1.776892e+01    1.334751e+00
  1.778480e+01    1.336154e+00
  1.780067e+01    1.316467e+00
  1.781655e+01    1.321074e+00
  1.783243e+01    1.301677e+00
  1.784830e+01    1.307669e+00
  1.786418e+01    1.328265e+00
  1.788005e+01    1.315857e+00
  1.789593e+01    1.318924e+00
  1.791180e+01    1.313211e+00
  1.792768e+01    1.278857e+00
  1.794355e+01    1.289452e+00
  1.795943e+01    1.304717e+00
  1.797531e+01    1.299462e+00
  1.799118e+01    1.314708e+00
  1.800706e+01    1.300914e+00
  1.802293e+01    1.281465e+00
  1.803881e+01    1.283651e+00
  1.805468e+01    1.260767e+00
  1.807056e+01    1.279594e+00
  1.808643e+01    1.283541e+00
  1.810231e+01    1.251835e+00
  1.811819e+01    1.270062e+00
  1.813406e+01    1.274827e+00
  1.814994e+01    1.276483e+00
  1.816581e+01    1.280673e+00
  1.818169e+01    1.257075e+00
  1.819756e+01    1.246752e+00
  1.821344e+01    1.249630e+00
  1.822932e+01    1.260531e+00
  1.824519e+01    1.259784e+00
  1.826107e+01    1.274414e+00
  1.827694e+01    1.255374e+00
  1.829282e+01    1.288924e+00
  1.830869e+01    1.292008e+00
  1.832457e+01    1.287920e+00
  1.834044e+01    1.279462e+00
  1.835632e+01    1.271144e+00
  1.837220e+01    1.265801e+00
  1.838807e+01    1.256095e+00
  1.840395e+01    1.222649e+00
  1.841982e+01    1.221462e+00
  1.843570e+01    1.251571e+00
  1.845157e+01    1.227061e+00
  1.846745e+01    1.223578e+00
  1.848332e+01    1.257327e+00
  1.849920e+01    1.271903e+00
  1.851508e+01    1.252277e+00
  1.853095e+01    1.225428e+00
  1.854683e+01    1.226691e+00
  1.856270e+01    1.237184e+00
  1.857858e+01    1.229986e+00
  1.859445e+01    1.231630e+00
  1.861033e+01    1.218035e+00
  1.862620e+01    1.245621e+00
  1.864208e+01    1.224458e+00
  1.865796e+01    1.229213e+00
  1.867383e+01    1.241268e+00
  1.868971e+01    1.214794e+00
  1.870558e+01    1.208941e+00
  1.872146e+01    1.198636e+00
  1.873733e+01    1.214775e+00
  1.875321e+01    1.198886e+00
  1.876908e+01    1.193461e+00
  1.878496e+01    1.220584e+00
  1.880084e+01    1.209121e+00
  1.881671e+01    1.182060e+00
  1.883259e+01    1.215437e+00
  1.884846e+01    1.197543e+00
  1.886434e+01    1.210075e+00
  1.888021e+01    1.214062e+00
  1.889609e+01    1.165011e+00
  1.891196e+01    1.179097e+00
  1.892784e+01    1.176394e+00
  1.894372e+01    1.178615e+00
  1.895959e+01    1.186071e+00
  1.897547e+01    1.179163e+00
  1.899134e+01    1.172063e+00
  1.900722e+01    1.182293e+00
  1.902309e+01    1.178223e+00
  1.903897e+01    1.170714e+00
  1.905484e+01    1.195782e+00
  1.907072e+01    1.175240e+00
  1.908660e+01    1.176992e+00
  1.910247e+01    1.190393e+00
  1.911835e+01    1.173614e+00
  1.913422e+01    1.162257e+00
  1.915010e+01    1.164663e+00
  1.916597e+01    1.154980e+00
  1.918185e+01    1.172402e+00
  1.919773e+01    1.159917e+00
  1.921360e+01    1.153166e+00
  1.922948e+01    1.179220e+00
  1.924535e+01    1.158759e+00
  1.926123e+01    1.164419e+00
  1.927710e+01    1.171725e+00
  1.929298e+01    1.162382e+00
  1.930885e+01    1.160454e+00
  1.932473e+01    1.170447e+00
  1.934061e+01    1.153181e+00
  1.935648e+01    1.156883e+00
  1.937236e+01    1.161585e+00
  1.938823e+01    1.170815e+00
  1.940411e+01    1.143226e+00
  1.941998e+01    1.162890e+00
  1.943586e+01    1.157936e+00
  1.945173e+01    1.164964e+00
  1.946761e+01    1.156350e+00
  1.948349e+01    1.136095e+00
  1.949936e+01    1.141972e+00
  1.951524e+01    1.163172e+00
  1.953111e+01    1.158670e+00
  1.954699e+01    1.144009e+00
  1.956286e+01    1.163906e+00
  1.957874e+01    1.142752e+00
  1.959461e+01    1.110586e+00
  1.961049e+01    1.120500e+00
  1.962637e+01    1.104508e+00
  1.964224e+01    1.145421e+00
  1.965812e+01    1.152453e+00
  1.967399e+01    1.150650e+00
  1.968987e+01    1.128637e+00
  1.970574e+01    1.099280e+00
  1.972162e+01    1.108779e+00
  1.973749e+01    1.141792e+00
  1.975337e+01    1.145148e+00
  1.976925e+01    1.143970e+00
  1.978512e+01    1.125290e+00
  1.980100e+01    1.130019e+00
  1.981687e+01    1.125004e+00
  1.983275e+01    1.118246e+00
  1.984862e+01    1.105890e+00
  1.986450e+01    1.108574e+00
  1.988037e+01    1.125400e+00
  1.989625e+01    1.116712e+00
  1.991213e+01    1.120437e+00
  1.992800e+01    1.122783e+00
  1.994388e+01    1.114837e+00
  1.995975e+01    1.114669e+00
  1.997563e+01    1.110242e+00
  1.999150e+01    1.107352e+00
  2.000738e+01    1.108605e+00
  2.002325e+01    1.122826e+00
  2.003913e+01    1.122747e+00
  2.005501e+01    1.111295e+00
  2.007088e+01    1.123122e+00
  2.008676e+01    1.113470e+00
  2.010263e+01    1.121145e+00
  2.011851e+01    1.126923e+00
  2.013438e+01    1.128244e+00
  2.015026e+01    1.100003e+00
  2.016614e+01    1.089374e+00
  2.018201e+01    1.085387e+00
  2.019789e+01    1.095586e+00
  2.021376e+01    1.110838e+00
  2.022964e+01    1.095002e+00
  2.024551e+01    1.086453e+00
  2.026139e+01    1.100432e+00
  2.027726e+01    1.087338e+00
  2.029314e+01    1.090932e+00
  2.030902e+01    1.087584e+00
  2.032489e+01    1.074359e+00
  2.034077e+01    1.084590e+00
  2.035664e+01    1.074678e+00
  2.037252e+01    1.075269e+00
  2.038839e+01    1.084807e+00
  2.040427e+01    1.118830e+00
  2.042014e+01    1.106467e+00
  2.043602e+01    1.083886e+00
  2.045190e+01    1.105684e+00
  2.046777e+01    1.098123e+00
  2.048365e+01    1.079872e+00
  2.049952e+01    1.068071e+00
  2.051540e+01    1.054192e+00
  2.053127e+01    1.085760e+00
  2.054715e+01    1.100170e+00
  2.056302e+01    1.088753e+00
  2.057890e+01    1.065219e+00
  2.059478e+01    1.070244e+00
  2.061065e+01    1.062344e+00
  2.062653e+01    1.059208e+00
  2.064240e+01    1.074365e+00
  2.065828e+01    1.064546e+00
  2.067415e+01    1.055274e+00
  2.069003e+01    1.065187e+00
  2.070590e+01    1.064610e+00
  2.072178e+01    1.054175e+00
  2.073766e+01    1.072466e+00
  2.075353e+01    1.063925e+00
  2.076941e+01    1.061324e+00
  2.078528e+01    1.064988e+00
  2.080116e+01    1.080137e+00
  2.081703e+01    1.090487e+00
  2.083291e+01    1.086654e+00
  2.084878e+01    1.078668e+00
  2.086466e+01    1.088622e+00
  2.088054e+01    1.097256e+00
  2.089641e+01    1.101706e+00
  2.091229e+01    1.056185e+00
  2.092816e+01    1.068465e+00
  2.094404e+01    1.065204e+00
  2.095991e+01    1.076936e+00
  2.097579e+01    1.065823e+00
  2.099166e+01    1.071004e+00
  2.100754e+01    1.074217e+00
  2.102342e+01    1.091400e+00
  2.103929e+01    1.077318e+00
  2.105517e+01    1.076719e+00
  2.107104e+01    1.093096e+00
  2.108692e+01    1.072211e+00
  2.110279e+01    1.068553e+00
  2.111867e+01    1.064494e+00
  2.113455e+01    1.073734e+00
  2.115042e+01    1.101181e+00
  2.116630e+01    1.090368e+00
  2.118217e+01    1.076954e+00
  2.119805e+01    1.089293e+00
  2.121392e+01    1.095075e+00
  2.122980e+01    1.067152e+00
  2.124567e+01    1.087110e+00
  2.126155e+01    1.106974e+00
  2.127743e+01    1.112297e+00
  2.129330e+01    1.118296e+00
  2.130918e+01    1.128576e+00
  2.132505e+01    1.139848e+00
  2.134093e+01    1.128469e+00
  2.135680e+01    1.140574e+00
  2.137268e+01    1.168736e+00
  2.138855e+01    1.187538e+00
  2.140443e+01    1.190510e+00
  2.142031e+01    1.176774e+00
  2.143618e+01    1.194633e+00
  2.145206e+01    1.219319e+00
  2.146793e+01    1.241047e+00
  2.148381e+01    1.244292e+00
  2.149968e+01    1.266147e+00
  2.151556e+01    1.298097e+00
  2.153143e+01    1.313173e+00
  2.154731e+01    1.333981e+00
  2.156319e+01    1.409369e+00
  2.157906e+01    1.456031e+00
  2.159494e+01    1.524868e+00
  2.161081e+01    1.566307e+00
  2.162669e+01    1.665429e+00
  2.164256e+01    1.766631e+00
  2.165844e+01    1.908072e+00
  2.167431e+01    2.066190e+00
  2.169019e+01    2.239126e+00
  2.170607e+01    2.466002e+00
  2.172194e+01    2.744943e+00
  2.173782e+01    3.141729e+00
  2.175369e+01    3.573275e+00
  2.176957e+01    4.062375e+00
  2.178544e+01    4.634318e+00
  2.180132e+01    5.369444e+00
  2.181719e+01    6.030722e+00
  2.183307e+01    6.747427e+00
  2.184895e+01    7.530225e+00
  2.186482e+01    8.321158e+00
  2.188070e+01    9.134687e+00
  2.189657e+01    9.638167e+00
  2.191245e+01    9.922067e+00
  2.192832e+01    9.750562e+00
  2.194420e+01    9.152062e+00
  2.196007e+01    8.248728e+00
  2.197595e+01    7.149146e+00
  2.199183e+01    6.147937e+00
  2.200770e+01    5.209294e+00
  2.202358e+01    4.390147e+00
  2.203945e+01    3.768910e+00
  2.205533e+01    3.256774e+00
  2.207120e+01    2.836367e+00
  2.208708e+01    2.527772e+00
  2.210296e+01    2.295844e+00
  2.211883e+01    2.095105e+00
  2.213471e+01    1.927567e+00
  2.215058e+01    1.799932e+00
  2.216646e+01    1.687421e+00
  2.218233e+01    1.613209e+00
  2.219821e+01    1.538843e+00
  2.221408e+01    1.475301e+00
  2.222996e+01    1.395477e+00
  2.224584e+01    1.325112e+00
  2.226171e+01    1.276080e+00
  2.227759e+01    1.235788e+00
  2.229346e+01    1.220913e+00
  2.230934e+01    1.208782e+00
  2.232521e+01    1.182479e+00
  2.234109e+01    1.171418e+00
  2.235696e+01    1.143518e+00
  2.237284e+01    1.153355e+00
  2.238872e+01    1.124999e+00
  2.240459e+01    1.073953e+00
  2.242047e+01    1.075165e+00
  2.243634e+01    1.068223e+00
  2.245222e+01    1.048399e+00
  2.246809e+01    1.043172e+00
  2.248397e+01    1.029219e+00
  2.249984e+01    1.026034e+00
  2.251572e+01    1.020511e+00
  2.253160e+01    1.007741e+00
  2.254747e+01    1.002013e+00
  2.256335e+01    1.005760e+00
  2.257922e+01    1.006682e+00
  2.259510e+01    9.857243e-01
  2.261097e+01    9.838365e-01
  2.262685e+01    9.781259e-01
  2.264272e+01    9.624225e-01
  2.265860e+01    9.591122e-01
  2.267448e+01    9.464563e-01
  2.269035e+01    9.601042e-01
  2.270623e+01    9.653798e-01
  2.272210e+01    9.640445e-01
  2.273798e+01    9.402116e-01
  2.275385e+01    9.440033e-01
  2.276973e+01    9.288261e-01
  2.278560e+01    9.432780e-01
  2.280148e+01    9.380910e-01
  2.281736e+01    9.189308e-01
  2.283323e+01    9.275293e-01
  2.284911e+01    9.110158e-01
  2.286498e+01    9.168093e-01
  2.288086e+01    9.190071e-01
  2.289673e+01    9.058028e-01
  2.291261e+01    8.931532e-01
  2.292848e+01    8.926668e-01
  2.294436e+01    8.939463e-01
  2.296024e+01    8.983067e-01
  2.297611e+01    9.029490e-01
  2.299199e+01    9.076773e-01
  2.300786e+01    8.958107e-01
  2.302374e+01    9.224136e-01
  2.303961e+01    9.026511e-01
  2.305549e+01    8.972161e-01
  2.307137e+01    8.808289e-01
  2.308724e+01    8.643497e-01
  2.310312e+01    8.859795e-01
  2.311899e+01    8.777907e-01
  2.313487e+01    8.906085e-01
  2.315074e+01    8.749409e-01
  2.316662e+01    8.757043e-01
  2.318249e+01    8.880364e-01
  2.319837e+01    8.866454e-01
  2.321425e+01    8.801299e-01
  2.323012e+01    8.884530e-01
  2.324600e+01    8.666577e-01
  2.326187e+01    8.505717e-01
  2.327775e+01    8.611703e-01
  2.329362e+01    8.647780e-01
  2.330950e+01    8.681597e-01
  2.332537e+01    8.695149e-01
  2.334125e+01    8.454837e-01
  2.335713e+01    8.475277e-01
  2.337300e+01    8.455632e-01
  2.338888e+01    8.506721e-01
  2.340475e+01    8.497695e-01
  2.342063e+01    8.565603e-01
  2.343650e+01    8.383104e-01
  2.345238e+01    8.521762e-01
  2.346825e+01    8.680924e-01
  2.348413e+01    8.500226e-01
  2.350001e+01    8.476534e-01
  2.351588e+01    8.364648e-01
  2.353176e+01    8.344108e-01
  2.354763e+01    8.332798e-01
  2.356351e+01    8.078769e-01
  2.357938e+01    8.111741e-01
  2.359526e+01    8.310660e-01
  2.361113e+01    8.501168e-01
  2.362701e+01    8.466303e-01
  2.364289e+01    8.539671e-01
  2.365876e+01    8.606901e-01
  2.367464e+01    8.395668e-01
  2.369051e+01    8.227524e-01
  2.370639e+01    8.256952e-01
  2.372226e+01    8.401087e-01
  2.373814e+01    8.164089e-01
  2.375401e+01    8.010606e-01
  2.376989e+01    8.181571e-01
  2.378577e+01    8.042390e-01
  2.380164e+01    7.936737e-01
  2.381752e+01    8.100550e-01
  2.383339e+01    7.847463e-01
  2.384927e+01    7.843825e-01
  2.386514e+01    8.219301e-01
  2.388102e+01    7.952594e-01
  2.389689e+01    7.768728e-01
  2.391277e+01    7.868621e-01
  2.392865e+01    7.989557e-01
  2.394452e+01    7.995345e-01
  2.396040e+01    8.023077e-01
  2.397627e+01    7.957235e-01
  2.399215e+01    7.990509e-01
  2.400802e+01    7.919903e-01
  2.402390e+01    7.731434e-01
  2.403978e+01    7.754762e-01
  2.405565e+01    7.810436e-01
  2.407153e+01    7.917587e-01
  2.408740e+01    7.634796e-01
  2.410328e+01    7.732691e-01
  2.411915e+01    7.840395e-01
  2.413503e+01    7.550486e-01
  2.415090e+01    7.702938e-01
  2.416678e+01    7.839196e-01
  2.418266e+01    7.861540e-01
  2.419853e+01    7.753776e-01
  2.421441e+01    7.469210e-01
  2.423028e+01    7.686642e-01
  2.424616e+01    7.780297e-01
  2.426203e+01    7.852981e-01
  2.427791e+01    7.806199e-01
  2.429378e+01    7.703457e-01
  2.430966e+01    7.774953e-01
  2.432554e+01    7.924318e-01
  2.434141e+01    8.089389e-01
  2.435729e+01    7.919531e-01
  2.437316e+01    7.882253e-01
  2.438904e+01    7.796984e-01
  2.440491e+01    7.720494e-01
  2.442079e+01    7.696432e-01
  2.443666e+01    7.737025e-01
  2.445254e+01    8.073274e-01
  2.446842e+01    7.955290e-01
  2.448429e+01    7.845581e-01
  2.450017e+01    7.803611e-01
  2.451604e+01    8.020905e-01
  2.453192e+01    7.823151e-01
  2.454779e+01    7.975963e-01
  2.456367e+01    8.066910e-01
  2.457954e+01    7.842955e-01
  2.459542e+01    7.843983e-01
  2.461130e+01    7.784560e-01
  2.462717e+01    7.894448e-01
  2.464305e+01    7.854216e-01
  2.465892e+01    7.886881e-01
  2.467480e+01    7.782401e-01
  2.469067e+01    7.969013e-01
  2.470655e+01    8.109471e-01
  2.472242e+01    7.954109e-01
  2.473830e+01    7.958404e-01
  2.475418e+01    7.985097e-01
  2.477005e+01    8.111635e-01
  2.478593e+01    7.981483e-01
  2.480180e+01    7.718186e-01
  2.481768e+01    8.051409e-01
  2.483355e+01    7.852898e-01
  2.484943e+01    7.962524e-01
  2.486530e+01    7.773737e-01
  2.488118e+01    7.898551e-01
  2.489706e+01    7.952624e-01
  2.491293e+01    7.827514e-01
  2.492881e+01    8.094615e-01
  2.494468e+01    7.941004e-01
  2.496056e+01    7.874015e-01
  2.497643e+01    7.901747e-01
  2.499231e+01    7.932620e-01
  2.500819e+01    7.908908e-01
  2.502406e+01    8.097817e-01
  2.503994e+01    8.078608e-01
  2.505581e+01    7.911077e-01
  2.507169e+01    8.000237e-01
  2.508756e+01    8.089961e-01
  2.510344e+01    8.069738e-01
  2.511931e+01    8.198143e-01
  2.513519e+01    8.096832e-01
  2.515107e+01    8.125693e-01
  2.516694e+01    8.430460e-01
  2.518282e+01    8.380688e-01
  2.519869e+01    8.378142e-01
  2.521457e+01    8.464894e-01
  2.523044e+01    8.403923e-01
  2.524632e+01    8.296511e-01
  2.526219e+01    8.386312e-01
  2.527807e+01    8.749250e-01
  2.529395e+01    8.566727e-01
  2.530982e+01    8.649529e-01
  2.532570e+01    8.539083e-01
  2.534157e+01    8.758978e-01
  2.535745e+01    8.983445e-01
  2.537332e+01    8.863709e-01
  2.538920e+01    9.019746e-01
  2.540507e+01    9.012321e-01
  2.542095e+01    9.003351e-01
  2.543683e+01    9.120992e-01
  2.545270e+01    9.288936e-01
  2.546858e+01    9.320656e-01
  2.548445e+01    9.412503e-01
  2.550033e+01    9.794930e-01
  2.551620e+01    9.802013e-01
  2.553208e+01    9.924432e-01
  2.554795e+01    9.882256e-01
  2.556383e+01    1.019993e+00
  2.557971e+01    1.042930e+00
  2.559558e+01    1.087343e+00
  2.561146e+01    1.125930e+00
  2.562733e+01    1.161672e+00
  2.564321e+01    1.206664e+00
  2.565908e+01    1.241377e+00
  2.567496e+01    1.313538e+00
  2.569083e+01    1.381865e+00
  2.570671e+01    1.477175e+00
  2.572259e+01    1.580003e+00
  2.573846e+01    1.682199e+00
  2.575434e+01    1.832348e+00
  2.577021e+01    2.002720e+00
  2.578609e+01    2.195965e+00
  2.580196e+01    2.457593e+00
  2.581784e+01    2.771035e+00
  2.583371e+01    3.189586e+00
  2.584959e+01    3.618583e+00
  2.586547e+01    4.198267e+00
  2.588134e+01    4.815256e+00
  2.589722e+01    5.511278e+00
  2.591309e+01    6.201427e+00
  2.592897e+01    6.893766e+00
  2.594484e+01    7.494219e+00
  2.596072e+01    7.936529e+00
  2.597660e+01    8.181715e+00
  2.599247e+01    8.042213e+00
  2.600835e+01    7.658110e+00
  2.602422e+01    6.993135e+00
  2.604010e+01    6.197590e+00
  2.605597e+01    5.398130e+00
  2.607185e+01    4.563744e+00
  2.608772e+01    3.897211e+00
  2.610360e+01    3.371479e+00
  2.611948e+01    2.922922e+00
  2.613535e+01    2.559920e+00
  2.615123e+01    2.299486e+00
  2.616710e+01    2.049438e+00
  2.618298e+01    1.846995e+00
  2.619885e+01    1.731143e+00
  2.621473e+01    1.587488e+00
  2.623060e+01    1.492560e+00
  2.624648e+01    1.405664e+00
  2.626236e+01    1.335092e+00
  2.627823e+01    1.274331e+00
  2.629411e+01    1.236326e+00
  2.630998e+01    1.194399e+00
  2.632586e+01    1.136362e+00
  2.634173e+01    1.096990e+00
  2.635761e+01    1.067616e+00
  2.637348e+01    1.041122e+00
  2.638936e+01    1.023662e+00
  2.640524e+01    1.010446e+00
  2.642111e+01    9.977562e-01
  2.643699e+01    9.911661e-01
  2.645286e+01    9.899837e-01
  2.646874e+01    9.735761e-01
  2.648461e+01    9.574875e-01
  2.650049e+01    9.455453e-01
  2.651636e+01    9.453542e-01
  2.653224e+01    9.437895e-01
  2.654812e+01    9.269248e-01
  2.656399e+01    9.251876e-01
  2.657987e+01    9.282476e-01
  2.659574e+01    9.264281e-01
  2.661162e+01    9.313215e-01
  2.662749e+01    9.351532e-01
  2.664337e+01    9.211677e-01
  2.665924e+01    9.061170e-01
  2.667512e+01    8.968717e-01
  2.669100e+01    9.035344e-01
  2.670687e+01    8.930619e-01
  2.672275e+01    8.927201e-01
  2.673862e+01    8.874887e-01
  2.675450e+01    8.890597e-01
  2.677037e+01    9.023966e-01
  2.678625e+01    8.995677e-01
  2.680212e+01    8.943245e-01
  2.681800e+01    8.935658e-01
  2.683388e+01    8.866314e-01
  2.684975e+01    8.795744e-01
  2.686563e+01    8.939797e-01
  2.688150e+01    8.953061e-01
  2.689738e+01    9.032936e-01
  2.691325e+01    9.159695e-01
  2.692913e+01    9.423925e-01
  2.694501e+01    9.437344e-01
  2.696088e+01    9.472629e-01
  2.697676e+01    9.469368e-01
  2.699263e+01    9.665567e-01
  2.700851e+01    9.980086e-01
  2.702438e+01    1.045197e+00
  2.704026e+01    1.075544e+00
  2.705613e+01    1.148964e+00
  2.707201e+01    1.212514e+00
  2.708789e+01    1.235253e+00
  2.710376e+01    1.355067e+00
  2.711964e+01    1.487331e+00
  2.713551e+01    1.584851e+00
  2.715139e+01    1.714479e+00
  2.716726e+01    1.885500e+00
  2.718314e+01    2.020834e+00
  2.719901e+01    2.155321e+00
  2.721489e+01    2.263749e+00
  2.723077e+01    2.347545e+00
  2.724664e+01    2.332874e+00
  2.726252e+01    2.288982e+00
  2.727839e+01    2.169637e+00
  2.729427e+01    2.067497e+00
  2.731014e+01    1.854381e+00
  2.732602e+01    1.681662e+00
  2.734189e+01    1.539662e+00
  2.735777e+01    1.405238e+00
  2.737365e+01    1.295314e+00
  2.738952e+01    1.213694e+00
  2.740540e+01    1.135180e+00
  2.742127e+01    1.093129e+00
  2.743715e+01    1.056539e+00
  2.745302e+01    1.015445e+00
  2.746890e+01    9.877602e-01
  2.748477e+01    9.769135e-01
  2.750065e+01    9.224500e-01
  2.751653e+01    9.057619e-01
  2.753240e+01    8.977134e-01
  2.754828e+01    8.986676e-01
  2.756415e+01    8.829336e-01
  2.758003e+01    8.871158e-01
  2.759590e+01    8.807084e-01
  2.761178e+01    8.590678e-01
  2.762765e+01    8.331075e-01
  2.764353e+01    8.308925e-01
  2.765941e+01    8.382503e-01
  2.767528e+01    8.351698e-01
  2.769116e+01    8.227331e-01
  2.770703e+01    8.401520e-01
  2.772291e+01    8.149643e-01
  2.773878e+01    8.312526e-01
  2.775466e+01    8.445880e-01
  2.777054e+01    8.168979e-01
  2.778641e+01    8.134480e-01
  2.780229e+01    8.141785e-01
  2.781816e+01    8.126574e-01
  2.783404e+01    8.153427e-01
  2.784991e+01    8.194134e-01
  2.786579e+01    7.927324e-01
  2.788166e+01    7.851058e-01
  2.789754e+01    8.020172e-01
  2.791342e+01    8.040229e-01
  2.792929e+01    7.958074e-01
  2.794517e+01    7.912129e-01
  2.796104e+01    7.860238e-01
  2.797692e+01    7.902423e-01
  2.799279e+01    7.929987e-01
  2.800867e+01    7.975833e-01
  2.802454e+01    7.836082e-01
  2.804042e+01    7.722538e-01
  2.805630e+01    7.915048e-01
  2.807217e+01    7.871499e-01
  2.808805e+01    7.662520e-01
  2.810392e+01    7.757456e-01
  2.811980e+01    7.821311e-01
  2.813567e+01    7.726209e-01
  2.815155e+01    7.858809e-01
  2.816742e+01    7.830848e-01
  2.818330e+01    7.766355e-01
  2.819918e+01    7.799780e-01
  2.821505e+01    7.668012e-01
  2.823093e+01    7.703645e-01
  2.824680e+01    8.115789e-01
  2.826268e+01    8.033069e-01
  2.827855e+01    7.621007e-01
  2.829443e+01    7.678016e-01
  2.831030e+01    7.784811e-01
  2.832618e+01    7.715948e-01
  2.834206e+01    7.575549e-01
  2.835793e+01    7.636417e-01
  2.837381e+01    7.510506e-01
  2.838968e+01    7.531877e-01
  2.840556e+01    7.675784e-01
  2.842143e+01    7.848735e-01
  2.843731e+01    7.727371e-01
  2.845318e+01    7.467890e-01
  2.846906e+01    7.409428e-01
  2.848494e+01    7.526305e-01
  2.850081e+01    7.579300e-01
  2.851669e+01    7.343446e-01
  2.853256e+01    7.833185e-01
  2.854844e+01    7.579429e-01
  2.856431e+01    7.463366e-01
  2.858019e+01    7.583045e-01
  2.859606e+01    7.526215e-01
  2.861194e+01    7.527820e-01
  2.862782e+01    7.389610e-01
  2.864369e+01    7.746384e-01
  2.865957e+01    7.568626e-01
  2.867544e+01    7.523756e-01
  2.869132e+01    7.403106e-01
  2.870719e+01    7.265505e-01
  2.872307e+01    7.511373e-01
  2.873895e+01    7.557855e-01
  2.875482e+01    7.546568e-01
  2.877070e+01    7.704671e-01
  2.878657e+01    7.490200e-01
  2.880245e+01    7.444347e-01
  2.881832e+01    7.315169e-01
  2.883420e+01    7.259557e-01
  2.885007e+01    7.353001e-01
  2.886595e+01    7.278851e-01
  2.888183e+01    7.434860e-01
  2.889770e+01    7.385610e-01
  2.891358e+01    7.337657e-01
  2.892945e+01    7.405658e-01
  2.894533e+01    7.576056e-01
  2.896120e+01    7.469134e-01
  2.897708e+01    7.290121e-01
  2.899295e+01    7.352581e-01
  2.900883e+01    7.487518e-01
  2.902471e+01    7.429607e-01
  2.904058e+01    7.284642e-01
  2.905646e+01    7.331083e-01
  2.907233e+01    7.479504e-01
  2.908821e+01    7.346454e-01
  2.910408e+01    7.345690e-01
  2.911996e+01    7.541014e-01
  2.913583e+01    7.481977e-01
  2.915171e+01    7.509006e-01
  2.916759e+01    7.487577e-01
  2.918346e+01    7.163936e-01
  2.919934e+01    7.307162e-01
  2.921521e+01    7.507505e-01
  2.923109e+01    7.479896e-01
  2.924696e+01    7.301110e-01
  2.926284e+01    7.326336e-01
  2.927871e+01    7.235113e-01
  2.929459e+01    7.379740e-01
  2.931047e+01    7.386802e-01
  2.932634e+01    7.486311e-01
  2.934222e+01    7.444856e-01
  2.935809e+01    7.270651e-01
  2.937397e+01    7.064486e-01
  2.938984e+01    7.227416e-01
  2.940572e+01    7.313749e-01
  2.942159e+01    7.366816e-01
  2.943747e+01    7.292568e-01
  2.945335e+01    7.160239e-01
  2.946922e+01    7.366597e-01
  2.948510e+01    7.312739e-01
  2.950097e+01    7.225488e-01
  2.951685e+01    7.356961e-01
  2.953272e+01    7.451569e-01
  2.954860e+01    7.316448e-01
  2.956447e+01    7.130852e-01
  2.958035e+01    7.093862e-01
  2.959623e+01    7.398798e-01
  2.961210e+01    7.318352e-01
  2.962798e+01    7.163917e-01
  2.964385e+01    6.974458e-01
  2.965973e+01    7.083229e-01
  2.967560e+01    7.151208e-01
  2.969148e+01    6.960898e-01
  2.970736e+01    7.220418e-01
  2.972323e+01    7.147515e-01
  2.973911e+01    7.257488e-01
  2.975498e+01    7.155230e-01
  2.977086e+01    7.093043e-01
  2.978673e+01    7.153307e-01
  2.980261e+01    7.075268e-01
  2.981848e+01    7.256168e-01
  2.983436e+01    7.222286e-01
  2.985024e+01    7.064508e-01
  2.986611e+01    7.123203e-01
  2.988199e+01    7.167733e-01
  2.989786e+01    7.185804e-01
  2.991374e+01    6.999676e-01
  2.992961e+01    7.156824e-01
  2.994549e+01    7.088550e-01
  2.996136e+01    7.137145e-01
  2.997724e+01    7.418287e-01
  2.999312e+01    7.249250e-01
  3.000899e+01    7.258617e-01
  3.002487e+01    7.341057e-01
  3.004074e+01    7.348121e-01
  3.005662e+01    7.441545e-01
  3.007249e+01    7.349855e-01
  3.008837e+01    7.485788e-01
  3.010424e+01    7.235757e-01
  3.012012e+01    7.376432e-01
  3.013600e+01    7.514430e-01
  3.015187e+01    7.346839e-01
  3.016775e+01    7.275885e-01
  3.018362e+01    7.131466e-01
  3.019950e+01    7.318090e-01
  3.021537e+01    7.294593e-01
  3.023125e+01    7.252745e-01
  3.024712e+01    7.082297e-01
  3.026300e+01    7.074136e-01
  3.027888e+01    7.196754e-01
  3.029475e+01    7.120263e-01
  3.031063e+01    7.123401e-01
  3.032650e+01    7.155451e-01
  3.034238e+01    6.971161e-01
  3.035825e+01    7.008219e-01
  3.037413e+01    7.022514e-01
  3.039000e+01    7.186329e-01
  3.040588e+01    7.067212e-01
  3.042176e+01    7.156765e-01
  3.043763e+01    6.944011e-01
  3.045351e+01    6.946474e-01
  3.046938e+01    7.009857e-01
  3.048526e+01    7.198119e-01
  3.050113e+01    6.931249e-01
  3.051701e+01    7.149481e-01
  3.053288e+01    7.149349e-01
  3.054876e+01    6.982641e-01
  3.056464e+01    7.036675e-01
  3.058051e+01    6.988330e-01
  3.059639e+01    7.006861e-01
  3.061226e+01    7.122617e-01
  3.062814e+01    7.065214e-01
  3.064401e+01    7.256797e-01
  3.065989e+01    7.141891e-01
  3.067577e+01    7.257385e-01
  3.069164e+01    7.108968e-01
  3.070752e+01    7.273940e-01
  3.072339e+01    7.206308e-01
  3.073927e+01    6.986007e-01
  3.075514e+01    6.950420e-01
  3.077102e+01    6.991426e-01
  3.078689e+01    7.226850e-01
  3.080277e+01    7.091965e-01
  3.081865e+01    7.016993e-01
  3.083452e+01    6.950743e-01
  3.085040e+01    7.240772e-01
  3.086627e+01    7.395720e-01
  3.088215e+01    7.123936e-01
  3.089802e+01    7.136603e-01
  3.091390e+01    7.060466e-01
  3.092977e+01    7.107350e-01
  3.094565e+01    6.947615e-01
  3.096153e+01    6.968807e-01
  3.097740e+01    7.025328e-01
  3.099328e+01    7.358663e-01
  3.100915e+01    7.306204e-01
  3.102503e+01    7.225629e-01
  3.104090e+01    6.947286e-01
  3.105678e+01    7.151334e-01
  3.107265e+01    7.318709e-01
  3.108853e+01    7.247215e-01
  3.110441e+01    7.258745e-01
  3.112028e+01    7.452448e-01
  3.113616e+01    7.428151e-01
  3.115203e+01    7.263690e-01
  3.116791e+01    7.214032e-01
  3.118378e+01    7.137509e-01
  3.119966e+01    7.229733e-01
  3.121553e+01    7.163054e-01
  3.123141e+01    7.136648e-01
  3.124729e+01    7.396715e-01
  3.126316e+01    7.218521e-01
  3.127904e+01    7.521182e-01
  3.129491e+01    7.308689e-01
  3.131079e+01    7.400993e-01
  3.132666e+01    7.486945e-01
  3.134254e+01    7.599474e-01
  3.135841e+01    7.440937e-01
  3.137429e+01    7.286703e-01
  3.139017e+01    7.292648e-01
  3.140604e+01    7.290161e-01
  3.142192e+01    7.362346e-01
  3.143779e+01    7.510656e-01
  3.145367e+01    7.518208e-01
  3.146954e+01    7.384728e-01
  3.148542e+01    7.408133e-01
  3.150129e+01    7.732085e-01
  3.151717e+01    7.571037e-01
  3.153305e+01    7.536048e-01
  3.154892e+01    7.629693e-01
  3.156480e+01    7.847420e-01
  3.158067e+01    8.073409e-01
  3.159655e+01    8.181311e-01
  3.161242e+01    8.350449e-01
  3.162830e+01    8.436441e-01
  3.164418e+01    8.582557e-01
  3.166005e+01    8.651261e-01
  3.167593e+01    8.964980e-01
  3.169180e+01    9.171817e-01
  3.170768e+01    9.078727e-01
  3.172355e+01    9.568396e-01
  3.173943e+01    1.005454e+00
  3.175530e+01    1.079325e+00
  3.177118e+01    1.143426e+00
  3.178706e+01    1.213538e+00
  3.180293e+01    1.333961e+00
  3.181881e+01    1.446216e+00
  3.183468e+01    1.585462e+00
  3.185056e+01    1.765833e+00
  3.186643e+01    1.911929e+00
  3.188231e+01    2.032798e+00
  3.189818e+01    2.224664e+00
  3.191406e+01    2.292676e+00
  3.192994e+01    2.351564e+00
  3.194581e+01    2.322392e+00
  3.196169e+01    2.254077e+00
  3.197756e+01    2.125736e+00
  3.199344e+01    1.956589e+00
  3.200931e+01    1.772850e+00
  3.202519e+01    1.593768e+00
  3.204106e+01    1.422943e+00
  3.205694e+01    1.308754e+00
  3.207282e+01    1.216527e+00
  3.208869e+01    1.125757e+00
  3.210457e+01    1.069247e+00
  3.212044e+01    1.045527e+00
  3.213632e+01    9.657982e-01
  3.215219e+01    9.396433e-01
  3.216807e+01    9.209986e-01
  3.218394e+01    8.816250e-01
  3.219982e+01    8.355693e-01
  3.221570e+01    8.419020e-01
  3.223157e+01    8.355384e-01
  3.224745e+01    8.241982e-01
  3.226332e+01    8.011578e-01
  3.227920e+01    7.884124e-01
  3.229507e+01    7.755972e-01
  3.231095e+01    7.700432e-01
  3.232682e+01    7.900438e-01
  3.234270e+01    7.750999e-01
  3.235858e+01    7.668504e-01
  3.237445e+01    7.525299e-01
  3.239033e+01    7.486651e-01
  3.240620e+01    7.378829e-01
  3.242208e+01    7.314789e-01
  3.243795e+01    7.427161e-01
  3.245383e+01    7.251094e-01
  3.246970e+01    7.388615e-01
  3.248558e+01    7.415062e-01
  3.250146e+01    7.322212e-01
  3.251733e+01    7.152777e-01
  3.253321e+01    7.104737e-01
  3.254908e+01    7.203137e-01
