# == pyFAI calibration ==
# Distance Sample to Detector: 0.3999999939076516 m
# PONI: 9.750e-02, 1.135e-01 m
# Rotations: -0.000175 0.000000 -0.000000 rad
# 
# == Fit2d calibration ==
# Distance Sample-beamCenter: 400.000 mm
# Center: x=1514.000, y=1300.000 pix
# Tilt: 0.010 deg  TiltPlanRot: 0.010 deg
# 
# Detector Detector	 Spline= None	 PixelSize= 7.500e-05, 7.500e-05 m
#    Detector has a mask: False 
#    Detector has a dark current: False 
#    detector has a flat field: False 
# 
# Wavelength: 6.888e-11 m
# Mask applied: user provided
# Dark current applied: False
# Flat field applied: False
# Polarization factor: 0.99
# Normalization factor: 1.0
# --> /home/myspot/data/2024_07_Rosario/Ru-CGO-ex/2024-07-27_002_Ru-CGO-ex_Activtation_ramp_000002_data_000167.dat
#       q_nm^-1             I 
  2.003187e-02    0.000000e+00
  3.590745e-02    0.000000e+00
  5.178302e-02    0.000000e+00
  6.765859e-02    0.000000e+00
  8.353417e-02    3.908561e-02
  9.940974e-02    8.365805e-02
  1.152853e-01    9.281170e-02
  1.311609e-01    4.342791e-02
  1.470365e-01    6.477116e-03
  1.629120e-01    9.062819e-02
  1.787876e-01    6.874933e-02
  1.946632e-01    3.176745e-02
  2.105388e-01    3.106870e-02
  2.264143e-01    4.859792e-02
  2.422899e-01    1.568441e-02
  2.581655e-01    2.894994e-02
  2.740411e-01    2.018552e-02
  2.899166e-01    0.000000e+00
  3.057922e-01    1.506924e-02
  3.216678e-01    3.083578e-02
  3.375433e-01    5.394537e-02
  3.534189e-01    7.889903e-02
  3.692945e-01    6.159781e-02
  3.851701e-01    4.679247e-02
  4.010456e-01    2.296311e-02
  4.169212e-01    1.122079e-02
  4.327968e-01    1.753611e-02
  4.486724e-01    4.486047e-02
  4.645479e-01    3.036147e-02
  4.804235e-01    1.701237e-02
  4.962991e-01    3.635675e-02
  5.121747e-01    6.741567e-02
  5.280502e-01    5.766922e-02
  5.439258e-01    5.020314e-02
  5.598014e-01    3.476455e-02
  5.756770e-01    4.786702e-02
  5.915525e-01    2.742817e-02
  6.074281e-01    3.850940e-02
  6.233037e-01    3.066902e-02
  6.391793e-01    3.054369e-02
  6.550548e-01    3.649243e-02
  6.709304e-01    4.187170e-02
  6.868060e-01    2.034306e-02
  7.026815e-01    3.256206e-02
  7.185571e-01    6.247207e-02
  7.344327e-01    6.073452e-02
  7.503083e-01    6.074763e-02
  7.661838e-01    7.234456e-02
  7.820594e-01    1.208418e-01
  7.979350e-01    1.712697e-01
  8.138106e-01    1.861067e-01
  8.296861e-01    2.647024e-01
  8.455617e-01    3.302131e-01
  8.614373e-01    4.375387e-01
  8.773129e-01    4.785891e-01
  8.931884e-01    4.998025e-01
  9.090640e-01    5.231648e-01
  9.249396e-01    6.693081e-01
  9.408152e-01    7.429861e-01
  9.566907e-01    8.413100e-01
  9.725663e-01    9.704536e-01
  9.884419e-01    9.642706e-01
  1.004317e+00    1.013690e+00
  1.020193e+00    1.165750e+00
  1.036069e+00    1.202199e+00
  1.051944e+00    1.249612e+00
  1.067820e+00    1.313842e+00
  1.083695e+00    1.236796e+00
  1.099571e+00    1.327749e+00
  1.115446e+00    1.367491e+00
  1.131322e+00    1.343599e+00
  1.147198e+00    1.483011e+00
  1.163073e+00    1.505441e+00
  1.178949e+00    1.465808e+00
  1.194824e+00    1.561221e+00
  1.210700e+00    1.796747e+00
  1.226575e+00    2.203889e+00
  1.242451e+00    2.235990e+00
  1.258327e+00    2.335376e+00
  1.274202e+00    2.376569e+00
  1.290078e+00    2.300127e+00
  1.305953e+00    2.293802e+00
  1.321829e+00    2.382249e+00
  1.337705e+00    2.380101e+00
  1.353580e+00    2.515277e+00
  1.369456e+00    2.596214e+00
  1.385331e+00    2.494171e+00
  1.401207e+00    2.549788e+00
  1.417082e+00    2.576078e+00
  1.432958e+00    2.585307e+00
  1.448834e+00    2.603796e+00
  1.464709e+00    2.739927e+00
  1.480585e+00    2.889646e+00
  1.496460e+00    2.844583e+00
  1.512336e+00    2.799078e+00
  1.528211e+00    2.990721e+00
  1.544087e+00    2.944640e+00
  1.559963e+00    2.825653e+00
  1.575838e+00    2.709797e+00
  1.591714e+00    2.737486e+00
  1.607589e+00    2.800843e+00
  1.623465e+00    2.766183e+00
  1.639340e+00    2.878301e+00
  1.655216e+00    2.827789e+00
  1.671092e+00    2.736039e+00
  1.686967e+00    2.685174e+00
  1.702843e+00    2.866807e+00
  1.718718e+00    2.822654e+00
  1.734594e+00    2.662685e+00
  1.750469e+00    2.600895e+00
  1.766345e+00    2.709173e+00
  1.782221e+00    2.714635e+00
  1.798096e+00    2.661979e+00
  1.813972e+00    2.643041e+00
  1.829847e+00    2.710409e+00
  1.845723e+00    2.741429e+00
  1.861598e+00    2.621001e+00
  1.877474e+00    2.710346e+00
  1.893350e+00    2.580067e+00
  1.909225e+00    2.674306e+00
  1.925101e+00    2.656717e+00
  1.940976e+00    2.657741e+00
  1.956852e+00    2.654951e+00
  1.972727e+00    2.728020e+00
  1.988603e+00    2.689019e+00
  2.004479e+00    2.761731e+00
  2.020354e+00    2.704634e+00
  2.036230e+00    2.575906e+00
  2.052105e+00    2.621887e+00
  2.067981e+00    2.729875e+00
  2.083856e+00    2.756122e+00
  2.099732e+00    2.762807e+00
  2.115608e+00    2.703027e+00
  2.131483e+00    2.718859e+00
  2.147359e+00    2.656431e+00
  2.163234e+00    2.744413e+00
  2.179110e+00    2.691882e+00
  2.194985e+00    2.640407e+00
  2.210861e+00    2.652798e+00
  2.226737e+00    2.746311e+00
  2.242612e+00    2.720180e+00
  2.258488e+00    2.720804e+00
  2.274363e+00    2.594662e+00
  2.290239e+00    2.706640e+00
  2.306115e+00    2.803401e+00
  2.321990e+00    2.816991e+00
  2.337866e+00    2.761511e+00
  2.353741e+00    2.781626e+00
  2.369617e+00    2.831598e+00
  2.385492e+00    2.768102e+00
  2.401368e+00    2.780501e+00
  2.417244e+00    2.652621e+00
  2.433119e+00    2.755746e+00
  2.448995e+00    2.716703e+00
  2.464870e+00    2.693240e+00
  2.480746e+00    2.788081e+00
  2.496621e+00    2.726638e+00
  2.512497e+00    2.767043e+00
  2.528373e+00    2.735701e+00
  2.544248e+00    2.764362e+00
  2.560124e+00    2.802022e+00
  2.575999e+00    2.818046e+00
  2.591875e+00    2.754993e+00
  2.607750e+00    2.678404e+00
  2.623626e+00    2.733524e+00
  2.639502e+00    2.790864e+00
  2.655377e+00    2.784298e+00
  2.671253e+00    2.851545e+00
  2.687128e+00    2.764647e+00
  2.703004e+00    2.869388e+00
  2.718879e+00    2.863621e+00
  2.734755e+00    2.790488e+00
  2.750631e+00    2.818586e+00
  2.766506e+00    2.814274e+00
  2.782382e+00    2.800293e+00
  2.798257e+00    2.802475e+00
  2.814133e+00    2.872311e+00
  2.830008e+00    2.863079e+00
  2.845884e+00    2.772123e+00
  2.861760e+00    2.923360e+00
  2.877635e+00    2.985778e+00
  2.893511e+00    2.868567e+00
  2.909386e+00    2.776950e+00
  2.925262e+00    2.804929e+00
  2.941137e+00    2.905504e+00
  2.957013e+00    2.899147e+00
  2.972889e+00    2.925913e+00
  2.988764e+00    2.888008e+00
  3.004640e+00    2.823698e+00
  3.020515e+00    2.904303e+00
  3.036391e+00    2.833592e+00
  3.052266e+00    2.867424e+00
  3.068142e+00    2.835901e+00
  3.084018e+00    2.897142e+00
  3.099893e+00    2.944007e+00
  3.115769e+00    2.932473e+00
  3.131644e+00    2.970225e+00
  3.147520e+00    3.025109e+00
  3.163395e+00    2.855125e+00
  3.179271e+00    2.806659e+00
  3.195147e+00    2.940764e+00
  3.211022e+00    2.941174e+00
  3.226898e+00    2.928779e+00
  3.242773e+00    2.951193e+00
  3.258649e+00    2.841743e+00
  3.274525e+00    2.895312e+00
  3.290400e+00    3.017442e+00
  3.306276e+00    2.864048e+00
  3.322151e+00    2.810526e+00
  3.338027e+00    2.889814e+00
  3.353902e+00    2.969534e+00
  3.369778e+00    2.979098e+00
  3.385654e+00    3.085286e+00
  3.401529e+00    3.028246e+00
  3.417405e+00    2.913889e+00
  3.433280e+00    2.975569e+00
  3.449156e+00    2.951506e+00
  3.465031e+00    2.970877e+00
  3.480907e+00    3.012042e+00
  3.496783e+00    2.993346e+00
  3.512658e+00    2.919094e+00
  3.528534e+00    2.992491e+00
  3.544409e+00    2.996988e+00
  3.560285e+00    3.008263e+00
  3.576160e+00    2.997576e+00
  3.592036e+00    2.951232e+00
  3.607912e+00    2.908050e+00
  3.623787e+00    2.906065e+00
  3.639663e+00    2.937514e+00
  3.655538e+00    3.032387e+00
  3.671414e+00    2.995860e+00
  3.687289e+00    2.917701e+00
  3.703165e+00    2.973453e+00
  3.719041e+00    3.000777e+00
  3.734916e+00    2.935640e+00
  3.750792e+00    2.940688e+00
  3.766667e+00    2.970335e+00
  3.782543e+00    2.918477e+00
  3.798418e+00    3.002729e+00
  3.814294e+00    3.043293e+00
  3.830170e+00    3.026859e+00
  3.846045e+00    3.027231e+00
  3.861921e+00    2.996595e+00
  3.877796e+00    3.007840e+00
  3.893672e+00    3.039916e+00
  3.909547e+00    3.031789e+00
  3.925423e+00    3.075947e+00
  3.941299e+00    3.084946e+00
  3.957174e+00    3.056392e+00
  3.973050e+00    3.081620e+00
  3.988925e+00    3.072228e+00
  4.004801e+00    2.962924e+00
  4.020676e+00    2.997874e+00
  4.036552e+00    3.062612e+00
  4.052428e+00    3.076216e+00
  4.068303e+00    3.114353e+00
  4.084179e+00    3.066467e+00
  4.100054e+00    3.057309e+00
  4.115930e+00    2.935766e+00
  4.131806e+00    3.035328e+00
  4.147681e+00    3.040948e+00
  4.163557e+00    3.014206e+00
  4.179432e+00    3.036565e+00
  4.195308e+00    3.004118e+00
  4.211183e+00    3.026181e+00
  4.227059e+00    3.044321e+00
  4.242935e+00    3.044459e+00
  4.258810e+00    3.024322e+00
  4.274686e+00    3.061240e+00
  4.290561e+00    3.044849e+00
  4.306437e+00    3.016365e+00
  4.322312e+00    3.080417e+00
  4.338188e+00    2.995221e+00
  4.354064e+00    3.049647e+00
  4.369939e+00    3.044168e+00
  4.385815e+00    3.054451e+00
  4.401690e+00    3.114141e+00
  4.417566e+00    3.088661e+00
  4.433441e+00    3.102275e+00
  4.449317e+00    3.106129e+00
  4.465193e+00    3.119650e+00
  4.481068e+00    3.112448e+00
  4.496944e+00    3.080163e+00
  4.512819e+00    3.033470e+00
  4.528695e+00    3.152136e+00
  4.544570e+00    3.160530e+00
  4.560446e+00    3.163467e+00
  4.576322e+00    3.092831e+00
  4.592197e+00    2.982025e+00
  4.608073e+00    3.061481e+00
  4.623948e+00    3.075849e+00
  4.639824e+00    3.114719e+00
  4.655699e+00    3.132058e+00
  4.671575e+00    3.059760e+00
  4.687451e+00    3.070345e+00
  4.703326e+00    3.116375e+00
  4.719202e+00    3.195199e+00
  4.735077e+00    3.202410e+00
  4.750953e+00    3.151997e+00
  4.766828e+00    3.092014e+00
  4.782704e+00    3.142539e+00
  4.798580e+00    3.118951e+00
  4.814455e+00    3.119715e+00
  4.830331e+00    3.116632e+00
  4.846206e+00    3.048002e+00
  4.862082e+00    3.030345e+00
  4.877957e+00    3.164922e+00
  4.893833e+00    3.076390e+00
  4.909709e+00    3.040825e+00
  4.925584e+00    3.053874e+00
  4.941460e+00    3.056282e+00
  4.957335e+00    3.168144e+00
  4.973211e+00    3.190582e+00
  4.989086e+00    3.175414e+00
  5.004962e+00    3.131598e+00
  5.020838e+00    3.170717e+00
  5.036713e+00    3.149673e+00
  5.052589e+00    3.163145e+00
  5.068464e+00    3.089541e+00
  5.084340e+00    2.982730e+00
  5.100216e+00    3.038551e+00
  5.116091e+00    3.068666e+00
  5.131967e+00    3.142493e+00
  5.147842e+00    3.177436e+00
  5.163718e+00    3.175246e+00
  5.179593e+00    3.148320e+00
  5.195469e+00    3.175884e+00
  5.211345e+00    3.202140e+00
  5.227220e+00    3.144018e+00
  5.243096e+00    3.142784e+00
  5.258971e+00    3.110888e+00
  5.274847e+00    3.113522e+00
  5.290722e+00    3.167355e+00
  5.306598e+00    3.096878e+00
  5.322474e+00    3.152335e+00
  5.338349e+00    3.188431e+00
  5.354225e+00    3.094550e+00
  5.370100e+00    3.121832e+00
  5.385976e+00    3.103772e+00
  5.401851e+00    3.098276e+00
  5.417727e+00    3.106270e+00
  5.433603e+00    3.113891e+00
  5.449478e+00    3.096821e+00
  5.465354e+00    3.059549e+00
  5.481229e+00    3.106648e+00
  5.497105e+00    3.170568e+00
  5.512980e+00    3.167808e+00
  5.528856e+00    3.044858e+00
  5.544732e+00    3.019608e+00
  5.560607e+00    3.078630e+00
  5.576483e+00    3.116890e+00
  5.592358e+00    3.132539e+00
  5.608234e+00    3.096233e+00
  5.624109e+00    3.090801e+00
  5.639985e+00    3.074600e+00
  5.655861e+00    3.080912e+00
  5.671736e+00    3.007358e+00
  5.687612e+00    3.007944e+00
  5.703487e+00    3.046173e+00
  5.719363e+00    3.030675e+00
  5.735238e+00    2.985576e+00
  5.751114e+00    3.068720e+00
  5.766990e+00    3.053849e+00
  5.782865e+00    3.062122e+00
  5.798741e+00    3.059228e+00
  5.814616e+00    3.001076e+00
  5.830492e+00    3.058880e+00
  5.846367e+00    3.012059e+00
  5.862243e+00    3.096700e+00
  5.878119e+00    3.048171e+00
  5.893994e+00    3.010505e+00
  5.909870e+00    3.045871e+00
  5.925745e+00    3.039945e+00
  5.941621e+00    3.034483e+00
  5.957497e+00    2.952623e+00
  5.973372e+00    2.967781e+00
  5.989248e+00    3.005408e+00
  6.005123e+00    3.048520e+00
  6.020999e+00    3.012431e+00
  6.036874e+00    2.988651e+00
  6.052750e+00    2.979064e+00
  6.068626e+00    3.041672e+00
  6.084501e+00    3.041455e+00
  6.100377e+00    3.034288e+00
  6.116252e+00    3.077661e+00
  6.132128e+00    3.089952e+00
  6.148003e+00    3.046182e+00
  6.163879e+00    3.020002e+00
  6.179755e+00    3.029288e+00
  6.195630e+00    3.076849e+00
  6.211506e+00    3.061155e+00
  6.227381e+00    3.094734e+00
  6.243257e+00    3.021794e+00
  6.259132e+00    3.003503e+00
  6.275008e+00    3.063245e+00
  6.290884e+00    3.030885e+00
  6.306759e+00    3.041079e+00
  6.322635e+00    3.086855e+00
  6.338510e+00    3.033270e+00
  6.354386e+00    3.063923e+00
  6.370261e+00    3.153924e+00
  6.386137e+00    3.110799e+00
  6.402013e+00    3.014497e+00
  6.417888e+00    3.060184e+00
  6.433764e+00    3.089536e+00
  6.449639e+00    3.121017e+00
  6.465515e+00    2.971739e+00
  6.481390e+00    3.043175e+00
  6.497266e+00    3.040867e+00
  6.513142e+00    3.053789e+00
  6.529017e+00    3.060551e+00
  6.544893e+00    3.066658e+00
  6.560768e+00    3.049808e+00
  6.576644e+00    3.026397e+00
  6.592519e+00    3.077055e+00
  6.608395e+00    3.117517e+00
  6.624271e+00    3.087354e+00
  6.640146e+00    3.033265e+00
  6.656022e+00    3.036895e+00
  6.671897e+00    2.955959e+00
  6.687773e+00    2.995893e+00
  6.703648e+00    3.017991e+00
  6.719524e+00    3.112527e+00
  6.735400e+00    3.070345e+00
  6.751275e+00    3.011766e+00
  6.767151e+00    3.063150e+00
  6.783026e+00    3.063539e+00
  6.798902e+00    3.023094e+00
  6.814777e+00    3.022233e+00
  6.830653e+00    3.052496e+00
  6.846529e+00    3.123511e+00
  6.862404e+00    3.083074e+00
  6.878280e+00    3.000065e+00
  6.894155e+00    2.989435e+00
  6.910031e+00    3.008505e+00
  6.925907e+00    3.028346e+00
  6.941782e+00    2.963808e+00
  6.957658e+00    3.002597e+00
  6.973533e+00    2.986883e+00
  6.989409e+00    3.019229e+00
  7.005284e+00    3.050578e+00
  7.021160e+00    3.000718e+00
  7.037036e+00    2.985840e+00
  7.052911e+00    3.057208e+00
  7.068787e+00    3.073211e+00
  7.084662e+00    3.110184e+00
  7.100538e+00    3.050758e+00
  7.116413e+00    3.033405e+00
  7.132289e+00    2.994869e+00
  7.148165e+00    2.976097e+00
  7.164040e+00    3.004262e+00
  7.179916e+00    3.043806e+00
  7.195791e+00    2.981062e+00
  7.211667e+00    3.003384e+00
  7.227542e+00    3.052554e+00
  7.243418e+00    3.052103e+00
  7.259294e+00    3.015008e+00
  7.275169e+00    3.043770e+00
  7.291045e+00    3.018266e+00
  7.306920e+00    3.022789e+00
  7.322796e+00    2.971614e+00
  7.338671e+00    2.958866e+00
  7.354547e+00    3.030879e+00
  7.370423e+00    3.060013e+00
  7.386298e+00    3.032608e+00
  7.402174e+00    3.027611e+00
  7.418049e+00    3.058187e+00
  7.433925e+00    3.001159e+00
  7.449800e+00    2.967693e+00
  7.465676e+00    2.981225e+00
  7.481552e+00    2.957274e+00
  7.497427e+00    2.941042e+00
  7.513303e+00    2.944580e+00
  7.529178e+00    2.990939e+00
  7.545054e+00    3.039565e+00
  7.560929e+00    3.000977e+00
  7.576805e+00    2.962004e+00
  7.592681e+00    2.964386e+00
  7.608556e+00    2.931154e+00
  7.624432e+00    2.969257e+00
  7.640307e+00    2.943155e+00
  7.656183e+00    2.936906e+00
  7.672058e+00    2.917842e+00
  7.687934e+00    2.924609e+00
  7.703810e+00    2.938352e+00
  7.719685e+00    2.936344e+00
  7.735561e+00    2.924674e+00
  7.751436e+00    2.955451e+00
  7.767312e+00    2.935086e+00
  7.783187e+00    2.903220e+00
  7.799063e+00    2.931657e+00
  7.814939e+00    2.893991e+00
  7.830814e+00    2.934768e+00
  7.846690e+00    2.923369e+00
  7.862565e+00    2.914469e+00
  7.878441e+00    2.930059e+00
  7.894317e+00    2.900978e+00
  7.910192e+00    2.951496e+00
  7.926068e+00    2.976943e+00
  7.941943e+00    2.970028e+00
  7.957819e+00    2.943808e+00
  7.973694e+00    2.940969e+00
  7.989570e+00    2.890533e+00
  8.005446e+00    2.898998e+00
  8.021321e+00    3.006809e+00
  8.037197e+00    2.944028e+00
  8.053072e+00    2.888028e+00
  8.068948e+00    2.936981e+00
  8.084823e+00    2.944610e+00
  8.100699e+00    2.959992e+00
  8.116575e+00    2.933613e+00
  8.132450e+00    2.978921e+00
  8.148326e+00    2.968573e+00
  8.164201e+00    2.944761e+00
  8.180077e+00    3.013487e+00
  8.195952e+00    3.018844e+00
  8.211828e+00    2.974326e+00
  8.227704e+00    2.997206e+00
  8.243579e+00    2.964471e+00
  8.259455e+00    2.888267e+00
  8.275330e+00    2.922410e+00
  8.291206e+00    2.935150e+00
  8.307081e+00    2.886815e+00
  8.322957e+00    2.890738e+00
  8.338833e+00    2.968137e+00
  8.354708e+00    2.943372e+00
  8.370584e+00    2.927595e+00
  8.386459e+00    2.921241e+00
  8.402335e+00    2.932091e+00
  8.418210e+00    2.892842e+00
  8.434086e+00    2.937771e+00
  8.449962e+00    2.946722e+00
  8.465837e+00    2.940502e+00
  8.481713e+00    2.874221e+00
  8.497588e+00    2.928607e+00
  8.513464e+00    2.894060e+00
  8.529339e+00    2.921877e+00
  8.545215e+00    2.894679e+00
  8.561091e+00    2.864847e+00
  8.576966e+00    2.864795e+00
  8.592842e+00    2.927982e+00
  8.608717e+00    2.896842e+00
  8.624593e+00    2.813982e+00
  8.640468e+00    2.865506e+00
  8.656344e+00    2.892215e+00
  8.672220e+00    2.847921e+00
  8.688095e+00    2.849497e+00
  8.703971e+00    2.840387e+00
  8.719846e+00    2.843864e+00
  8.735722e+00    2.871520e+00
  8.751598e+00    2.863277e+00
  8.767473e+00    2.836168e+00
  8.783349e+00    2.824807e+00
  8.799224e+00    2.828249e+00
  8.815100e+00    2.904337e+00
  8.830975e+00    2.880360e+00
  8.846851e+00    2.859638e+00
  8.862727e+00    2.863610e+00
  8.878602e+00    2.879869e+00
  8.894478e+00    2.896255e+00
  8.910353e+00    2.893244e+00
  8.926229e+00    2.868111e+00
  8.942104e+00    2.836248e+00
  8.957980e+00    2.791053e+00
  8.973856e+00    2.793961e+00
  8.989731e+00    2.743351e+00
  9.005607e+00    2.795519e+00
  9.021482e+00    2.841094e+00
  9.037358e+00    2.839984e+00
  9.053233e+00    2.854870e+00
  9.069109e+00    2.842288e+00
  9.084985e+00    2.838954e+00
  9.100860e+00    2.816947e+00
  9.116736e+00    2.818831e+00
  9.132611e+00    2.856372e+00
  9.148487e+00    2.841615e+00
  9.164362e+00    2.831747e+00
  9.180238e+00    2.874889e+00
  9.196114e+00    2.818682e+00
  9.211989e+00    2.805615e+00
  9.227865e+00    2.761452e+00
  9.243740e+00    2.777030e+00
  9.259616e+00    2.797745e+00
  9.275491e+00    2.777822e+00
  9.291367e+00    2.771868e+00
  9.307243e+00    2.746003e+00
  9.323118e+00    2.769821e+00
  9.338994e+00    2.752308e+00
  9.354869e+00    2.786027e+00
  9.370745e+00    2.795378e+00
  9.386620e+00    2.831116e+00
  9.402496e+00    2.756054e+00
  9.418372e+00    2.780489e+00
  9.434247e+00    2.788260e+00
  9.450123e+00    2.771146e+00
  9.465998e+00    2.832003e+00
  9.481874e+00    2.748074e+00
  9.497749e+00    2.740316e+00
  9.513625e+00    2.749660e+00
  9.529501e+00    2.771786e+00
  9.545376e+00    2.807919e+00
  9.561252e+00    2.826575e+00
  9.577127e+00    2.760240e+00
  9.593003e+00    2.799736e+00
  9.608878e+00    2.812230e+00
  9.624754e+00    2.768107e+00
  9.640630e+00    2.776809e+00
  9.656505e+00    2.778162e+00
  9.672381e+00    2.751520e+00
  9.688256e+00    2.705956e+00
  9.704132e+00    2.713594e+00
  9.720008e+00    2.756940e+00
  9.735883e+00    2.724209e+00
  9.751759e+00    2.710896e+00
  9.767634e+00    2.804846e+00
  9.783510e+00    2.762073e+00
  9.799385e+00    2.747634e+00
  9.815261e+00    2.719626e+00
  9.831137e+00    2.692996e+00
  9.847012e+00    2.748358e+00
  9.862888e+00    2.767616e+00
  9.878763e+00    2.735202e+00
  9.894639e+00    2.706169e+00
  9.910514e+00    2.662548e+00
  9.926390e+00    2.684064e+00
  9.942266e+00    2.682125e+00
  9.958141e+00    2.671363e+00
  9.974017e+00    2.667554e+00
  9.989892e+00    2.702420e+00
  1.000577e+01    2.650339e+00
  1.002164e+01    2.681373e+00
  1.003752e+01    2.647758e+00
  1.005339e+01    2.660980e+00
  1.006927e+01    2.674033e+00
  1.008515e+01    2.654586e+00
  1.010102e+01    2.634095e+00
  1.011690e+01    2.653665e+00
  1.013277e+01    2.631132e+00
  1.014865e+01    2.665300e+00
  1.016452e+01    2.628326e+00
  1.018040e+01    2.682710e+00
  1.019627e+01    2.652046e+00
  1.021215e+01    2.655823e+00
  1.022803e+01    2.708754e+00
  1.024390e+01    2.664914e+00
  1.025978e+01    2.654056e+00
  1.027565e+01    2.645787e+00
  1.029153e+01    2.598695e+00
  1.030740e+01    2.603282e+00
  1.032328e+01    2.643960e+00
  1.033915e+01    2.642959e+00
  1.035503e+01    2.640808e+00
  1.037091e+01    2.621325e+00
  1.038678e+01    2.622287e+00
  1.040266e+01    2.681329e+00
  1.041853e+01    2.628792e+00
  1.043441e+01    2.608966e+00
  1.045028e+01    2.582655e+00
  1.046616e+01    2.593765e+00
  1.048204e+01    2.586407e+00
  1.049791e+01    2.559262e+00
  1.051379e+01    2.571754e+00
  1.052966e+01    2.559803e+00
  1.054554e+01    2.594102e+00
  1.056141e+01    2.593405e+00
  1.057729e+01    2.582326e+00
  1.059316e+01    2.572252e+00
  1.060904e+01    2.607569e+00
  1.062492e+01    2.594687e+00
  1.064079e+01    2.535933e+00
  1.065667e+01    2.513793e+00
  1.067254e+01    2.514880e+00
  1.068842e+01    2.537363e+00
  1.070429e+01    2.561085e+00
  1.072017e+01    2.560232e+00
  1.073604e+01    2.571803e+00
  1.075192e+01    2.549242e+00
  1.076780e+01    2.571613e+00
  1.078367e+01    2.581576e+00
  1.079955e+01    2.585817e+00
  1.081542e+01    2.551081e+00
  1.083130e+01    2.516812e+00
  1.084717e+01    2.530254e+00
  1.086305e+01    2.498544e+00
  1.087892e+01    2.493281e+00
  1.089480e+01    2.502165e+00
  1.091068e+01    2.459044e+00
  1.092655e+01    2.469973e+00
  1.094243e+01    2.516560e+00
  1.095830e+01    2.495905e+00
  1.097418e+01    2.472258e+00
  1.099005e+01    2.476978e+00
  1.100593e+01    2.490461e+00
  1.102180e+01    2.451427e+00
  1.103768e+01    2.488853e+00
  1.105356e+01    2.475745e+00
  1.106943e+01    2.447011e+00
  1.108531e+01    2.468275e+00
  1.110118e+01    2.508070e+00
  1.111706e+01    2.465148e+00
  1.113293e+01    2.432688e+00
  1.114881e+01    2.429244e+00
  1.116468e+01    2.457140e+00
  1.118056e+01    2.434722e+00
  1.119644e+01    2.454374e+00
  1.121231e+01    2.433781e+00
  1.122819e+01    2.438046e+00
  1.124406e+01    2.450028e+00
  1.125994e+01    2.432287e+00
  1.127581e+01    2.434224e+00
  1.129169e+01    2.438494e+00
  1.130756e+01    2.407925e+00
  1.132344e+01    2.421858e+00
  1.133932e+01    2.407840e+00
  1.135519e+01    2.431077e+00
  1.137107e+01    2.443899e+00
  1.138694e+01    2.478212e+00
  1.140282e+01    2.438788e+00
  1.141869e+01    2.471093e+00
  1.143457e+01    2.462881e+00
  1.145045e+01    2.422850e+00
  1.146632e+01    2.426357e+00
  1.148220e+01    2.412532e+00
  1.149807e+01    2.464988e+00
  1.151395e+01    2.457734e+00
  1.152982e+01    2.425740e+00
  1.154570e+01    2.351613e+00
  1.156157e+01    2.362356e+00
  1.157745e+01    2.362775e+00
  1.159333e+01    2.337736e+00
  1.160920e+01    2.387661e+00
  1.162508e+01    2.429045e+00
  1.164095e+01    2.398902e+00
  1.165683e+01    2.395966e+00
  1.167270e+01    2.410899e+00
  1.168858e+01    2.401893e+00
  1.170445e+01    2.357541e+00
  1.172033e+01    2.385109e+00
  1.173621e+01    2.370466e+00
  1.175208e+01    2.403437e+00
  1.176796e+01    2.414181e+00
  1.178383e+01    2.380724e+00
  1.179971e+01    2.356598e+00
  1.181558e+01    2.374614e+00
  1.183146e+01    2.384468e+00
  1.184733e+01    2.369616e+00
  1.186321e+01    2.315453e+00
  1.187909e+01    2.314842e+00
  1.189496e+01    2.335742e+00
  1.191084e+01    2.347795e+00
  1.192671e+01    2.345036e+00
  1.194259e+01    2.363007e+00
  1.195846e+01    2.342967e+00
  1.197434e+01    2.302016e+00
  1.199021e+01    2.286747e+00
  1.200609e+01    2.295083e+00
  1.202197e+01    2.347861e+00
  1.203784e+01    2.359619e+00
  1.205372e+01    2.361871e+00
  1.206959e+01    2.335312e+00
  1.208547e+01    2.292402e+00
  1.210134e+01    2.312488e+00
  1.211722e+01    2.337090e+00
  1.213309e+01    2.372596e+00
  1.214897e+01    2.375145e+00
  1.216485e+01    2.331524e+00
  1.218072e+01    2.312164e+00
  1.219660e+01    2.335245e+00
  1.221247e+01    2.378736e+00
  1.222835e+01    2.336748e+00
  1.224422e+01    2.293179e+00
  1.226010e+01    2.340501e+00
  1.227597e+01    2.384569e+00
  1.229185e+01    2.353326e+00
  1.230773e+01    2.347040e+00
  1.232360e+01    2.306740e+00
  1.233948e+01    2.322449e+00
  1.235535e+01    2.334512e+00
  1.237123e+01    2.289100e+00
  1.238710e+01    2.306170e+00
  1.240298e+01    2.317714e+00
  1.241886e+01    2.341594e+00
  1.243473e+01    2.391762e+00
  1.245061e+01    2.363052e+00
  1.246648e+01    2.367768e+00
  1.248236e+01    2.378428e+00
  1.249823e+01    2.370621e+00
  1.251411e+01    2.363122e+00
  1.252998e+01    2.346342e+00
  1.254586e+01    2.363275e+00
  1.256174e+01    2.388776e+00
  1.257761e+01    2.375148e+00
  1.259349e+01    2.416998e+00
  1.260936e+01    2.429172e+00
  1.262524e+01    2.399102e+00
  1.264111e+01    2.405278e+00
  1.265699e+01    2.464124e+00
  1.267286e+01    2.468675e+00
  1.268874e+01    2.448064e+00
  1.270462e+01    2.450973e+00
  1.272049e+01    2.527030e+00
  1.273637e+01    2.520728e+00
  1.275224e+01    2.511840e+00
  1.276812e+01    2.553766e+00
  1.278399e+01    2.622489e+00
  1.279987e+01    2.699035e+00
  1.281574e+01    2.728712e+00
  1.283162e+01    2.806397e+00
  1.284750e+01    2.863335e+00
  1.286337e+01    2.940504e+00
  1.287925e+01    3.048383e+00
  1.289512e+01    3.122033e+00
  1.291100e+01    3.289771e+00
  1.292687e+01    3.501208e+00
  1.294275e+01    3.759822e+00
  1.295862e+01    4.002426e+00
  1.297450e+01    4.439744e+00
  1.299038e+01    4.965538e+00
  1.300625e+01    5.582120e+00
  1.302213e+01    6.285643e+00
  1.303800e+01    7.287570e+00
  1.305388e+01    8.459459e+00
  1.306975e+01    9.681604e+00
  1.308563e+01    1.102619e+01
  1.310150e+01    1.220999e+01
  1.311738e+01    1.328116e+01
  1.313326e+01    1.437582e+01
  1.314913e+01    1.536111e+01
  1.316501e+01    1.605885e+01
  1.318088e+01    1.617440e+01
  1.319676e+01    1.558076e+01
  1.321263e+01    1.419343e+01
  1.322851e+01    1.235466e+01
  1.324438e+01    1.042932e+01
  1.326026e+01    8.914851e+00
  1.327614e+01    7.524477e+00
  1.329201e+01    6.467309e+00
  1.330789e+01    5.673054e+00
  1.332376e+01    4.987767e+00
  1.333964e+01    4.468486e+00
  1.335551e+01    4.097447e+00
  1.337139e+01    3.790032e+00
  1.338727e+01    3.531846e+00
  1.340314e+01    3.306174e+00
  1.341902e+01    3.133887e+00
  1.343489e+01    3.032519e+00
  1.345077e+01    2.905365e+00
  1.346664e+01    2.760526e+00
  1.348252e+01    2.703043e+00
  1.349839e+01    2.627546e+00
  1.351427e+01    2.568286e+00
  1.353015e+01    2.502208e+00
  1.354602e+01    2.491157e+00
  1.356190e+01    2.460485e+00
  1.357777e+01    2.406906e+00
  1.359365e+01    2.384187e+00
  1.360952e+01    2.391096e+00
  1.362540e+01    2.382112e+00
  1.364127e+01    2.330409e+00
  1.365715e+01    2.295625e+00
  1.367303e+01    2.254154e+00
  1.368890e+01    2.269093e+00
  1.370478e+01    2.262109e+00
  1.372065e+01    2.200829e+00
  1.373653e+01    2.264431e+00
  1.375240e+01    2.209565e+00
  1.376828e+01    2.143930e+00
  1.378415e+01    2.177377e+00
  1.380003e+01    2.153770e+00
  1.381591e+01    2.146951e+00
  1.383178e+01    2.162677e+00
  1.384766e+01    2.087522e+00
  1.386353e+01    2.112475e+00
  1.387941e+01    2.106433e+00
  1.389528e+01    2.084735e+00
  1.391116e+01    2.083902e+00
  1.392703e+01    2.078332e+00
  1.394291e+01    2.064813e+00
  1.395879e+01    2.066588e+00
  1.397466e+01    2.082166e+00
  1.399054e+01    2.076972e+00
  1.400641e+01    2.123292e+00
  1.402229e+01    2.081808e+00
  1.403816e+01    2.066380e+00
  1.405404e+01    2.034563e+00
  1.406991e+01    2.032181e+00
  1.408579e+01    2.001044e+00
  1.410167e+01    1.999915e+00
  1.411754e+01    1.952269e+00
  1.413342e+01    1.976963e+00
  1.414929e+01    1.981654e+00
  1.416517e+01    1.991075e+00
  1.418104e+01    1.981935e+00
  1.419692e+01    2.012615e+00
  1.421279e+01    1.994487e+00
  1.422867e+01    1.967875e+00
  1.424455e+01    1.918173e+00
  1.426042e+01    1.940985e+00
  1.427630e+01    1.948779e+00
  1.429217e+01    1.953645e+00
  1.430805e+01    1.955004e+00
  1.432392e+01    1.941686e+00
  1.433980e+01    1.931883e+00
  1.435568e+01    1.901104e+00
  1.437155e+01    1.914012e+00
  1.438743e+01    1.908633e+00
  1.440330e+01    1.939270e+00
  1.441918e+01    1.985575e+00
  1.443505e+01    1.958965e+00
  1.445093e+01    1.922429e+00
  1.446680e+01    1.906315e+00
  1.448268e+01    1.920317e+00
  1.449856e+01    1.937959e+00
  1.451443e+01    1.904610e+00
  1.453031e+01    1.927575e+00
  1.454618e+01    1.937347e+00
  1.456206e+01    1.952575e+00
  1.457793e+01    1.930389e+00
  1.459381e+01    1.922560e+00
  1.460968e+01    1.937323e+00
  1.462556e+01    1.941665e+00
  1.464144e+01    1.925709e+00
  1.465731e+01    1.940439e+00
  1.467319e+01    1.887095e+00
  1.468906e+01    1.945972e+00
  1.470494e+01    1.924335e+00
  1.472081e+01    1.905076e+00
  1.473669e+01    1.898933e+00
  1.475256e+01    1.900580e+00
  1.476844e+01    1.888446e+00
  1.478432e+01    1.911274e+00
  1.480019e+01    1.912512e+00
  1.481607e+01    1.906198e+00
  1.483194e+01    1.911911e+00
  1.484782e+01    1.947509e+00
  1.486369e+01    1.967926e+00
  1.487957e+01    1.964836e+00
  1.489544e+01    1.964140e+00
  1.491132e+01    1.975337e+00
  1.492720e+01    2.004552e+00
  1.494307e+01    2.029822e+00
  1.495895e+01    2.068022e+00
  1.497482e+01    2.121455e+00
  1.499070e+01    2.140968e+00
  1.500657e+01    2.186812e+00
  1.502245e+01    2.266639e+00
  1.503832e+01    2.342437e+00
  1.505420e+01    2.438029e+00
  1.507008e+01    2.542506e+00
  1.508595e+01    2.689173e+00
  1.510183e+01    2.926545e+00
  1.511770e+01    3.208574e+00
  1.513358e+01    3.535335e+00
  1.514945e+01    3.844864e+00
  1.516533e+01    4.195144e+00
  1.518120e+01    4.565748e+00
  1.519708e+01    4.879064e+00
  1.521296e+01    5.172926e+00
  1.522883e+01    5.411386e+00
  1.524471e+01    5.503135e+00
  1.526058e+01    5.556438e+00
  1.527646e+01    5.457694e+00
  1.529233e+01    5.224644e+00
  1.530821e+01    4.940885e+00
  1.532409e+01    4.459519e+00
  1.533996e+01    3.949898e+00
  1.535584e+01    3.528758e+00
  1.537171e+01    3.164022e+00
  1.538759e+01    2.837629e+00
  1.540346e+01    2.618799e+00
  1.541934e+01    2.473702e+00
  1.543521e+01    2.368041e+00
  1.545109e+01    2.267777e+00
  1.546697e+01    2.167880e+00
  1.548284e+01    2.109761e+00
  1.549872e+01    2.075095e+00
  1.551459e+01    1.971590e+00
  1.553047e+01    1.925418e+00
  1.554634e+01    1.895921e+00
  1.556222e+01    1.886581e+00
  1.557809e+01    1.857314e+00
  1.559397e+01    1.857617e+00
  1.560985e+01    1.826340e+00
  1.562572e+01    1.774320e+00
  1.564160e+01    1.745140e+00
  1.565747e+01    1.757471e+00
  1.567335e+01    1.743531e+00
  1.568922e+01    1.738275e+00
  1.570510e+01    1.726058e+00
  1.572097e+01    1.727514e+00
  1.573685e+01    1.715541e+00
  1.575273e+01    1.751220e+00
  1.576860e+01    1.742333e+00
  1.578448e+01    1.694852e+00
  1.580035e+01    1.699403e+00
  1.581623e+01    1.682589e+00
  1.583210e+01    1.662195e+00
  1.584798e+01    1.636015e+00
  1.586385e+01    1.661132e+00
  1.587973e+01    1.660120e+00
  1.589561e+01    1.637497e+00
  1.591148e+01    1.659408e+00
  1.592736e+01    1.621002e+00
  1.594323e+01    1.657012e+00
  1.595911e+01    1.595425e+00
  1.597498e+01    1.607246e+00
  1.599086e+01    1.632403e+00
  1.600673e+01    1.641299e+00
  1.602261e+01    1.628837e+00
  1.603849e+01    1.610421e+00
  1.605436e+01    1.606594e+00
  1.607024e+01    1.621660e+00
  1.608611e+01    1.607640e+00
  1.610199e+01    1.575279e+00
  1.611786e+01    1.592958e+00
  1.613374e+01    1.590819e+00
  1.614961e+01    1.564590e+00
  1.616549e+01    1.590653e+00
  1.618137e+01    1.551174e+00
  1.619724e+01    1.544136e+00
  1.621312e+01    1.570146e+00
  1.622899e+01    1.566113e+00
  1.624487e+01    1.552825e+00
  1.626074e+01    1.562758e+00
  1.627662e+01    1.573810e+00
  1.629250e+01    1.564738e+00
  1.630837e+01    1.562654e+00
  1.632425e+01    1.531773e+00
  1.634012e+01    1.527694e+00
  1.635600e+01    1.530109e+00
  1.637187e+01    1.522621e+00
  1.638775e+01    1.540534e+00
  1.640362e+01    1.554580e+00
  1.641950e+01    1.578134e+00
  1.643538e+01    1.576562e+00
  1.645125e+01    1.532320e+00
  1.646713e+01    1.504801e+00
  1.648300e+01    1.497363e+00
  1.649888e+01    1.538842e+00
  1.651475e+01    1.507409e+00
  1.653063e+01    1.494148e+00
  1.654650e+01    1.522799e+00
  1.656238e+01    1.555635e+00
  1.657826e+01    1.526911e+00
  1.659413e+01    1.529726e+00
  1.661001e+01    1.547700e+00
  1.662588e+01    1.493704e+00
  1.664176e+01    1.463138e+00
  1.665763e+01    1.481370e+00
  1.667351e+01    1.476267e+00
  1.668938e+01    1.467963e+00
  1.670526e+01    1.475104e+00
  1.672114e+01    1.450277e+00
  1.673701e+01    1.468311e+00
  1.675289e+01    1.469247e+00
  1.676876e+01    1.447652e+00
  1.678464e+01    1.454505e+00
  1.680051e+01    1.487390e+00
  1.681639e+01    1.467478e+00
  1.683226e+01    1.451248e+00
  1.684814e+01    1.433540e+00
  1.686402e+01    1.456634e+00
  1.687989e+01    1.442276e+00
  1.689577e+01    1.462006e+00
  1.691164e+01    1.486587e+00
  1.692752e+01    1.463418e+00
  1.694339e+01    1.420908e+00
  1.695927e+01    1.434082e+00
  1.697514e+01    1.442244e+00
  1.699102e+01    1.402950e+00
  1.700690e+01    1.399019e+00
  1.702277e+01    1.406578e+00
  1.703865e+01    1.434802e+00
  1.705452e+01    1.428002e+00
  1.707040e+01    1.441232e+00
  1.708627e+01    1.446655e+00
  1.710215e+01    1.404430e+00
  1.711802e+01    1.430350e+00
  1.713390e+01    1.421927e+00
  1.714978e+01    1.379915e+00
  1.716565e+01    1.410801e+00
  1.718153e+01    1.408459e+00
  1.719740e+01    1.399527e+00
  1.721328e+01    1.409183e+00
  1.722915e+01    1.408327e+00
  1.724503e+01    1.398848e+00
  1.726091e+01    1.394740e+00
  1.727678e+01    1.389815e+00
  1.729266e+01    1.385262e+00
  1.730853e+01    1.391344e+00
  1.732441e+01    1.419351e+00
  1.734028e+01    1.385102e+00
  1.735616e+01    1.382624e+00
  1.737203e+01    1.421171e+00
  1.738791e+01    1.380848e+00
  1.740379e+01    1.334460e+00
  1.741966e+01    1.342103e+00
  1.743554e+01    1.395995e+00
  1.745141e+01    1.396523e+00
  1.746729e+01    1.378814e+00
  1.748316e+01    1.342329e+00
  1.749904e+01    1.367685e+00
  1.751491e+01    1.382989e+00
  1.753079e+01    1.386505e+00
  1.754667e+01    1.385725e+00
  1.756254e+01    1.369103e+00
  1.757842e+01    1.363754e+00
  1.759429e+01    1.369301e+00
  1.761017e+01    1.354914e+00
  1.762604e+01    1.361034e+00
  1.764192e+01    1.362099e+00
  1.765779e+01    1.334067e+00
  1.767367e+01    1.345744e+00
  1.768955e+01    1.369465e+00
  1.770542e+01    1.340129e+00
  1.772130e+01    1.337238e+00
  1.773717e+01    1.359997e+00
  1.775305e+01    1.361813e+00
  1.776892e+01    1.358154e+00
  1.778480e+01    1.354627e+00
  1.780067e+01    1.313141e+00
  1.781655e+01    1.327093e+00
  1.783243e+01    1.347471e+00
  1.784830e+01    1.335929e+00
  1.786418e+01    1.312913e+00
  1.788005e+01    1.304517e+00
  1.789593e+01    1.333919e+00
  1.791180e+01    1.321234e+00
  1.792768e+01    1.333695e+00
  1.794355e+01    1.315145e+00
  1.795943e+01    1.293950e+00
  1.797531e+01    1.278560e+00
  1.799118e+01    1.316176e+00
  1.800706e+01    1.302070e+00
  1.802293e+01    1.330462e+00
  1.803881e+01    1.326142e+00
  1.805468e+01    1.287382e+00
  1.807056e+01    1.290685e+00
  1.808643e+01    1.268953e+00
  1.810231e+01    1.270796e+00
  1.811819e+01    1.305007e+00
  1.813406e+01    1.293592e+00
  1.814994e+01    1.301150e+00
  1.816581e+01    1.285626e+00
  1.818169e+01    1.285564e+00
  1.819756e+01    1.291115e+00
  1.821344e+01    1.298201e+00
  1.822932e+01    1.269180e+00
  1.824519e+01    1.263197e+00
  1.826107e+01    1.261869e+00
  1.827694e+01    1.265960e+00
  1.829282e+01    1.257978e+00
  1.830869e+01    1.292311e+00
  1.832457e+01    1.301994e+00
  1.834044e+01    1.268008e+00
  1.835632e+01    1.290459e+00
  1.837220e+01    1.242580e+00
  1.838807e+01    1.232554e+00
  1.840395e+01    1.239274e+00
  1.841982e+01    1.266769e+00
  1.843570e+01    1.271332e+00
  1.845157e+01    1.252678e+00
  1.846745e+01    1.259807e+00
  1.848332e+01    1.274837e+00
  1.849920e+01    1.266791e+00
  1.851508e+01    1.248128e+00
  1.853095e+01    1.234356e+00
  1.854683e+01    1.245959e+00
  1.856270e+01    1.229445e+00
  1.857858e+01    1.226952e+00
  1.859445e+01    1.235126e+00
  1.861033e+01    1.255468e+00
  1.862620e+01    1.239521e+00
  1.864208e+01    1.234600e+00
  1.865796e+01    1.221013e+00
  1.867383e+01    1.230413e+00
  1.868971e+01    1.238550e+00
  1.870558e+01    1.213057e+00
  1.872146e+01    1.223639e+00
  1.873733e+01    1.209071e+00
  1.875321e+01    1.194886e+00
  1.876908e+01    1.222693e+00
  1.878496e+01    1.224127e+00
  1.880084e+01    1.208631e+00
  1.881671e+01    1.223946e+00
  1.883259e+01    1.234352e+00
  1.884846e+01    1.201844e+00
  1.886434e+01    1.214878e+00
  1.888021e+01    1.238362e+00
  1.889609e+01    1.219399e+00
  1.891196e+01    1.192247e+00
  1.892784e+01    1.208009e+00
  1.894372e+01    1.223246e+00
  1.895959e+01    1.200219e+00
  1.897547e+01    1.189925e+00
  1.899134e+01    1.219278e+00
  1.900722e+01    1.210945e+00
  1.902309e+01    1.194470e+00
  1.903897e+01    1.202552e+00
  1.905484e+01    1.198455e+00
  1.907072e+01    1.193105e+00
  1.908660e+01    1.203740e+00
  1.910247e+01    1.211747e+00
  1.911835e+01    1.194858e+00
  1.913422e+01    1.206511e+00
  1.915010e+01    1.210578e+00
  1.916597e+01    1.215234e+00
  1.918185e+01    1.206445e+00
  1.919773e+01    1.191608e+00
  1.921360e+01    1.178622e+00
  1.922948e+01    1.187963e+00
  1.924535e+01    1.161135e+00
  1.926123e+01    1.194467e+00
  1.927710e+01    1.180212e+00
  1.929298e+01    1.178495e+00
  1.930885e+01    1.185344e+00
  1.932473e+01    1.177267e+00
  1.934061e+01    1.163527e+00
  1.935648e+01    1.171241e+00
  1.937236e+01    1.149091e+00
  1.938823e+01    1.181826e+00
  1.940411e+01    1.206257e+00
  1.941998e+01    1.155005e+00
  1.943586e+01    1.173941e+00
  1.945173e+01    1.173940e+00
  1.946761e+01    1.183958e+00
  1.948349e+01    1.162965e+00
  1.949936e+01    1.156275e+00
  1.951524e+01    1.181573e+00
  1.953111e+01    1.178096e+00
  1.954699e+01    1.170081e+00
  1.956286e+01    1.169397e+00
  1.957874e+01    1.154098e+00
  1.959461e+01    1.148878e+00
  1.961049e+01    1.164156e+00
  1.962637e+01    1.192306e+00
  1.964224e+01    1.169044e+00
  1.965812e+01    1.156931e+00
  1.967399e+01    1.140205e+00
  1.968987e+01    1.140011e+00
  1.970574e+01    1.144401e+00
  1.972162e+01    1.142865e+00
  1.973749e+01    1.127166e+00
  1.975337e+01    1.133865e+00
  1.976925e+01    1.153525e+00
  1.978512e+01    1.135519e+00
  1.980100e+01    1.141678e+00
  1.981687e+01    1.137275e+00
  1.983275e+01    1.163158e+00
  1.984862e+01    1.130096e+00
  1.986450e+01    1.121551e+00
  1.988037e+01    1.146321e+00
  1.989625e+01    1.144702e+00
  1.991213e+01    1.144653e+00
  1.992800e+01    1.128150e+00
  1.994388e+01    1.120500e+00
  1.995975e+01    1.140897e+00
  1.997563e+01    1.148371e+00
  1.999150e+01    1.151182e+00
  2.000738e+01    1.140651e+00
  2.002325e+01    1.129987e+00
  2.003913e+01    1.116331e+00
  2.005501e+01    1.121578e+00
  2.007088e+01    1.130919e+00
  2.008676e+01    1.088927e+00
  2.010263e+01    1.115512e+00
  2.011851e+01    1.119360e+00
  2.013438e+01    1.100216e+00
  2.015026e+01    1.112259e+00
  2.016614e+01    1.115369e+00
  2.018201e+01    1.120027e+00
  2.019789e+01    1.126886e+00
  2.021376e+01    1.127681e+00
  2.022964e+01    1.122404e+00
  2.024551e+01    1.087367e+00
  2.026139e+01    1.099521e+00
  2.027726e+01    1.118525e+00
  2.029314e+01    1.081687e+00
  2.030902e+01    1.086493e+00
  2.032489e+01    1.108075e+00
  2.034077e+01    1.111423e+00
  2.035664e+01    1.121010e+00
  2.037252e+01    1.104076e+00
  2.038839e+01    1.092903e+00
  2.040427e+01    1.092508e+00
  2.042014e+01    1.096611e+00
  2.043602e+01    1.100855e+00
  2.045190e+01    1.090474e+00
  2.046777e+01    1.094595e+00
  2.048365e+01    1.095425e+00
  2.049952e+01    1.098391e+00
  2.051540e+01    1.103786e+00
  2.053127e+01    1.072130e+00
  2.054715e+01    1.078476e+00
  2.056302e+01    1.093566e+00
  2.057890e+01    1.079751e+00
  2.059478e+01    1.067566e+00
  2.061065e+01    1.074752e+00
  2.062653e+01    1.071681e+00
  2.064240e+01    1.065431e+00
  2.065828e+01    1.082204e+00
  2.067415e+01    1.092554e+00
  2.069003e+01    1.081739e+00
  2.070590e+01    1.105870e+00
  2.072178e+01    1.091570e+00
  2.073766e+01    1.077318e+00
  2.075353e+01    1.066818e+00
  2.076941e+01    1.071368e+00
  2.078528e+01    1.088821e+00
  2.080116e+01    1.073249e+00
  2.081703e+01    1.073227e+00
  2.083291e+01    1.055887e+00
  2.084878e+01    1.048031e+00
  2.086466e+01    1.053627e+00
  2.088054e+01    1.062435e+00
  2.089641e+01    1.064323e+00
  2.091229e+01    1.079066e+00
  2.092816e+01    1.062713e+00
  2.094404e+01    1.069007e+00
  2.095991e+01    1.077338e+00
  2.097579e+01    1.067735e+00
  2.099166e+01    1.100194e+00
  2.100754e+01    1.084053e+00
  2.102342e+01    1.079932e+00
  2.103929e+01    1.089545e+00
  2.105517e+01    1.063660e+00
  2.107104e+01    1.076123e+00
  2.108692e+01    1.089640e+00
  2.110279e+01    1.089001e+00
  2.111867e+01    1.094610e+00
  2.113455e+01    1.081419e+00
  2.115042e+01    1.100032e+00
  2.116630e+01    1.094047e+00
  2.118217e+01    1.076640e+00
  2.119805e+01    1.077517e+00
  2.121392e+01    1.114374e+00
  2.122980e+01    1.106472e+00
  2.124567e+01    1.122112e+00
  2.126155e+01    1.133266e+00
  2.127743e+01    1.104187e+00
  2.129330e+01    1.094257e+00
  2.130918e+01    1.098489e+00
  2.132505e+01    1.141384e+00
  2.134093e+01    1.153209e+00
  2.135680e+01    1.153016e+00
  2.137268e+01    1.136494e+00
  2.138855e+01    1.154713e+00
  2.140443e+01    1.165873e+00
  2.142031e+01    1.176391e+00
  2.143618e+01    1.185362e+00
  2.145206e+01    1.207290e+00
  2.146793e+01    1.241427e+00
  2.148381e+01    1.275610e+00
  2.149968e+01    1.293223e+00
  2.151556e+01    1.322979e+00
  2.153143e+01    1.358205e+00
  2.154731e+01    1.370587e+00
  2.156319e+01    1.417800e+00
  2.157906e+01    1.460811e+00
  2.159494e+01    1.558406e+00
  2.161081e+01    1.623781e+00
  2.162669e+01    1.752174e+00
  2.164256e+01    1.831889e+00
  2.165844e+01    2.017731e+00
  2.167431e+01    2.201432e+00
  2.169019e+01    2.406577e+00
  2.170607e+01    2.691135e+00
  2.172194e+01    2.992557e+00
  2.173782e+01    3.365629e+00
  2.175369e+01    3.876123e+00
  2.176957e+01    4.460643e+00
  2.178544e+01    5.053792e+00
  2.180132e+01    5.723722e+00
  2.181719e+01    6.356203e+00
  2.183307e+01    7.117094e+00
  2.184895e+01    7.760944e+00
  2.186482e+01    8.301487e+00
  2.188070e+01    8.710135e+00
  2.189657e+01    8.869048e+00
  2.191245e+01    8.712333e+00
  2.192832e+01    8.172800e+00
  2.194420e+01    7.336533e+00
  2.196007e+01    6.429740e+00
  2.197595e+01    5.438323e+00
  2.199183e+01    4.611555e+00
  2.200770e+01    3.930585e+00
  2.202358e+01    3.397123e+00
  2.203945e+01    2.982888e+00
  2.205533e+01    2.660587e+00
  2.207120e+01    2.360975e+00
  2.208708e+01    2.147937e+00
  2.210296e+01    1.941041e+00
  2.211883e+01    1.838260e+00
  2.213471e+01    1.714249e+00
  2.215058e+01    1.588397e+00
  2.216646e+01    1.489066e+00
  2.218233e+01    1.412332e+00
  2.219821e+01    1.377121e+00
  2.221408e+01    1.337740e+00
  2.222996e+01    1.298663e+00
  2.224584e+01    1.274482e+00
  2.226171e+01    1.242673e+00
  2.227759e+01    1.221004e+00
  2.229346e+01    1.196219e+00
  2.230934e+01    1.155412e+00
  2.232521e+01    1.140660e+00
  2.234109e+01    1.140200e+00
  2.235696e+01    1.125515e+00
  2.237284e+01    1.091404e+00
  2.238872e+01    1.068624e+00
  2.240459e+01    1.075713e+00
  2.242047e+01    1.057338e+00
  2.243634e+01    1.054378e+00
  2.245222e+01    1.079300e+00
  2.246809e+01    1.050539e+00
  2.248397e+01    1.014150e+00
  2.249984e+01    1.023755e+00
  2.251572e+01    1.027856e+00
  2.253160e+01    1.014967e+00
  2.254747e+01    9.941448e-01
  2.256335e+01    9.850573e-01
  2.257922e+01    9.890957e-01
  2.259510e+01    9.983501e-01
  2.261097e+01    9.784951e-01
  2.262685e+01    9.644783e-01
  2.264272e+01    9.673479e-01
  2.265860e+01    9.847410e-01
  2.267448e+01    9.648316e-01
  2.269035e+01    9.758436e-01
  2.270623e+01    9.604883e-01
  2.272210e+01    9.478622e-01
  2.273798e+01    9.466429e-01
  2.275385e+01    9.476963e-01
  2.276973e+01    9.591835e-01
  2.278560e+01    9.429085e-01
  2.280148e+01    9.437041e-01
  2.281736e+01    9.363284e-01
  2.283323e+01    9.174968e-01
  2.284911e+01    9.088596e-01
  2.286498e+01    9.155486e-01
  2.288086e+01    9.304026e-01
  2.289673e+01    9.228282e-01
  2.291261e+01    9.405570e-01
  2.292848e+01    8.936706e-01
  2.294436e+01    9.005397e-01
  2.296024e+01    9.078771e-01
  2.297611e+01    8.953820e-01
  2.299199e+01    9.072438e-01
  2.300786e+01    9.133607e-01
  2.302374e+01    9.033784e-01
  2.303961e+01    9.096824e-01
  2.305549e+01    9.056026e-01
  2.307137e+01    8.934889e-01
  2.308724e+01    8.896252e-01
  2.310312e+01    8.811459e-01
  2.311899e+01    8.870672e-01
  2.313487e+01    8.693316e-01
  2.315074e+01    8.888479e-01
  2.316662e+01    8.810675e-01
  2.318249e+01    8.866631e-01
  2.319837e+01    8.866644e-01
  2.321425e+01    8.757750e-01
  2.323012e+01    8.621623e-01
  2.324600e+01    8.577796e-01
  2.326187e+01    8.646002e-01
  2.327775e+01    8.540807e-01
  2.329362e+01    8.471377e-01
  2.330950e+01    8.709480e-01
  2.332537e+01    8.758519e-01
  2.334125e+01    8.668068e-01
  2.335713e+01    8.705757e-01
  2.337300e+01    8.781287e-01
  2.338888e+01    8.566183e-01
  2.340475e+01    8.478081e-01
  2.342063e+01    8.413708e-01
  2.343650e+01    8.389252e-01
  2.345238e+01    8.394534e-01
  2.346825e+01    8.614928e-01
  2.348413e+01    8.577733e-01
  2.350001e+01    8.572747e-01
  2.351588e+01    8.483749e-01
  2.353176e+01    8.496703e-01
  2.354763e+01    8.466274e-01
  2.356351e+01    8.389816e-01
  2.357938e+01    8.499263e-01
  2.359526e+01    8.415777e-01
  2.361113e+01    8.297731e-01
  2.362701e+01    8.258674e-01
  2.364289e+01    8.365045e-01
  2.365876e+01    8.246513e-01
  2.367464e+01    8.303900e-01
  2.369051e+01    8.242366e-01
  2.370639e+01    8.281921e-01
  2.372226e+01    8.351034e-01
  2.373814e+01    8.365304e-01
  2.375401e+01    8.294312e-01
  2.376989e+01    8.236557e-01
  2.378577e+01    8.224912e-01
  2.380164e+01    8.243316e-01
  2.381752e+01    8.016567e-01
  2.383339e+01    7.952741e-01
  2.384927e+01    8.180258e-01
  2.386514e+01    8.349781e-01
  2.388102e+01    8.380636e-01
  2.389689e+01    8.147823e-01
  2.391277e+01    7.992120e-01
  2.392865e+01    8.022197e-01
  2.394452e+01    8.118243e-01
  2.396040e+01    7.874066e-01
  2.397627e+01    7.918867e-01
  2.399215e+01    7.902728e-01
  2.400802e+01    7.888876e-01
  2.402390e+01    7.929978e-01
  2.403978e+01    8.183246e-01
  2.405565e+01    7.845275e-01
  2.407153e+01    7.751894e-01
  2.408740e+01    7.893231e-01
  2.410328e+01    7.862831e-01
  2.411915e+01    7.917933e-01
  2.413503e+01    7.940402e-01
  2.415090e+01    7.795660e-01
  2.416678e+01    7.691729e-01
  2.418266e+01    7.665318e-01
  2.419853e+01    7.667552e-01
  2.421441e+01    7.610301e-01
  2.423028e+01    7.634311e-01
  2.424616e+01    7.696667e-01
  2.426203e+01    7.802671e-01
  2.427791e+01    8.060549e-01
  2.429378e+01    7.832397e-01
  2.430966e+01    7.572842e-01
  2.432554e+01    7.601627e-01
  2.434141e+01    7.679048e-01
  2.435729e+01    7.848752e-01
  2.437316e+01    7.715473e-01
  2.438904e+01    7.702956e-01
  2.440491e+01    7.951081e-01
  2.442079e+01    7.878814e-01
  2.443666e+01    7.922453e-01
  2.445254e+01    7.699863e-01
  2.446842e+01    7.724323e-01
  2.448429e+01    7.772418e-01
  2.450017e+01    7.801008e-01
  2.451604e+01    7.897056e-01
  2.453192e+01    8.029516e-01
  2.454779e+01    7.944078e-01
  2.456367e+01    7.848893e-01
  2.457954e+01    7.850388e-01
  2.459542e+01    7.861145e-01
  2.461130e+01    7.805001e-01
  2.462717e+01    7.781974e-01
  2.464305e+01    7.932659e-01
  2.465892e+01    7.782751e-01
  2.467480e+01    7.847811e-01
  2.469067e+01    7.880552e-01
  2.470655e+01    7.880358e-01
  2.472242e+01    7.954150e-01
  2.473830e+01    7.910395e-01
  2.475418e+01    7.838301e-01
  2.477005e+01    7.852777e-01
  2.478593e+01    8.088052e-01
  2.480180e+01    7.973271e-01
  2.481768e+01    7.968432e-01
  2.483355e+01    7.751814e-01
  2.484943e+01    7.722796e-01
  2.486530e+01    7.991479e-01
  2.488118e+01    8.081824e-01
  2.489706e+01    7.964022e-01
  2.491293e+01    7.779102e-01
  2.492881e+01    7.812223e-01
  2.494468e+01    8.081697e-01
  2.496056e+01    8.267831e-01
  2.497643e+01    8.016828e-01
  2.499231e+01    7.995153e-01
  2.500819e+01    8.167464e-01
  2.502406e+01    7.991118e-01
  2.503994e+01    7.906026e-01
  2.505581e+01    7.978749e-01
  2.507169e+01    8.034479e-01
  2.508756e+01    7.909551e-01
  2.510344e+01    8.031452e-01
  2.511931e+01    8.136317e-01
  2.513519e+01    8.119798e-01
  2.515107e+01    8.117293e-01
  2.516694e+01    8.257809e-01
  2.518282e+01    8.330168e-01
  2.519869e+01    8.269506e-01
  2.521457e+01    8.287074e-01
  2.523044e+01    8.488339e-01
  2.524632e+01    8.722917e-01
  2.526219e+01    8.466958e-01
  2.527807e+01    8.380455e-01
  2.529395e+01    8.504780e-01
  2.530982e+01    8.671119e-01
  2.532570e+01    8.616368e-01
  2.534157e+01    8.827446e-01
  2.535745e+01    8.901902e-01
  2.537332e+01    8.965998e-01
  2.538920e+01    9.153178e-01
  2.540507e+01    9.163660e-01
  2.542095e+01    9.018272e-01
  2.543683e+01    9.116692e-01
  2.545270e+01    9.526859e-01
  2.546858e+01    9.516499e-01
  2.548445e+01    9.447860e-01
  2.550033e+01    9.600627e-01
  2.551620e+01    9.845676e-01
  2.553208e+01    9.963583e-01
  2.554795e+01    1.005922e+00
  2.556383e+01    1.041630e+00
  2.557971e+01    1.060955e+00
  2.559558e+01    1.115078e+00
  2.561146e+01    1.138227e+00
  2.562733e+01    1.175811e+00
  2.564321e+01    1.210604e+00
  2.565908e+01    1.262670e+00
  2.567496e+01    1.332184e+00
  2.569083e+01    1.428950e+00
  2.570671e+01    1.525672e+00
  2.572259e+01    1.652589e+00
  2.573846e+01    1.781462e+00
  2.575434e+01    1.940765e+00
  2.577021e+01    2.201364e+00
  2.578609e+01    2.478722e+00
  2.580196e+01    2.756535e+00
  2.581784e+01    3.157508e+00
  2.583371e+01    3.595285e+00
  2.584959e+01    4.089326e+00
  2.586547e+01    4.691940e+00
  2.588134e+01    5.255139e+00
  2.589722e+01    5.816608e+00
  2.591309e+01    6.383585e+00
  2.592897e+01    6.898826e+00
  2.594484e+01    7.207170e+00
  2.596072e+01    7.298561e+00
  2.597660e+01    7.075186e+00
  2.599247e+01    6.639249e+00
  2.600835e+01    5.978690e+00
  2.602422e+01    5.310950e+00
  2.604010e+01    4.545455e+00
  2.605597e+01    3.867125e+00
  2.607185e+01    3.321098e+00
  2.608772e+01    2.917809e+00
  2.610360e+01    2.538358e+00
  2.611948e+01    2.246442e+00
  2.613535e+01    2.049777e+00
  2.615123e+01    1.883459e+00
  2.616710e+01    1.692518e+00
  2.618298e+01    1.599223e+00
  2.619885e+01    1.468904e+00
  2.621473e+01    1.376843e+00
  2.623060e+01    1.331198e+00
  2.624648e+01    1.266939e+00
  2.626236e+01    1.219670e+00
  2.627823e+01    1.154205e+00
  2.629411e+01    1.124535e+00
  2.630998e+01    1.090100e+00
  2.632586e+01    1.069143e+00
  2.634173e+01    1.048141e+00
  2.635761e+01    1.027244e+00
  2.637348e+01    9.931477e-01
  2.638936e+01    9.851251e-01
  2.640524e+01    9.585226e-01
  2.642111e+01    9.530122e-01
  2.643699e+01    9.422418e-01
  2.645286e+01    9.431757e-01
  2.646874e+01    9.298305e-01
  2.648461e+01    9.109294e-01
  2.650049e+01    9.256653e-01
  2.651636e+01    9.354261e-01
  2.653224e+01    9.269981e-01
  2.654812e+01    9.060320e-01
  2.656399e+01    9.064155e-01
  2.657987e+01    8.809220e-01
  2.659574e+01    8.846878e-01
  2.661162e+01    8.967842e-01
  2.662749e+01    8.853912e-01
  2.664337e+01    8.916945e-01
  2.665924e+01    8.682122e-01
  2.667512e+01    8.867961e-01
  2.669100e+01    9.046907e-01
  2.670687e+01    8.969510e-01
  2.672275e+01    8.685984e-01
  2.673862e+01    8.728182e-01
  2.675450e+01    8.835160e-01
  2.677037e+01    8.800823e-01
  2.678625e+01    8.920456e-01
  2.680212e+01    9.106104e-01
  2.681800e+01    8.963965e-01
  2.683388e+01    8.995359e-01
  2.684975e+01    9.011444e-01
  2.686563e+01    8.812411e-01
  2.688150e+01    8.985527e-01
  2.689738e+01    9.169266e-01
  2.691325e+01    9.192407e-01
  2.692913e+01    9.182955e-01
  2.694501e+01    9.465550e-01
  2.696088e+01    9.842004e-01
  2.697676e+01    9.846398e-01
  2.699263e+01    9.935298e-01
  2.700851e+01    1.026999e+00
  2.702438e+01    1.066794e+00
  2.704026e+01    1.123036e+00
  2.705613e+01    1.173551e+00
  2.707201e+01    1.258367e+00
  2.708789e+01    1.318736e+00
  2.710376e+01    1.410884e+00
  2.711964e+01    1.540460e+00
  2.713551e+01    1.654841e+00
  2.715139e+01    1.784370e+00
  2.716726e+01    1.930598e+00
  2.718314e+01    2.071863e+00
  2.719901e+01    2.137103e+00
  2.721489e+01    2.179656e+00
  2.723077e+01    2.191223e+00
  2.724664e+01    2.063358e+00
  2.726252e+01    1.935735e+00
  2.727839e+01    1.798693e+00
  2.729427e+01    1.667530e+00
  2.731014e+01    1.514796e+00
  2.732602e+01    1.373004e+00
  2.734189e+01    1.269736e+00
  2.735777e+01    1.204718e+00
  2.737365e+01    1.102480e+00
  2.738952e+01    1.080044e+00
  2.740540e+01    1.037904e+00
  2.742127e+01    9.802340e-01
  2.743715e+01    9.713023e-01
  2.745302e+01    9.608516e-01
  2.746890e+01    9.317477e-01
  2.748477e+01    9.025822e-01
  2.750065e+01    9.009909e-01
  2.751653e+01    8.891740e-01
  2.753240e+01    8.732474e-01
  2.754828e+01    8.754748e-01
  2.756415e+01    8.723539e-01
  2.758003e+01    8.387943e-01
  2.759590e+01    8.288637e-01
  2.761178e+01    8.386346e-01
  2.762765e+01    8.269442e-01
  2.764353e+01    8.293908e-01
  2.765941e+01    8.407937e-01
  2.767528e+01    8.230041e-01
  2.769116e+01    8.211603e-01
  2.770703e+01    8.063241e-01
  2.772291e+01    8.217484e-01
  2.773878e+01    8.152032e-01
  2.775466e+01    8.382041e-01
  2.777054e+01    8.055989e-01
  2.778641e+01    8.015812e-01
  2.780229e+01    8.165323e-01
  2.781816e+01    7.988806e-01
  2.783404e+01    7.884767e-01
  2.784991e+01    7.784136e-01
  2.786579e+01    8.177149e-01
  2.788166e+01    8.147233e-01
  2.789754e+01    7.835816e-01
  2.791342e+01    7.783080e-01
  2.792929e+01    7.916624e-01
  2.794517e+01    7.826120e-01
  2.796104e+01    7.918679e-01
  2.797692e+01    7.988089e-01
  2.799279e+01    7.902753e-01
  2.800867e+01    7.794305e-01
  2.802454e+01    7.624971e-01
  2.804042e+01    7.946006e-01
  2.805630e+01    7.864024e-01
  2.807217e+01    7.703001e-01
  2.808805e+01    7.621376e-01
  2.810392e+01    7.614401e-01
  2.811980e+01    7.786623e-01
  2.813567e+01    7.770867e-01
  2.815155e+01    7.639223e-01
  2.816742e+01    7.611610e-01
  2.818330e+01    7.510511e-01
  2.819918e+01    7.620839e-01
  2.821505e+01    7.507689e-01
  2.823093e+01    7.552900e-01
  2.824680e+01    7.625847e-01
  2.826268e+01    7.544588e-01
  2.827855e+01    7.500591e-01
  2.829443e+01    7.542840e-01
  2.831030e+01    7.720754e-01
  2.832618e+01    7.628098e-01
  2.834206e+01    7.819551e-01
  2.835793e+01    7.635730e-01
  2.837381e+01    7.628291e-01
  2.838968e+01    7.441442e-01
  2.840556e+01    7.529723e-01
  2.842143e+01    7.835258e-01
  2.843731e+01    7.817701e-01
  2.845318e+01    7.572925e-01
  2.846906e+01    7.431042e-01
  2.848494e+01    7.497640e-01
  2.850081e+01    7.640755e-01
  2.851669e+01    7.472817e-01
  2.853256e+01    7.437773e-01
  2.854844e+01    7.452251e-01
  2.856431e+01    7.413524e-01
  2.858019e+01    7.394829e-01
  2.859606e+01    7.663789e-01
  2.861194e+01    7.645712e-01
  2.862782e+01    7.391856e-01
  2.864369e+01    7.530273e-01
  2.865957e+01    7.517202e-01
  2.867544e+01    7.276583e-01
  2.869132e+01    7.286476e-01
  2.870719e+01    7.310110e-01
  2.872307e+01    7.313124e-01
  2.873895e+01    7.263798e-01
  2.875482e+01    7.399271e-01
  2.877070e+01    7.471834e-01
  2.878657e+01    7.601499e-01
  2.880245e+01    7.367098e-01
  2.881832e+01    7.491587e-01
  2.883420e+01    7.483999e-01
  2.885007e+01    7.338575e-01
  2.886595e+01    7.389923e-01
  2.888183e+01    7.527963e-01
  2.889770e+01    7.353962e-01
  2.891358e+01    7.286710e-01
  2.892945e+01    7.285203e-01
  2.894533e+01    7.404449e-01
  2.896120e+01    7.240670e-01
  2.897708e+01    7.484803e-01
  2.899295e+01    7.421054e-01
  2.900883e+01    7.625396e-01
  2.902471e+01    7.461819e-01
  2.904058e+01    7.280247e-01
  2.905646e+01    7.186784e-01
  2.907233e+01    7.165419e-01
  2.908821e+01    7.155838e-01
  2.910408e+01    7.220042e-01
  2.911996e+01    7.138780e-01
  2.913583e+01    7.385775e-01
  2.915171e+01    7.271594e-01
  2.916759e+01    7.286862e-01
  2.918346e+01    7.256708e-01
  2.919934e+01    7.313580e-01
  2.921521e+01    7.168183e-01
  2.923109e+01    7.104339e-01
  2.924696e+01    7.222779e-01
  2.926284e+01    7.227228e-01
  2.927871e+01    7.299873e-01
  2.929459e+01    7.245967e-01
  2.931047e+01    7.257559e-01
  2.932634e+01    7.263205e-01
  2.934222e+01    7.272201e-01
  2.935809e+01    7.202604e-01
  2.937397e+01    7.137334e-01
  2.938984e+01    7.241849e-01
  2.940572e+01    7.231633e-01
  2.942159e+01    7.188399e-01
  2.943747e+01    7.308881e-01
  2.945335e+01    7.305075e-01
  2.946922e+01    7.120917e-01
  2.948510e+01    7.131209e-01
  2.950097e+01    7.477898e-01
  2.951685e+01    7.423927e-01
  2.953272e+01    7.240669e-01
  2.954860e+01    6.992725e-01
  2.956447e+01    7.114388e-01
  2.958035e+01    7.050858e-01
  2.959623e+01    7.382230e-01
  2.961210e+01    7.315551e-01
  2.962798e+01    7.006257e-01
  2.964385e+01    7.130525e-01
  2.965973e+01    7.167581e-01
  2.967560e+01    7.171696e-01
  2.969148e+01    7.070914e-01
  2.970736e+01    6.965790e-01
  2.972323e+01    7.275913e-01
  2.973911e+01    7.403780e-01
  2.975498e+01    7.479420e-01
  2.977086e+01    7.361863e-01
  2.978673e+01    7.061488e-01
  2.980261e+01    7.222442e-01
  2.981848e+01    7.306215e-01
  2.983436e+01    7.070414e-01
  2.985024e+01    6.796987e-01
  2.986611e+01    6.996611e-01
  2.988199e+01    7.096530e-01
  2.989786e+01    7.111423e-01
  2.991374e+01    7.134961e-01
  2.992961e+01    7.268956e-01
  2.994549e+01    7.214454e-01
  2.996136e+01    7.255797e-01
  2.997724e+01    7.224659e-01
  2.999312e+01    7.137017e-01
  3.000899e+01    7.320074e-01
  3.002487e+01    7.592208e-01
  3.004074e+01    7.434154e-01
  3.005662e+01    7.365262e-01
  3.007249e+01    7.398199e-01
  3.008837e+01    7.289132e-01
  3.010424e+01    7.482721e-01
  3.012012e+01    7.426687e-01
  3.013600e+01    7.237850e-01
  3.015187e+01    7.208297e-01
  3.016775e+01    7.084076e-01
  3.018362e+01    7.063419e-01
  3.019950e+01    7.127354e-01
  3.021537e+01    7.147508e-01
  3.023125e+01    7.266305e-01
  3.024712e+01    7.037907e-01
  3.026300e+01    7.145635e-01
  3.027888e+01    6.814324e-01
  3.029475e+01    7.043070e-01
  3.031063e+01    7.260131e-01
  3.032650e+01    7.214145e-01
  3.034238e+01    7.026441e-01
  3.035825e+01    7.249009e-01
  3.037413e+01    7.138885e-01
  3.039000e+01    7.070303e-01
  3.040588e+01    7.014483e-01
  3.042176e+01    7.006474e-01
  3.043763e+01    6.985886e-01
  3.045351e+01    6.974509e-01
  3.046938e+01    7.181643e-01
  3.048526e+01    7.201875e-01
  3.050113e+01    7.237932e-01
  3.051701e+01    7.056028e-01
  3.053288e+01    7.165835e-01
  3.054876e+01    7.110516e-01
  3.056464e+01    7.233362e-01
  3.058051e+01    7.121976e-01
  3.059639e+01    6.974158e-01
  3.061226e+01    7.058470e-01
  3.062814e+01    6.966194e-01
  3.064401e+01    7.063109e-01
  3.065989e+01    7.065783e-01
  3.067577e+01    6.853123e-01
  3.069164e+01    7.024925e-01
  3.070752e+01    7.260215e-01
  3.072339e+01    6.934510e-01
  3.073927e+01    7.042302e-01
  3.075514e+01    6.934164e-01
  3.077102e+01    7.149804e-01
  3.078689e+01    7.077980e-01
  3.080277e+01    6.933376e-01
  3.081865e+01    7.004177e-01
  3.083452e+01    6.928688e-01
  3.085040e+01    7.018194e-01
  3.086627e+01    7.088673e-01
  3.088215e+01    7.075320e-01
  3.089802e+01    7.030869e-01
  3.091390e+01    7.315126e-01
  3.092977e+01    6.980237e-01
  3.094565e+01    7.059469e-01
  3.096153e+01    7.265171e-01
  3.097740e+01    7.220715e-01
  3.099328e+01    7.120869e-01
  3.100915e+01    7.232020e-01
  3.102503e+01    7.134540e-01
  3.104090e+01    7.034140e-01
  3.105678e+01    7.070830e-01
  3.107265e+01    7.090279e-01
  3.108853e+01    7.239400e-01
  3.110441e+01    7.157002e-01
  3.112028e+01    7.143878e-01
  3.113616e+01    7.029225e-01
  3.115203e+01    6.931553e-01
  3.116791e+01    7.162586e-01
  3.118378e+01    7.490819e-01
  3.119966e+01    7.471041e-01
  3.121553e+01    7.353575e-01
  3.123141e+01    7.293221e-01
  3.124729e+01    7.358420e-01
  3.126316e+01    7.257877e-01
  3.127904e+01    7.433386e-01
  3.129491e+01    7.313334e-01
  3.131079e+01    7.321806e-01
  3.132666e+01    7.241689e-01
  3.134254e+01    7.340586e-01
  3.135841e+01    7.487456e-01
  3.137429e+01    7.424463e-01
  3.139017e+01    7.373279e-01
  3.140604e+01    7.347413e-01
  3.142192e+01    7.400326e-01
  3.143779e+01    7.322984e-01
  3.145367e+01    7.366015e-01
  3.146954e+01    7.596406e-01
  3.148542e+01    7.566943e-01
  3.150129e+01    7.657356e-01
  3.151717e+01    7.634196e-01
  3.153305e+01    7.875311e-01
  3.154892e+01    7.736161e-01
  3.156480e+01    7.824089e-01
  3.158067e+01    8.031131e-01
  3.159655e+01    8.083065e-01
  3.161242e+01    8.269873e-01
  3.162830e+01    8.404735e-01
  3.164418e+01    8.422297e-01
  3.166005e+01    8.831108e-01
  3.167593e+01    9.217442e-01
  3.169180e+01    9.421442e-01
  3.170768e+01    9.814195e-01
  3.172355e+01    1.041740e+00
  3.173943e+01    1.084719e+00
  3.175530e+01    1.148035e+00
  3.177118e+01    1.250038e+00
  3.178706e+01    1.339966e+00
  3.180293e+01    1.462707e+00
  3.181881e+01    1.584081e+00
  3.183468e+01    1.720388e+00
  3.185056e+01    1.846430e+00
  3.186643e+01    1.967590e+00
  3.188231e+01    2.092772e+00
  3.189818e+01    2.125805e+00
  3.191406e+01    2.105671e+00
  3.192994e+01    2.068565e+00
  3.194581e+01    1.964476e+00
  3.196169e+01    1.789415e+00
  3.197756e+01    1.630453e+00
  3.199344e+01    1.515991e+00
  3.200931e+01    1.369404e+00
  3.202519e+01    1.285153e+00
  3.204106e+01    1.187768e+00
  3.205694e+01    1.104801e+00
  3.207282e+01    1.018525e+00
  3.208869e+01    9.613176e-01
  3.210457e+01    9.333763e-01
  3.212044e+01    9.054698e-01
  3.213632e+01    8.618518e-01
  3.215219e+01    8.241143e-01
  3.216807e+01    8.190659e-01
  3.218394e+01    8.170699e-01
  3.219982e+01    7.968197e-01
  3.221570e+01    7.972926e-01
  3.223157e+01    8.054529e-01
  3.224745e+01    7.962204e-01
  3.226332e+01    7.821673e-01
  3.227920e+01    7.671714e-01
  3.229507e+01    7.583551e-01
  3.231095e+01    7.301749e-01
  3.232682e+01    7.324980e-01
  3.234270e+01    7.239292e-01
  3.235858e+01    7.374829e-01
  3.237445e+01    7.282295e-01
  3.239033e+01    7.256083e-01
  3.240620e+01    7.192803e-01
  3.242208e+01    7.331900e-01
  3.243795e+01    7.359958e-01
  3.245383e+01    7.511827e-01
  3.246970e+01    7.290208e-01
  3.248558e+01    7.235694e-01
  3.250146e+01    7.141248e-01
  3.251733e+01    7.167824e-01
  3.253321e+01    7.172741e-01
  3.254908e+01    7.167393e-01
