# == pyFAI calibration ==
# Distance Sample to Detector: 0.3999999939076516 m
# PONI: 9.750e-02, 1.135e-01 m
# Rotations: -0.000175 0.000000 -0.000000 rad
# 
# == Fit2d calibration ==
# Distance Sample-beamCenter: 400.000 mm
# Center: x=1514.000, y=1300.000 pix
# Tilt: 0.010 deg  TiltPlanRot: 0.010 deg
# 
# Detector Detector	 Spline= None	 PixelSize= 7.500e-05, 7.500e-05 m
#    Detector has a mask: False 
#    Detector has a dark current: False 
#    detector has a flat field: False 
# 
# Wavelength: 6.888e-11 m
# Mask applied: user provided
# Dark current applied: False
# Flat field applied: False
# Polarization factor: 0.99
# Normalization factor: 1.0
# --> /home/myspot/data/2024_07_Rosario/Ru-CGO-ex/2024-07-27_002_Ru-CGO-ex_Activtation_ramp_000002_data_000152.dat
#       q_nm^-1             I 
  2.003187e-02    2.195846e-01
  3.590745e-02    1.700868e-01
  5.178302e-02    1.662252e-01
  6.765859e-02    4.914989e-02
  8.353417e-02    0.000000e+00
  9.940974e-02    3.787725e-02
  1.152853e-01    4.352763e-02
  1.311609e-01    3.542070e-02
  1.470365e-01    2.345889e-02
  1.629120e-01    2.263933e-02
  1.787876e-01    6.001083e-02
  1.946632e-01    2.803372e-02
  2.105388e-01    1.369661e-02
  2.264143e-01    1.202953e-02
  2.422899e-01    1.592915e-02
  2.581655e-01    2.322715e-02
  2.740411e-01    3.917024e-02
  2.899166e-01    2.584329e-02
  3.057922e-01    3.932021e-02
  3.216678e-01    3.983431e-02
  3.375433e-01    2.391198e-02
  3.534189e-01    6.056444e-02
  3.692945e-01    3.575218e-02
  3.851701e-01    3.059691e-02
  4.010456e-01    4.194634e-02
  4.169212e-01    4.149804e-02
  4.327968e-01    3.091517e-02
  4.486724e-01    4.798078e-02
  4.645479e-01    8.248577e-02
  4.804235e-01    6.253661e-02
  4.962991e-01    1.389499e-02
  5.121747e-01    1.190299e-02
  5.280502e-01    4.277511e-02
  5.439258e-01    2.499252e-02
  5.598014e-01    1.839923e-02
  5.756770e-01    3.742890e-02
  5.915525e-01    5.606107e-02
  6.074281e-01    3.870143e-02
  6.233037e-01    2.304806e-02
  6.391793e-01    2.913599e-02
  6.550548e-01    2.900123e-02
  6.709304e-01    3.494417e-02
  6.868060e-01    3.154738e-02
  7.026815e-01    3.574828e-02
  7.185571e-01    4.350184e-02
  7.344327e-01    4.201382e-02
  7.503083e-01    3.600481e-02
  7.661838e-01    4.535724e-02
  7.820594e-01    1.056627e-01
  7.979350e-01    1.580897e-01
  8.138106e-01    2.413064e-01
  8.296861e-01    2.911227e-01
  8.455617e-01    3.500436e-01
  8.614373e-01    4.506893e-01
  8.773129e-01    4.812600e-01
  8.931884e-01    5.387140e-01
  9.090640e-01    5.229384e-01
  9.249396e-01    5.692497e-01
  9.408152e-01    7.341523e-01
  9.566907e-01    8.168675e-01
  9.725663e-01    7.866089e-01
  9.884419e-01    9.398154e-01
  1.004317e+00    1.036058e+00
  1.020193e+00    1.233309e+00
  1.036069e+00    1.306808e+00
  1.051944e+00    1.322654e+00
  1.067820e+00    1.318741e+00
  1.083695e+00    1.476242e+00
  1.099571e+00    1.365506e+00
  1.115446e+00    1.347150e+00
  1.131322e+00    1.369015e+00
  1.147198e+00    1.471824e+00
  1.163073e+00    1.449284e+00
  1.178949e+00    1.468484e+00
  1.194824e+00    1.536712e+00
  1.210700e+00    1.748091e+00
  1.226575e+00    2.038998e+00
  1.242451e+00    2.230667e+00
  1.258327e+00    2.215819e+00
  1.274202e+00    2.238291e+00
  1.290078e+00    2.338192e+00
  1.305953e+00    2.471848e+00
  1.321829e+00    2.480273e+00
  1.337705e+00    2.654812e+00
  1.353580e+00    2.533294e+00
  1.369456e+00    2.530336e+00
  1.385331e+00    2.448867e+00
  1.401207e+00    2.519341e+00
  1.417082e+00    2.624200e+00
  1.432958e+00    2.562786e+00
  1.448834e+00    2.681798e+00
  1.464709e+00    2.762804e+00
  1.480585e+00    2.887643e+00
  1.496460e+00    2.849578e+00
  1.512336e+00    2.930064e+00
  1.528211e+00    2.917933e+00
  1.544087e+00    2.881257e+00
  1.559963e+00    2.976639e+00
  1.575838e+00    3.021252e+00
  1.591714e+00    2.878154e+00
  1.607589e+00    2.843372e+00
  1.623465e+00    2.928549e+00
  1.639340e+00    2.977899e+00
  1.655216e+00    2.902280e+00
  1.671092e+00    2.847594e+00
  1.686967e+00    2.785144e+00
  1.702843e+00    2.711401e+00
  1.718718e+00    2.843206e+00
  1.734594e+00    2.907267e+00
  1.750469e+00    2.814110e+00
  1.766345e+00    2.752692e+00
  1.782221e+00    2.825384e+00
  1.798096e+00    2.775194e+00
  1.813972e+00    2.753781e+00
  1.829847e+00    2.771704e+00
  1.845723e+00    2.761765e+00
  1.861598e+00    2.841210e+00
  1.877474e+00    2.695735e+00
  1.893350e+00    2.583021e+00
  1.909225e+00    2.703551e+00
  1.925101e+00    2.721840e+00
  1.940976e+00    2.771368e+00
  1.956852e+00    2.659280e+00
  1.972727e+00    2.642561e+00
  1.988603e+00    2.823355e+00
  2.004479e+00    2.803257e+00
  2.020354e+00    2.699054e+00
  2.036230e+00    2.678720e+00
  2.052105e+00    2.810588e+00
  2.067981e+00    2.757062e+00
  2.083856e+00    2.712674e+00
  2.099732e+00    2.780622e+00
  2.115608e+00    2.729548e+00
  2.131483e+00    2.772061e+00
  2.147359e+00    2.747401e+00
  2.163234e+00    2.694333e+00
  2.179110e+00    2.585523e+00
  2.194985e+00    2.608827e+00
  2.210861e+00    2.652808e+00
  2.226737e+00    2.744479e+00
  2.242612e+00    2.793590e+00
  2.258488e+00    2.768003e+00
  2.274363e+00    2.817281e+00
  2.290239e+00    2.832006e+00
  2.306115e+00    2.764473e+00
  2.321990e+00    2.701726e+00
  2.337866e+00    2.761831e+00
  2.353741e+00    2.740401e+00
  2.369617e+00    2.780586e+00
  2.385492e+00    2.775842e+00
  2.401368e+00    2.714786e+00
  2.417244e+00    2.748383e+00
  2.433119e+00    2.791574e+00
  2.448995e+00    2.810232e+00
  2.464870e+00    2.855396e+00
  2.480746e+00    2.828708e+00
  2.496621e+00    2.825028e+00
  2.512497e+00    2.816192e+00
  2.528373e+00    2.832077e+00
  2.544248e+00    2.802757e+00
  2.560124e+00    2.806308e+00
  2.575999e+00    2.804798e+00
  2.591875e+00    2.880232e+00
  2.607750e+00    2.820267e+00
  2.623626e+00    2.815780e+00
  2.639502e+00    2.844572e+00
  2.655377e+00    2.771314e+00
  2.671253e+00    2.826871e+00
  2.687128e+00    2.869219e+00
  2.703004e+00    2.815299e+00
  2.718879e+00    2.803706e+00
  2.734755e+00    2.871151e+00
  2.750631e+00    2.913523e+00
  2.766506e+00    2.889586e+00
  2.782382e+00    2.902410e+00
  2.798257e+00    2.855119e+00
  2.814133e+00    2.754525e+00
  2.830008e+00    2.790002e+00
  2.845884e+00    2.798403e+00
  2.861760e+00    2.892095e+00
  2.877635e+00    2.916970e+00
  2.893511e+00    2.940393e+00
  2.909386e+00    2.914968e+00
  2.925262e+00    2.846759e+00
  2.941137e+00    2.913811e+00
  2.957013e+00    2.944887e+00
  2.972889e+00    2.883100e+00
  2.988764e+00    2.866739e+00
  3.004640e+00    2.890240e+00
  3.020515e+00    2.922187e+00
  3.036391e+00    2.923032e+00
  3.052266e+00    2.919461e+00
  3.068142e+00    2.895981e+00
  3.084018e+00    2.953212e+00
  3.099893e+00    2.958461e+00
  3.115769e+00    2.895729e+00
  3.131644e+00    2.839418e+00
  3.147520e+00    2.901008e+00
  3.163395e+00    3.038071e+00
  3.179271e+00    3.000830e+00
  3.195147e+00    2.928933e+00
  3.211022e+00    2.952704e+00
  3.226898e+00    3.010998e+00
  3.242773e+00    2.990844e+00
  3.258649e+00    2.921505e+00
  3.274525e+00    3.056719e+00
  3.290400e+00    3.025781e+00
  3.306276e+00    2.931910e+00
  3.322151e+00    2.891143e+00
  3.338027e+00    2.928799e+00
  3.353902e+00    2.897614e+00
  3.369778e+00    2.845622e+00
  3.385654e+00    2.873413e+00
  3.401529e+00    2.898973e+00
  3.417405e+00    2.999456e+00
  3.433280e+00    2.990715e+00
  3.449156e+00    2.953937e+00
  3.465031e+00    2.948647e+00
  3.480907e+00    2.918703e+00
  3.496783e+00    3.004334e+00
  3.512658e+00    3.004925e+00
  3.528534e+00    3.021592e+00
  3.544409e+00    3.004731e+00
  3.560285e+00    3.047170e+00
  3.576160e+00    3.045148e+00
  3.592036e+00    3.025862e+00
  3.607912e+00    3.008051e+00
  3.623787e+00    3.064445e+00
  3.639663e+00    3.085155e+00
  3.655538e+00    2.974478e+00
  3.671414e+00    2.994484e+00
  3.687289e+00    3.021400e+00
  3.703165e+00    2.967771e+00
  3.719041e+00    3.039503e+00
  3.734916e+00    2.975982e+00
  3.750792e+00    2.885612e+00
  3.766667e+00    2.907087e+00
  3.782543e+00    3.013219e+00
  3.798418e+00    3.047299e+00
  3.814294e+00    3.063528e+00
  3.830170e+00    3.063673e+00
  3.846045e+00    3.095659e+00
  3.861921e+00    3.047299e+00
  3.877796e+00    3.024094e+00
  3.893672e+00    2.929560e+00
  3.909547e+00    2.990501e+00
  3.925423e+00    3.093590e+00
  3.941299e+00    3.076231e+00
  3.957174e+00    3.093816e+00
  3.973050e+00    3.046927e+00
  3.988925e+00    2.947120e+00
  4.004801e+00    2.981255e+00
  4.020676e+00    3.046084e+00
  4.036552e+00    3.041071e+00
  4.052428e+00    3.039511e+00
  4.068303e+00    3.060841e+00
  4.084179e+00    3.034132e+00
  4.100054e+00    3.125335e+00
  4.115930e+00    3.098585e+00
  4.131806e+00    3.074372e+00
  4.147681e+00    3.065064e+00
  4.163557e+00    3.040612e+00
  4.179432e+00    3.061062e+00
  4.195308e+00    3.044154e+00
  4.211183e+00    3.085515e+00
  4.227059e+00    2.976376e+00
  4.242935e+00    3.019227e+00
  4.258810e+00    3.160001e+00
  4.274686e+00    3.109771e+00
  4.290561e+00    3.136775e+00
  4.306437e+00    3.107056e+00
  4.322312e+00    3.110038e+00
  4.338188e+00    3.104877e+00
  4.354064e+00    3.113199e+00
  4.369939e+00    3.117800e+00
  4.385815e+00    3.034266e+00
  4.401690e+00    3.076367e+00
  4.417566e+00    3.118112e+00
  4.433441e+00    3.087752e+00
  4.449317e+00    3.089261e+00
  4.465193e+00    3.134303e+00
  4.481068e+00    3.056665e+00
  4.496944e+00    3.070176e+00
  4.512819e+00    3.105995e+00
  4.528695e+00    3.029010e+00
  4.544570e+00    3.042361e+00
  4.560446e+00    3.062019e+00
  4.576322e+00    3.036323e+00
  4.592197e+00    3.130500e+00
  4.608073e+00    3.146461e+00
  4.623948e+00    3.082414e+00
  4.639824e+00    3.061760e+00
  4.655699e+00    3.113852e+00
  4.671575e+00    3.090546e+00
  4.687451e+00    3.086412e+00
  4.703326e+00    3.032884e+00
  4.719202e+00    3.123867e+00
  4.735077e+00    3.417036e+00
  4.750953e+00    3.217527e+00
  4.766828e+00    3.077530e+00
  4.782704e+00    3.115756e+00
  4.798580e+00    3.086509e+00
  4.814455e+00    3.083362e+00
  4.830331e+00    3.073880e+00
  4.846206e+00    3.099030e+00
  4.862082e+00    3.048199e+00
  4.877957e+00    3.093387e+00
  4.893833e+00    3.128516e+00
  4.909709e+00    3.182449e+00
  4.925584e+00    3.152620e+00
  4.941460e+00    3.064801e+00
  4.957335e+00    3.096505e+00
  4.973211e+00    3.183541e+00
  4.989086e+00    3.117946e+00
  5.004962e+00    3.119883e+00
  5.020838e+00    3.152000e+00
  5.036713e+00    3.142462e+00
  5.052589e+00    3.174012e+00
  5.068464e+00    3.129481e+00
  5.084340e+00    3.074942e+00
  5.100216e+00    3.127592e+00
  5.116091e+00    3.160303e+00
  5.131967e+00    3.223505e+00
  5.147842e+00    3.267593e+00
  5.163718e+00    3.167189e+00
  5.179593e+00    3.109268e+00
  5.195469e+00    3.127571e+00
  5.211345e+00    3.230561e+00
  5.227220e+00    3.245335e+00
  5.243096e+00    3.151910e+00
  5.258971e+00    3.172092e+00
  5.274847e+00    3.160226e+00
  5.290722e+00    3.182462e+00
  5.306598e+00    3.180008e+00
  5.322474e+00    3.099119e+00
  5.338349e+00    3.136901e+00
  5.354225e+00    3.214562e+00
  5.370100e+00    3.148274e+00
  5.385976e+00    3.199212e+00
  5.401851e+00    3.159945e+00
  5.417727e+00    3.141669e+00
  5.433603e+00    3.143546e+00
  5.449478e+00    3.029275e+00
  5.465354e+00    3.064905e+00
  5.481229e+00    3.093735e+00
  5.497105e+00    3.134124e+00
  5.512980e+00    3.078181e+00
  5.528856e+00    3.107155e+00
  5.544732e+00    3.178539e+00
  5.560607e+00    3.169500e+00
  5.576483e+00    3.074670e+00
  5.592358e+00    3.109149e+00
  5.608234e+00    3.143114e+00
  5.624109e+00    3.180861e+00
  5.639985e+00    3.136672e+00
  5.655861e+00    3.169179e+00
  5.671736e+00    3.133068e+00
  5.687612e+00    3.070614e+00
  5.703487e+00    3.136277e+00
  5.719363e+00    3.116890e+00
  5.735238e+00    3.152993e+00
  5.751114e+00    3.068785e+00
  5.766990e+00    3.032879e+00
  5.782865e+00    3.017221e+00
  5.798741e+00    3.053946e+00
  5.814616e+00    3.098129e+00
  5.830492e+00    3.089312e+00
  5.846367e+00    3.092230e+00
  5.862243e+00    3.066534e+00
  5.878119e+00    3.099498e+00
  5.893994e+00    3.111777e+00
  5.909870e+00    3.042559e+00
  5.925745e+00    3.053403e+00
  5.941621e+00    3.080768e+00
  5.957497e+00    3.060429e+00
  5.973372e+00    3.082659e+00
  5.989248e+00    3.128234e+00
  6.005123e+00    3.071803e+00
  6.020999e+00    3.061575e+00
  6.036874e+00    2.978529e+00
  6.052750e+00    3.054651e+00
  6.068626e+00    3.096364e+00
  6.084501e+00    3.015737e+00
  6.100377e+00    3.025202e+00
  6.116252e+00    3.109948e+00
  6.132128e+00    3.125334e+00
  6.148003e+00    3.132623e+00
  6.163879e+00    3.109900e+00
  6.179755e+00    3.064247e+00
  6.195630e+00    3.045107e+00
  6.211506e+00    3.085975e+00
  6.227381e+00    3.068567e+00
  6.243257e+00    3.060444e+00
  6.259132e+00    3.028227e+00
  6.275008e+00    3.089390e+00
  6.290884e+00    3.046390e+00
  6.306759e+00    3.017030e+00
  6.322635e+00    3.033443e+00
  6.338510e+00    3.074268e+00
  6.354386e+00    3.056235e+00
  6.370261e+00    3.000409e+00
  6.386137e+00    3.063814e+00
  6.402013e+00    3.047608e+00
  6.417888e+00    3.051261e+00
  6.433764e+00    3.064433e+00
  6.449639e+00    3.115556e+00
  6.465515e+00    3.061289e+00
  6.481390e+00    3.103271e+00
  6.497266e+00    3.023890e+00
  6.513142e+00    3.058696e+00
  6.529017e+00    3.012200e+00
  6.544893e+00    2.976914e+00
  6.560768e+00    3.070163e+00
  6.576644e+00    3.037497e+00
  6.592519e+00    3.021987e+00
  6.608395e+00    3.082800e+00
  6.624271e+00    3.083834e+00
  6.640146e+00    3.114031e+00
  6.656022e+00    3.097628e+00
  6.671897e+00    3.096193e+00
  6.687773e+00    3.045414e+00
  6.703648e+00    3.061354e+00
  6.719524e+00    3.047506e+00
  6.735400e+00    3.047237e+00
  6.751275e+00    3.025773e+00
  6.767151e+00    3.021900e+00
  6.783026e+00    3.046177e+00
  6.798902e+00    3.067436e+00
  6.814777e+00    3.066436e+00
  6.830653e+00    3.084588e+00
  6.846529e+00    3.018419e+00
  6.862404e+00    3.042033e+00
  6.878280e+00    3.028191e+00
  6.894155e+00    3.089442e+00
  6.910031e+00    3.027205e+00
  6.925907e+00    3.031694e+00
  6.941782e+00    3.069940e+00
  6.957658e+00    3.053690e+00
  6.973533e+00    3.078649e+00
  6.989409e+00    3.031063e+00
  7.005284e+00    2.971280e+00
  7.021160e+00    3.001891e+00
  7.037036e+00    2.967169e+00
  7.052911e+00    3.025727e+00
  7.068787e+00    3.080523e+00
  7.084662e+00    3.003316e+00
  7.100538e+00    2.954163e+00
  7.116413e+00    3.018864e+00
  7.132289e+00    3.021364e+00
  7.148165e+00    3.076409e+00
  7.164040e+00    3.054319e+00
  7.179916e+00    3.089223e+00
  7.195791e+00    3.052681e+00
  7.211667e+00    3.068445e+00
  7.227542e+00    3.004214e+00
  7.243418e+00    3.070820e+00
  7.259294e+00    3.060545e+00
  7.275169e+00    3.016769e+00
  7.291045e+00    3.016574e+00
  7.306920e+00    2.961963e+00
  7.322796e+00    2.983841e+00
  7.338671e+00    3.020390e+00
  7.354547e+00    3.034517e+00
  7.370423e+00    3.010055e+00
  7.386298e+00    3.037852e+00
  7.402174e+00    2.999087e+00
  7.418049e+00    2.951238e+00
  7.433925e+00    2.975786e+00
  7.449800e+00    2.997650e+00
  7.465676e+00    2.930109e+00
  7.481552e+00    2.997628e+00
  7.497427e+00    2.975255e+00
  7.513303e+00    2.989631e+00
  7.529178e+00    3.044305e+00
  7.545054e+00    3.007895e+00
  7.560929e+00    2.943200e+00
  7.576805e+00    2.966094e+00
  7.592681e+00    2.967664e+00
  7.608556e+00    3.003403e+00
  7.624432e+00    3.035285e+00
  7.640307e+00    2.985033e+00
  7.656183e+00    2.988755e+00
  7.672058e+00    2.986343e+00
  7.687934e+00    3.023315e+00
  7.703810e+00    2.938532e+00
  7.719685e+00    2.945277e+00
  7.735561e+00    2.930891e+00
  7.751436e+00    2.937363e+00
  7.767312e+00    2.961503e+00
  7.783187e+00    2.985568e+00
  7.799063e+00    2.958412e+00
  7.814939e+00    2.944995e+00
  7.830814e+00    2.950941e+00
  7.846690e+00    2.885694e+00
  7.862565e+00    2.915492e+00
  7.878441e+00    2.973353e+00
  7.894317e+00    2.881718e+00
  7.910192e+00    2.949888e+00
  7.926068e+00    2.981328e+00
  7.941943e+00    2.951778e+00
  7.957819e+00    2.989803e+00
  7.973694e+00    2.988729e+00
  7.989570e+00    2.951629e+00
  8.005446e+00    2.949541e+00
  8.021321e+00    2.947525e+00
  8.037197e+00    2.964602e+00
  8.053072e+00    2.925751e+00
  8.068948e+00    3.006780e+00
  8.084823e+00    3.045372e+00
  8.100699e+00    3.010485e+00
  8.116575e+00    2.964278e+00
  8.132450e+00    2.960041e+00
  8.148326e+00    2.947139e+00
  8.164201e+00    3.040522e+00
  8.180077e+00    3.004539e+00
  8.195952e+00    2.967784e+00
  8.211828e+00    2.940813e+00
  8.227704e+00    2.961412e+00
  8.243579e+00    2.949456e+00
  8.259455e+00    2.962508e+00
  8.275330e+00    2.938063e+00
  8.291206e+00    2.922065e+00
  8.307081e+00    2.933628e+00
  8.322957e+00    2.941212e+00
  8.338833e+00    2.955337e+00
  8.354708e+00    2.928540e+00
  8.370584e+00    2.944460e+00
  8.386459e+00    2.911469e+00
  8.402335e+00    2.955685e+00
  8.418210e+00    2.912162e+00
  8.434086e+00    2.956028e+00
  8.449962e+00    2.918109e+00
  8.465837e+00    2.861137e+00
  8.481713e+00    2.849736e+00
  8.497588e+00    2.901245e+00
  8.513464e+00    2.909207e+00
  8.529339e+00    2.935422e+00
  8.545215e+00    2.915576e+00
  8.561091e+00    2.906025e+00
  8.576966e+00    2.903223e+00
  8.592842e+00    2.872641e+00
  8.608717e+00    2.884166e+00
  8.624593e+00    2.868502e+00
  8.640468e+00    2.914788e+00
  8.656344e+00    2.928837e+00
  8.672220e+00    2.831469e+00
  8.688095e+00    2.879201e+00
  8.703971e+00    2.824787e+00
  8.719846e+00    2.795971e+00
  8.735722e+00    2.833977e+00
  8.751598e+00    2.905936e+00
  8.767473e+00    2.945385e+00
  8.783349e+00    2.902708e+00
  8.799224e+00    2.862091e+00
  8.815100e+00    2.882119e+00
  8.830975e+00    2.843605e+00
  8.846851e+00    2.818102e+00
  8.862727e+00    2.857336e+00
  8.878602e+00    2.840166e+00
  8.894478e+00    2.829154e+00
  8.910353e+00    2.853038e+00
  8.926229e+00    2.839787e+00
  8.942104e+00    2.900401e+00
  8.957980e+00    2.892850e+00
  8.973856e+00    2.869031e+00
  8.989731e+00    2.927528e+00
  9.005607e+00    2.893639e+00
  9.021482e+00    2.826216e+00
  9.037358e+00    2.793963e+00
  9.053233e+00    2.801941e+00
  9.069109e+00    2.864506e+00
  9.084985e+00    2.814823e+00
  9.100860e+00    2.793579e+00
  9.116736e+00    2.797533e+00
  9.132611e+00    2.790435e+00
  9.148487e+00    2.767114e+00
  9.164362e+00    2.774526e+00
  9.180238e+00    2.770155e+00
  9.196114e+00    2.714988e+00
  9.211989e+00    2.775503e+00
  9.227865e+00    2.827336e+00
  9.243740e+00    2.833667e+00
  9.259616e+00    2.846554e+00
  9.275491e+00    2.770418e+00
  9.291367e+00    2.799863e+00
  9.307243e+00    2.810871e+00
  9.323118e+00    2.834927e+00
  9.338994e+00    2.806149e+00
  9.354869e+00    2.822149e+00
  9.370745e+00    2.814321e+00
  9.386620e+00    2.804278e+00
  9.402496e+00    2.827336e+00
  9.418372e+00    2.828417e+00
  9.434247e+00    2.802994e+00
  9.450123e+00    2.807313e+00
  9.465998e+00    2.736027e+00
  9.481874e+00    2.740097e+00
  9.497749e+00    2.795913e+00
  9.513625e+00    2.805038e+00
  9.529501e+00    2.811916e+00
  9.545376e+00    2.753101e+00
  9.561252e+00    2.826751e+00
  9.577127e+00    2.779751e+00
  9.593003e+00    2.805692e+00
  9.608878e+00    2.804124e+00
  9.624754e+00    2.771240e+00
  9.640630e+00    2.796632e+00
  9.656505e+00    2.802620e+00
  9.672381e+00    2.678890e+00
  9.688256e+00    2.733555e+00
  9.704132e+00    2.758599e+00
  9.720008e+00    2.733618e+00
  9.735883e+00    2.746182e+00
  9.751759e+00    2.716770e+00
  9.767634e+00    2.702947e+00
  9.783510e+00    2.709265e+00
  9.799385e+00    2.702912e+00
  9.815261e+00    2.739687e+00
  9.831137e+00    2.750061e+00
  9.847012e+00    2.719807e+00
  9.862888e+00    2.719899e+00
  9.878763e+00    2.742633e+00
  9.894639e+00    2.716967e+00
  9.910514e+00    2.693871e+00
  9.926390e+00    2.742727e+00
  9.942266e+00    2.752947e+00
  9.958141e+00    2.730045e+00
  9.974017e+00    2.726174e+00
  9.989892e+00    2.691601e+00
  1.000577e+01    2.673209e+00
  1.002164e+01    2.681990e+00
  1.003752e+01    2.689297e+00
  1.005339e+01    2.705825e+00
  1.006927e+01    2.682843e+00
  1.008515e+01    2.656845e+00
  1.010102e+01    2.659738e+00
  1.011690e+01    2.682772e+00
  1.013277e+01    2.670585e+00
  1.014865e+01    2.695436e+00
  1.016452e+01    2.660301e+00
  1.018040e+01    2.620430e+00
  1.019627e+01    2.616991e+00
  1.021215e+01    2.625357e+00
  1.022803e+01    2.662222e+00
  1.024390e+01    2.610841e+00
  1.025978e+01    2.598071e+00
  1.027565e+01    2.644665e+00
  1.029153e+01    2.679037e+00
  1.030740e+01    2.671672e+00
  1.032328e+01    2.640219e+00
  1.033915e+01    2.598567e+00
  1.035503e+01    2.603166e+00
  1.037091e+01    2.639427e+00
  1.038678e+01    2.689062e+00
  1.040266e+01    2.661861e+00
  1.041853e+01    2.643544e+00
  1.043441e+01    2.673328e+00
  1.045028e+01    2.634006e+00
  1.046616e+01    2.580790e+00
  1.048204e+01    2.638279e+00
  1.049791e+01    2.622423e+00
  1.051379e+01    2.557809e+00
  1.052966e+01    2.624913e+00
  1.054554e+01    2.644632e+00
  1.056141e+01    2.586141e+00
  1.057729e+01    2.589681e+00
  1.059316e+01    2.573215e+00
  1.060904e+01    2.607915e+00
  1.062492e+01    2.585490e+00
  1.064079e+01    2.603600e+00
  1.065667e+01    2.610785e+00
  1.067254e+01    2.586831e+00
  1.068842e+01    2.550587e+00
  1.070429e+01    2.515142e+00
  1.072017e+01    2.551461e+00
  1.073604e+01    2.622830e+00
  1.075192e+01    2.579571e+00
  1.076780e+01    2.544326e+00
  1.078367e+01    2.557222e+00
  1.079955e+01    2.526072e+00
  1.081542e+01    2.540411e+00
  1.083130e+01    2.544968e+00
  1.084717e+01    2.551409e+00
  1.086305e+01    2.560973e+00
  1.087892e+01    2.541316e+00
  1.089480e+01    2.514466e+00
  1.091068e+01    2.531275e+00
  1.092655e+01    2.508927e+00
  1.094243e+01    2.506005e+00
  1.095830e+01    2.507765e+00
  1.097418e+01    2.549491e+00
  1.099005e+01    2.548496e+00
  1.100593e+01    2.493173e+00
  1.102180e+01    2.488656e+00
  1.103768e+01    2.508090e+00
  1.105356e+01    2.530660e+00
  1.106943e+01    2.531020e+00
  1.108531e+01    2.544690e+00
  1.110118e+01    2.542200e+00
  1.111706e+01    2.536800e+00
  1.113293e+01    2.484513e+00
  1.114881e+01    2.503367e+00
  1.116468e+01    2.478886e+00
  1.118056e+01    2.452671e+00
  1.119644e+01    2.446960e+00
  1.121231e+01    2.453226e+00
  1.122819e+01    2.455042e+00
  1.124406e+01    2.500562e+00
  1.125994e+01    2.485367e+00
  1.127581e+01    2.493828e+00
  1.129169e+01    2.454427e+00
  1.130756e+01    2.422533e+00
  1.132344e+01    2.438539e+00
  1.133932e+01    2.427960e+00
  1.135519e+01    2.429286e+00
  1.137107e+01    2.459911e+00
  1.138694e+01    2.438105e+00
  1.140282e+01    2.446894e+00
  1.141869e+01    2.493143e+00
  1.143457e+01    2.440866e+00
  1.145045e+01    2.385103e+00
  1.146632e+01    2.407596e+00
  1.148220e+01    2.433561e+00
  1.149807e+01    2.477808e+00
  1.151395e+01    2.374360e+00
  1.152982e+01    2.382740e+00
  1.154570e+01    2.388777e+00
  1.156157e+01    2.423985e+00
  1.157745e+01    2.430363e+00
  1.159333e+01    2.399183e+00
  1.160920e+01    2.405581e+00
  1.162508e+01    2.390746e+00
  1.164095e+01    2.395261e+00
  1.165683e+01    2.413420e+00
  1.167270e+01    2.396210e+00
  1.168858e+01    2.357023e+00
  1.170445e+01    2.402260e+00
  1.172033e+01    2.352221e+00
  1.173621e+01    2.324920e+00
  1.175208e+01    2.382287e+00
  1.176796e+01    2.373119e+00
  1.178383e+01    2.362698e+00
  1.179971e+01    2.338987e+00
  1.181558e+01    2.348804e+00
  1.183146e+01    2.371340e+00
  1.184733e+01    2.372163e+00
  1.186321e+01    2.381131e+00
  1.187909e+01    2.352411e+00
  1.189496e+01    2.337776e+00
  1.191084e+01    2.373269e+00
  1.192671e+01    2.417819e+00
  1.194259e+01    2.415035e+00
  1.195846e+01    2.371365e+00
  1.197434e+01    2.361016e+00
  1.199021e+01    2.319278e+00
  1.200609e+01    2.328990e+00
  1.202197e+01    2.283811e+00
  1.203784e+01    2.351330e+00
  1.205372e+01    2.337202e+00
  1.206959e+01    2.330976e+00
  1.208547e+01    2.315871e+00
  1.210134e+01    2.298459e+00
  1.211722e+01    2.363634e+00
  1.213309e+01    2.354203e+00
  1.214897e+01    2.335293e+00
  1.216485e+01    2.391245e+00
  1.218072e+01    2.320471e+00
  1.219660e+01    2.319599e+00
  1.221247e+01    2.305265e+00
  1.222835e+01    2.287389e+00
  1.224422e+01    2.342872e+00
  1.226010e+01    2.307766e+00
  1.227597e+01    2.317958e+00
  1.229185e+01    2.303396e+00
  1.230773e+01    2.305552e+00
  1.232360e+01    2.331842e+00
  1.233948e+01    2.342474e+00
  1.235535e+01    2.319118e+00
  1.237123e+01    2.298527e+00
  1.238710e+01    2.310704e+00
  1.240298e+01    2.326672e+00
  1.241886e+01    2.373844e+00
  1.243473e+01    2.412056e+00
  1.245061e+01    2.404146e+00
  1.246648e+01    2.378585e+00
  1.248236e+01    2.370592e+00
  1.249823e+01    2.347728e+00
  1.251411e+01    2.374352e+00
  1.252998e+01    2.378796e+00
  1.254586e+01    2.385735e+00
  1.256174e+01    2.383432e+00
  1.257761e+01    2.399773e+00
  1.259349e+01    2.401575e+00
  1.260936e+01    2.425986e+00
  1.262524e+01    2.436159e+00
  1.264111e+01    2.422009e+00
  1.265699e+01    2.448697e+00
  1.267286e+01    2.464007e+00
  1.268874e+01    2.478763e+00
  1.270462e+01    2.526985e+00
  1.272049e+01    2.524401e+00
  1.273637e+01    2.555930e+00
  1.275224e+01    2.613746e+00
  1.276812e+01    2.605508e+00
  1.278399e+01    2.633490e+00
  1.279987e+01    2.689785e+00
  1.281574e+01    2.740995e+00
  1.283162e+01    2.746186e+00
  1.284750e+01    2.813560e+00
  1.286337e+01    2.892747e+00
  1.287925e+01    3.004956e+00
  1.289512e+01    3.157088e+00
  1.291100e+01    3.330948e+00
  1.292687e+01    3.518559e+00
  1.294275e+01    3.767618e+00
  1.295862e+01    4.050900e+00
  1.297450e+01    4.392452e+00
  1.299038e+01    4.872273e+00
  1.300625e+01    5.523294e+00
  1.302213e+01    6.264561e+00
  1.303800e+01    7.250536e+00
  1.305388e+01    8.435589e+00
  1.306975e+01    9.643408e+00
  1.308563e+01    1.095819e+01
  1.310150e+01    1.219956e+01
  1.311738e+01    1.348599e+01
  1.313326e+01    1.462848e+01
  1.314913e+01    1.561585e+01
  1.316501e+01    1.638238e+01
  1.318088e+01    1.676209e+01
  1.319676e+01    1.637761e+01
  1.321263e+01    1.504020e+01
  1.322851e+01    1.311736e+01
  1.324438e+01    1.112374e+01
  1.326026e+01    9.470335e+00
  1.327614e+01    8.111126e+00
  1.329201e+01    6.878505e+00
  1.330789e+01    5.981647e+00
  1.332376e+01    5.247246e+00
  1.333964e+01    4.721698e+00
  1.335551e+01    4.259319e+00
  1.337139e+01    3.904907e+00
  1.338727e+01    3.629639e+00
  1.340314e+01    3.415983e+00
  1.341902e+01    3.241685e+00
  1.343489e+01    3.054970e+00
  1.345077e+01    2.910098e+00
  1.346664e+01    2.839348e+00
  1.348252e+01    2.788383e+00
  1.349839e+01    2.690791e+00
  1.351427e+01    2.596454e+00
  1.353015e+01    2.550141e+00
  1.354602e+01    2.481320e+00
  1.356190e+01    2.482195e+00
  1.357777e+01    2.448092e+00
  1.359365e+01    2.437672e+00
  1.360952e+01    2.350425e+00
  1.362540e+01    2.309556e+00
  1.364127e+01    2.325627e+00
  1.365715e+01    2.340291e+00
  1.367303e+01    2.323246e+00
  1.368890e+01    2.291588e+00
  1.370478e+01    2.236201e+00
  1.372065e+01    2.219991e+00
  1.373653e+01    2.226515e+00
  1.375240e+01    2.251592e+00
  1.376828e+01    2.220448e+00
  1.378415e+01    2.218955e+00
  1.380003e+01    2.202026e+00
  1.381591e+01    2.184594e+00
  1.383178e+01    2.139809e+00
  1.384766e+01    2.095580e+00
  1.386353e+01    2.103182e+00
  1.387941e+01    2.095698e+00
  1.389528e+01    2.126271e+00
  1.391116e+01    2.113464e+00
  1.392703e+01    2.099626e+00
  1.394291e+01    2.099337e+00
  1.395879e+01    2.065841e+00
  1.397466e+01    2.101133e+00
  1.399054e+01    2.087978e+00
  1.400641e+01    2.059203e+00
  1.402229e+01    2.060975e+00
  1.403816e+01    2.067514e+00
  1.405404e+01    2.019743e+00
  1.406991e+01    2.072181e+00
  1.408579e+01    2.022232e+00
  1.410167e+01    2.035273e+00
  1.411754e+01    2.083507e+00
  1.413342e+01    2.077945e+00
  1.414929e+01    2.053333e+00
  1.416517e+01    2.072017e+00
  1.418104e+01    2.063112e+00
  1.419692e+01    2.000364e+00
  1.421279e+01    2.012272e+00
  1.422867e+01    2.006632e+00
  1.424455e+01    1.990496e+00
  1.426042e+01    2.006448e+00
  1.427630e+01    2.010406e+00
  1.429217e+01    1.973553e+00
  1.430805e+01    1.982328e+00
  1.432392e+01    1.964928e+00
  1.433980e+01    2.012811e+00
  1.435568e+01    1.994367e+00
  1.437155e+01    1.954316e+00
  1.438743e+01    1.956523e+00
  1.440330e+01    1.958114e+00
  1.441918e+01    1.972077e+00
  1.443505e+01    1.969469e+00
  1.445093e+01    1.935219e+00
  1.446680e+01    1.925950e+00
  1.448268e+01    1.952829e+00
  1.449856e+01    1.939680e+00
  1.451443e+01    1.952312e+00
  1.453031e+01    1.972054e+00
  1.454618e+01    1.944397e+00
  1.456206e+01    1.940228e+00
  1.457793e+01    1.937354e+00
  1.459381e+01    1.921447e+00
  1.460968e+01    1.924344e+00
  1.462556e+01    1.950354e+00
  1.464144e+01    1.937697e+00
  1.465731e+01    1.921153e+00
  1.467319e+01    1.929736e+00
  1.468906e+01    1.960451e+00
  1.470494e+01    1.945567e+00
  1.472081e+01    1.941216e+00
  1.473669e+01    1.913475e+00
  1.475256e+01    1.926097e+00
  1.476844e+01    1.935594e+00
  1.478432e+01    1.915548e+00
  1.480019e+01    1.895207e+00
  1.481607e+01    1.919341e+00
  1.483194e+01    1.947202e+00
  1.484782e+01    1.931505e+00
  1.486369e+01    1.940837e+00
  1.487957e+01    1.954888e+00
  1.489544e+01    1.948363e+00
  1.491132e+01    1.983967e+00
  1.492720e+01    2.064604e+00
  1.494307e+01    2.040327e+00
  1.495895e+01    2.074987e+00
  1.497482e+01    2.103260e+00
  1.499070e+01    2.125412e+00
  1.500657e+01    2.210825e+00
  1.502245e+01    2.255740e+00
  1.503832e+01    2.329175e+00
  1.505420e+01    2.410874e+00
  1.507008e+01    2.514140e+00
  1.508595e+01    2.697942e+00
  1.510183e+01    2.920325e+00
  1.511770e+01    3.135243e+00
  1.513358e+01    3.446845e+00
  1.514945e+01    3.863632e+00
  1.516533e+01    4.251881e+00
  1.518120e+01    4.555965e+00
  1.519708e+01    4.898973e+00
  1.521296e+01    5.173532e+00
  1.522883e+01    5.434399e+00
  1.524471e+01    5.664651e+00
  1.526058e+01    5.762329e+00
  1.527646e+01    5.677937e+00
  1.529233e+01    5.379256e+00
  1.530821e+01    5.172642e+00
  1.532409e+01    4.759524e+00
  1.533996e+01    4.204168e+00
  1.535584e+01    3.685712e+00
  1.537171e+01    3.266019e+00
  1.538759e+01    2.953667e+00
  1.540346e+01    2.751066e+00
  1.541934e+01    2.596899e+00
  1.543521e+01    2.442161e+00
  1.545109e+01    2.293309e+00
  1.546697e+01    2.235956e+00
  1.548284e+01    2.138091e+00
  1.549872e+01    2.063054e+00
  1.551459e+01    2.019789e+00
  1.553047e+01    1.967277e+00
  1.554634e+01    1.920429e+00
  1.556222e+01    1.920306e+00
  1.557809e+01    1.918446e+00
  1.559397e+01    1.846561e+00
  1.560985e+01    1.842500e+00
  1.562572e+01    1.831124e+00
  1.564160e+01    1.777827e+00
  1.565747e+01    1.797554e+00
  1.567335e+01    1.778946e+00
  1.568922e+01    1.742841e+00
  1.570510e+01    1.755458e+00
  1.572097e+01    1.756352e+00
  1.573685e+01    1.730352e+00
  1.575273e+01    1.699992e+00
  1.576860e+01    1.695224e+00
  1.578448e+01    1.693397e+00
  1.580035e+01    1.714514e+00
  1.581623e+01    1.725273e+00
  1.583210e+01    1.718853e+00
  1.584798e+01    1.677917e+00
  1.586385e+01    1.651393e+00
  1.587973e+01    1.640924e+00
  1.589561e+01    1.632868e+00
  1.591148e+01    1.652471e+00
  1.592736e+01    1.665339e+00
  1.594323e+01    1.638718e+00
  1.595911e+01    1.619344e+00
  1.597498e+01    1.659694e+00
  1.599086e+01    1.709202e+00
  1.600673e+01    1.643476e+00
  1.602261e+01    1.635252e+00
  1.603849e+01    1.605248e+00
  1.605436e+01    1.592605e+00
  1.607024e+01    1.594840e+00
  1.608611e+01    1.619819e+00
  1.610199e+01    1.602616e+00
  1.611786e+01    1.574679e+00
  1.613374e+01    1.594367e+00
  1.614961e+01    1.598060e+00
  1.616549e+01    1.591475e+00
  1.618137e+01    1.571206e+00
  1.619724e+01    1.588389e+00
  1.621312e+01    1.606442e+00
  1.622899e+01    1.595120e+00
  1.624487e+01    1.589186e+00
  1.626074e+01    1.573516e+00
  1.627662e+01    1.573243e+00
  1.629250e+01    1.576057e+00
  1.630837e+01    1.574090e+00
  1.632425e+01    1.546317e+00
  1.634012e+01    1.559338e+00
  1.635600e+01    1.538008e+00
  1.637187e+01    1.527108e+00
  1.638775e+01    1.569196e+00
  1.640362e+01    1.561755e+00
  1.641950e+01    1.542196e+00
  1.643538e+01    1.533061e+00
  1.645125e+01    1.528700e+00
  1.646713e+01    1.527150e+00
  1.648300e+01    1.528288e+00
  1.649888e+01    1.504784e+00
  1.651475e+01    1.492412e+00
  1.653063e+01    1.514818e+00
  1.654650e+01    1.537659e+00
  1.656238e+01    1.503295e+00
  1.657826e+01    1.484540e+00
  1.659413e+01    1.504118e+00
  1.661001e+01    1.512714e+00
  1.662588e+01    1.495393e+00
  1.664176e+01    1.516699e+00
  1.665763e+01    1.514985e+00
  1.667351e+01    1.496191e+00
  1.668938e+01    1.499718e+00
  1.670526e+01    1.485244e+00
  1.672114e+01    1.485587e+00
  1.673701e+01    1.466316e+00
  1.675289e+01    1.465529e+00
  1.676876e+01    1.474045e+00
  1.678464e+01    1.483384e+00
  1.680051e+01    1.463794e+00
  1.681639e+01    1.496995e+00
  1.683226e+01    1.490346e+00
  1.684814e+01    1.445839e+00
  1.686402e+01    1.445579e+00
  1.687989e+01    1.481595e+00
  1.689577e+01    1.476096e+00
  1.691164e+01    1.461783e+00
  1.692752e+01    1.424322e+00
  1.694339e+01    1.451570e+00
  1.695927e+01    1.483916e+00
  1.697514e+01    1.491458e+00
  1.699102e+01    1.456019e+00
  1.700690e+01    1.432022e+00
  1.702277e+01    1.422012e+00
  1.703865e+01    1.441934e+00
  1.705452e+01    1.453580e+00
  1.707040e+01    1.463476e+00
  1.708627e+01    1.481809e+00
  1.710215e+01    1.448822e+00
  1.711802e+01    1.457336e+00
  1.713390e+01    1.452271e+00
  1.714978e+01    1.451396e+00
  1.716565e+01    1.417534e+00
  1.718153e+01    1.411023e+00
  1.719740e+01    1.427475e+00
  1.721328e+01    1.415694e+00
  1.722915e+01    1.423164e+00
  1.724503e+01    1.421881e+00
  1.726091e+01    1.440801e+00
  1.727678e+01    1.416675e+00
  1.729266e+01    1.393309e+00
  1.730853e+01    1.374562e+00
  1.732441e+01    1.401384e+00
  1.734028e+01    1.389963e+00
  1.735616e+01    1.395915e+00
  1.737203e+01    1.395597e+00
  1.738791e+01    1.411326e+00
  1.740379e+01    1.409279e+00
  1.741966e+01    1.379891e+00
  1.743554e+01    1.402030e+00
  1.745141e+01    1.431592e+00
  1.746729e+01    1.401013e+00
  1.748316e+01    1.393242e+00
  1.749904e+01    1.395266e+00
  1.751491e+01    1.376407e+00
  1.753079e+01    1.389204e+00
  1.754667e+01    1.355083e+00
  1.756254e+01    1.374360e+00
  1.757842e+01    1.359327e+00
  1.759429e+01    1.387963e+00
  1.761017e+01    1.391094e+00
  1.762604e+01    1.356769e+00
  1.764192e+01    1.346877e+00
  1.765779e+01    1.337342e+00
  1.767367e+01    1.323034e+00
  1.768955e+01    1.346218e+00
  1.770542e+01    1.349787e+00
  1.772130e+01    1.341998e+00
  1.773717e+01    1.349789e+00
  1.775305e+01    1.370377e+00
  1.776892e+01    1.348564e+00
  1.778480e+01    1.334084e+00
  1.780067e+01    1.367736e+00
  1.781655e+01    1.339472e+00
  1.783243e+01    1.322603e+00
  1.784830e+01    1.348776e+00
  1.786418e+01    1.350167e+00
  1.788005e+01    1.360182e+00
  1.789593e+01    1.329897e+00
  1.791180e+01    1.309342e+00
  1.792768e+01    1.314546e+00
  1.794355e+01    1.327853e+00
  1.795943e+01    1.288324e+00
  1.797531e+01    1.323519e+00
  1.799118e+01    1.342564e+00
  1.800706e+01    1.338399e+00
  1.802293e+01    1.318763e+00
  1.803881e+01    1.303009e+00
  1.805468e+01    1.307871e+00
  1.807056e+01    1.329245e+00
  1.808643e+01    1.320440e+00
  1.810231e+01    1.304660e+00
  1.811819e+01    1.280921e+00
  1.813406e+01    1.309888e+00
  1.814994e+01    1.319338e+00
  1.816581e+01    1.279050e+00
  1.818169e+01    1.286130e+00
  1.819756e+01    1.285672e+00
  1.821344e+01    1.299080e+00
  1.822932e+01    1.290133e+00
  1.824519e+01    1.283299e+00
  1.826107e+01    1.268215e+00
  1.827694e+01    1.264188e+00
  1.829282e+01    1.260486e+00
  1.830869e+01    1.261557e+00
  1.832457e+01    1.283674e+00
  1.834044e+01    1.287495e+00
  1.835632e+01    1.283852e+00
  1.837220e+01    1.270680e+00
  1.838807e+01    1.259920e+00
  1.840395e+01    1.284098e+00
  1.841982e+01    1.265890e+00
  1.843570e+01    1.252885e+00
  1.845157e+01    1.243181e+00
  1.846745e+01    1.264463e+00
  1.848332e+01    1.258774e+00
  1.849920e+01    1.271449e+00
  1.851508e+01    1.273581e+00
  1.853095e+01    1.272437e+00
  1.854683e+01    1.263119e+00
  1.856270e+01    1.247132e+00
  1.857858e+01    1.250096e+00
  1.859445e+01    1.237562e+00
  1.861033e+01    1.261501e+00
  1.862620e+01    1.281929e+00
  1.864208e+01    1.241443e+00
  1.865796e+01    1.214353e+00
  1.867383e+01    1.220903e+00
  1.868971e+01    1.247166e+00
  1.870558e+01    1.265780e+00
  1.872146e+01    1.236880e+00
  1.873733e+01    1.221669e+00
  1.875321e+01    1.238968e+00
  1.876908e+01    1.243925e+00
  1.878496e+01    1.219037e+00
  1.880084e+01    1.237343e+00
  1.881671e+01    1.199807e+00
  1.883259e+01    1.195396e+00
  1.884846e+01    1.230492e+00
  1.886434e+01    1.253485e+00
  1.888021e+01    1.214649e+00
  1.889609e+01    1.216459e+00
  1.891196e+01    1.235909e+00
  1.892784e+01    1.217873e+00
  1.894372e+01    1.231270e+00
  1.895959e+01    1.206827e+00
  1.897547e+01    1.199277e+00
  1.899134e+01    1.207485e+00
  1.900722e+01    1.206871e+00
  1.902309e+01    1.195121e+00
  1.903897e+01    1.220412e+00
  1.905484e+01    1.218404e+00
  1.907072e+01    1.216611e+00
  1.908660e+01    1.201162e+00
  1.910247e+01    1.200076e+00
  1.911835e+01    1.202107e+00
  1.913422e+01    1.191396e+00
  1.915010e+01    1.206745e+00
  1.916597e+01    1.226294e+00
  1.918185e+01    1.198712e+00
  1.919773e+01    1.185791e+00
  1.921360e+01    1.195641e+00
  1.922948e+01    1.187219e+00
  1.924535e+01    1.198920e+00
  1.926123e+01    1.184278e+00
  1.927710e+01    1.197239e+00
  1.929298e+01    1.182813e+00
  1.930885e+01    1.177879e+00
  1.932473e+01    1.189426e+00
  1.934061e+01    1.204758e+00
  1.935648e+01    1.190119e+00
  1.937236e+01    1.178879e+00
  1.938823e+01    1.181597e+00
  1.940411e+01    1.182284e+00
  1.941998e+01    1.184650e+00
  1.943586e+01    1.157579e+00
  1.945173e+01    1.194440e+00
  1.946761e+01    1.184126e+00
  1.948349e+01    1.205375e+00
  1.949936e+01    1.179563e+00
  1.951524e+01    1.145270e+00
  1.953111e+01    1.150744e+00
  1.954699e+01    1.166577e+00
  1.956286e+01    1.166417e+00
  1.957874e+01    1.169020e+00
  1.959461e+01    1.146124e+00
  1.961049e+01    1.137122e+00
  1.962637e+01    1.158901e+00
  1.964224e+01    1.156715e+00
  1.965812e+01    1.139080e+00
  1.967399e+01    1.158556e+00
  1.968987e+01    1.167444e+00
  1.970574e+01    1.132369e+00
  1.972162e+01    1.142160e+00
  1.973749e+01    1.149166e+00
  1.975337e+01    1.145188e+00
  1.976925e+01    1.134212e+00
  1.978512e+01    1.141385e+00
  1.980100e+01    1.159007e+00
  1.981687e+01    1.154083e+00
  1.983275e+01    1.142428e+00
  1.984862e+01    1.139257e+00
  1.986450e+01    1.131094e+00
  1.988037e+01    1.127357e+00
  1.989625e+01    1.133071e+00
  1.991213e+01    1.121480e+00
  1.992800e+01    1.116758e+00
  1.994388e+01    1.111380e+00
  1.995975e+01    1.121069e+00
  1.997563e+01    1.122299e+00
  1.999150e+01    1.129001e+00
  2.000738e+01    1.125004e+00
  2.002325e+01    1.120382e+00
  2.003913e+01    1.129740e+00
  2.005501e+01    1.142627e+00
  2.007088e+01    1.136379e+00
  2.008676e+01    1.107876e+00
  2.010263e+01    1.131667e+00
  2.011851e+01    1.125353e+00
  2.013438e+01    1.152661e+00
  2.015026e+01    1.127797e+00
  2.016614e+01    1.102329e+00
  2.018201e+01    1.124546e+00
  2.019789e+01    1.130141e+00
  2.021376e+01    1.104425e+00
  2.022964e+01    1.117678e+00
  2.024551e+01    1.099992e+00
  2.026139e+01    1.096717e+00
  2.027726e+01    1.107461e+00
  2.029314e+01    1.110910e+00
  2.030902e+01    1.116321e+00
  2.032489e+01    1.110255e+00
  2.034077e+01    1.113278e+00
  2.035664e+01    1.118464e+00
  2.037252e+01    1.106140e+00
  2.038839e+01    1.086646e+00
  2.040427e+01    1.098665e+00
  2.042014e+01    1.112950e+00
  2.043602e+01    1.136357e+00
  2.045190e+01    1.123607e+00
  2.046777e+01    1.096451e+00
  2.048365e+01    1.077750e+00
  2.049952e+01    1.084182e+00
  2.051540e+01    1.100914e+00
  2.053127e+01    1.105501e+00
  2.054715e+01    1.105056e+00
  2.056302e+01    1.104253e+00
  2.057890e+01    1.092443e+00
  2.059478e+01    1.084566e+00
  2.061065e+01    1.100869e+00
  2.062653e+01    1.101619e+00
  2.064240e+01    1.087663e+00
  2.065828e+01    1.095532e+00
  2.067415e+01    1.101713e+00
  2.069003e+01    1.082346e+00
  2.070590e+01    1.085116e+00
  2.072178e+01    1.095315e+00
  2.073766e+01    1.085485e+00
  2.075353e+01    1.063443e+00
  2.076941e+01    1.079448e+00
  2.078528e+01    1.088942e+00
  2.080116e+01    1.095530e+00
  2.081703e+01    1.074256e+00
  2.083291e+01    1.076456e+00
  2.084878e+01    1.090913e+00
  2.086466e+01    1.103666e+00
  2.088054e+01    1.089645e+00
  2.089641e+01    1.064793e+00
  2.091229e+01    1.055358e+00
  2.092816e+01    1.074427e+00
  2.094404e+01    1.090185e+00
  2.095991e+01    1.077519e+00
  2.097579e+01    1.097715e+00
  2.099166e+01    1.095370e+00
  2.100754e+01    1.098467e+00
  2.102342e+01    1.093444e+00
  2.103929e+01    1.095230e+00
  2.105517e+01    1.084908e+00
  2.107104e+01    1.085388e+00
  2.108692e+01    1.089767e+00
  2.110279e+01    1.072107e+00
  2.111867e+01    1.063442e+00
  2.113455e+01    1.100595e+00
  2.115042e+01    1.104479e+00
  2.116630e+01    1.097653e+00
  2.118217e+01    1.086277e+00
  2.119805e+01    1.115375e+00
  2.121392e+01    1.111624e+00
  2.122980e+01    1.095853e+00
  2.124567e+01    1.119002e+00
  2.126155e+01    1.096604e+00
  2.127743e+01    1.104596e+00
  2.129330e+01    1.117092e+00
  2.130918e+01    1.130033e+00
  2.132505e+01    1.154307e+00
  2.134093e+01    1.165103e+00
  2.135680e+01    1.163848e+00
  2.137268e+01    1.155635e+00
  2.138855e+01    1.170685e+00
  2.140443e+01    1.189937e+00
  2.142031e+01    1.183793e+00
  2.143618e+01    1.197734e+00
  2.145206e+01    1.221616e+00
  2.146793e+01    1.228654e+00
  2.148381e+01    1.232501e+00
  2.149968e+01    1.255241e+00
  2.151556e+01    1.294299e+00
  2.153143e+01    1.310306e+00
  2.154731e+01    1.374047e+00
  2.156319e+01    1.435101e+00
  2.157906e+01    1.483392e+00
  2.159494e+01    1.533114e+00
  2.161081e+01    1.615154e+00
  2.162669e+01    1.733279e+00
  2.164256e+01    1.824729e+00
  2.165844e+01    1.977481e+00
  2.167431e+01    2.163324e+00
  2.169019e+01    2.403636e+00
  2.170607e+01    2.650997e+00
  2.172194e+01    2.946495e+00
  2.173782e+01    3.288102e+00
  2.175369e+01    3.799435e+00
  2.176957e+01    4.383258e+00
  2.178544e+01    4.954784e+00
  2.180132e+01    5.638625e+00
  2.181719e+01    6.320240e+00
  2.183307e+01    6.945621e+00
  2.184895e+01    7.706674e+00
  2.186482e+01    8.389332e+00
  2.188070e+01    8.904058e+00
  2.189657e+01    9.205065e+00
  2.191245e+01    9.118389e+00
  2.192832e+01    8.657012e+00
  2.194420e+01    7.897403e+00
  2.196007e+01    6.869627e+00
  2.197595e+01    5.930487e+00
  2.199183e+01    4.999323e+00
  2.200770e+01    4.230586e+00
  2.202358e+01    3.673614e+00
  2.203945e+01    3.181746e+00
  2.205533e+01    2.826121e+00
  2.207120e+01    2.502021e+00
  2.208708e+01    2.291919e+00
  2.210296e+01    2.086974e+00
  2.211883e+01    1.892489e+00
  2.213471e+01    1.747082e+00
  2.215058e+01    1.650730e+00
  2.216646e+01    1.582203e+00
  2.218233e+01    1.531601e+00
  2.219821e+01    1.427325e+00
  2.221408e+01    1.365615e+00
  2.222996e+01    1.345424e+00
  2.224584e+01    1.301051e+00
  2.226171e+01    1.259813e+00
  2.227759e+01    1.223328e+00
  2.229346e+01    1.205354e+00
  2.230934e+01    1.160639e+00
  2.232521e+01    1.139651e+00
  2.234109e+01    1.138881e+00
  2.235696e+01    1.125065e+00
  2.237284e+01    1.118145e+00
  2.238872e+01    1.096142e+00
  2.240459e+01    1.081146e+00
  2.242047e+01    1.081937e+00
  2.243634e+01    1.078633e+00
  2.245222e+01    1.039578e+00
  2.246809e+01    1.046450e+00
  2.248397e+01    1.024642e+00
  2.249984e+01    1.037385e+00
  2.251572e+01    1.024998e+00
  2.253160e+01    1.012310e+00
  2.254747e+01    1.000540e+00
  2.256335e+01    1.005923e+00
  2.257922e+01    9.822299e-01
  2.259510e+01    9.910013e-01
  2.261097e+01    9.802847e-01
  2.262685e+01    9.656482e-01
  2.264272e+01    9.470743e-01
  2.265860e+01    9.644824e-01
  2.267448e+01    9.679211e-01
  2.269035e+01    9.467723e-01
  2.270623e+01    9.528296e-01
  2.272210e+01    9.423507e-01
  2.273798e+01    9.401223e-01
  2.275385e+01    9.366862e-01
  2.276973e+01    9.432872e-01
  2.278560e+01    9.480655e-01
  2.280148e+01    9.381049e-01
  2.281736e+01    9.356558e-01
  2.283323e+01    9.268548e-01
  2.284911e+01    9.089504e-01
  2.286498e+01    9.127511e-01
  2.288086e+01    9.040465e-01
  2.289673e+01    9.198043e-01
  2.291261e+01    9.107702e-01
  2.292848e+01    9.181544e-01
  2.294436e+01    9.100248e-01
  2.296024e+01    9.017609e-01
  2.297611e+01    9.162975e-01
  2.299199e+01    9.189289e-01
  2.300786e+01    9.202728e-01
  2.302374e+01    9.160687e-01
  2.303961e+01    8.993928e-01
  2.305549e+01    8.939277e-01
  2.307137e+01    9.045833e-01
  2.308724e+01    8.966068e-01
  2.310312e+01    8.833609e-01
  2.311899e+01    8.895856e-01
  2.313487e+01    8.646308e-01
  2.315074e+01    8.768017e-01
  2.316662e+01    8.892519e-01
  2.318249e+01    8.981898e-01
  2.319837e+01    8.835456e-01
  2.321425e+01    8.683196e-01
  2.323012e+01    8.931713e-01
  2.324600e+01    8.530702e-01
  2.326187e+01    8.490297e-01
  2.327775e+01    8.402817e-01
  2.329362e+01    8.648230e-01
  2.330950e+01    8.590816e-01
  2.332537e+01    8.638728e-01
  2.334125e+01    8.808971e-01
  2.335713e+01    8.743785e-01
  2.337300e+01    8.678607e-01
  2.338888e+01    8.683898e-01
  2.340475e+01    8.775609e-01
  2.342063e+01    8.649926e-01
  2.343650e+01    8.606754e-01
  2.345238e+01    8.599914e-01
  2.346825e+01    8.597125e-01
  2.348413e+01    8.734248e-01
  2.350001e+01    8.782471e-01
  2.351588e+01    8.547471e-01
  2.353176e+01    8.550932e-01
  2.354763e+01    8.443968e-01
  2.356351e+01    8.398789e-01
  2.357938e+01    8.467601e-01
  2.359526e+01    8.463955e-01
  2.361113e+01    8.462009e-01
  2.362701e+01    8.447478e-01
  2.364289e+01    8.457317e-01
  2.365876e+01    8.397356e-01
  2.367464e+01    8.412768e-01
  2.369051e+01    8.493592e-01
  2.370639e+01    8.423625e-01
  2.372226e+01    8.320869e-01
  2.373814e+01    8.270609e-01
  2.375401e+01    8.230146e-01
  2.376989e+01    8.310823e-01
  2.378577e+01    8.271859e-01
  2.380164e+01    7.941186e-01
  2.381752e+01    8.017446e-01
  2.383339e+01    8.181987e-01
  2.384927e+01    8.176406e-01
  2.386514e+01    8.049101e-01
  2.388102e+01    7.986565e-01
  2.389689e+01    8.108276e-01
  2.391277e+01    8.205225e-01
  2.392865e+01    7.968107e-01
  2.394452e+01    7.799054e-01
  2.396040e+01    7.778500e-01
  2.397627e+01    7.798194e-01
  2.399215e+01    7.752702e-01
  2.400802e+01    7.905218e-01
  2.402390e+01    8.054088e-01
  2.403978e+01    8.108978e-01
  2.405565e+01    7.879598e-01
  2.407153e+01    7.791119e-01
  2.408740e+01    7.925498e-01
  2.410328e+01    7.977017e-01
  2.411915e+01    8.011194e-01
  2.413503e+01    8.041701e-01
  2.415090e+01    7.938716e-01
  2.416678e+01    7.846809e-01
  2.418266e+01    7.770999e-01
  2.419853e+01    7.853779e-01
  2.421441e+01    7.898927e-01
  2.423028e+01    7.719022e-01
  2.424616e+01    7.750079e-01
  2.426203e+01    7.795324e-01
  2.427791e+01    7.925805e-01
  2.429378e+01    7.752603e-01
  2.430966e+01    7.725708e-01
  2.432554e+01    8.045382e-01
  2.434141e+01    7.857751e-01
  2.435729e+01    7.731882e-01
  2.437316e+01    7.875808e-01
  2.438904e+01    7.614675e-01
  2.440491e+01    7.701618e-01
  2.442079e+01    7.919279e-01
  2.443666e+01    7.883412e-01
  2.445254e+01    7.909653e-01
  2.446842e+01    8.007192e-01
  2.448429e+01    7.820770e-01
  2.450017e+01    7.925517e-01
  2.451604e+01    7.860933e-01
  2.453192e+01    7.949121e-01
  2.454779e+01    7.846946e-01
  2.456367e+01    7.820737e-01
  2.457954e+01    7.778431e-01
  2.459542e+01    7.862957e-01
  2.461130e+01    7.894011e-01
  2.462717e+01    7.942051e-01
  2.464305e+01    7.727831e-01
  2.465892e+01    7.946757e-01
  2.467480e+01    7.750996e-01
  2.469067e+01    7.680610e-01
  2.470655e+01    7.721862e-01
  2.472242e+01    8.014562e-01
  2.473830e+01    8.018501e-01
  2.475418e+01    8.116423e-01
  2.477005e+01    8.146985e-01
  2.478593e+01    7.843767e-01
  2.480180e+01    7.878965e-01
  2.481768e+01    7.852252e-01
  2.483355e+01    8.068074e-01
  2.484943e+01    7.842277e-01
  2.486530e+01    7.912905e-01
  2.488118e+01    8.167259e-01
  2.489706e+01    8.034866e-01
  2.491293e+01    7.883506e-01
  2.492881e+01    7.942190e-01
  2.494468e+01    7.914003e-01
  2.496056e+01    7.898195e-01
  2.497643e+01    7.969322e-01
  2.499231e+01    8.116605e-01
  2.500819e+01    8.022235e-01
  2.502406e+01    7.978726e-01
  2.503994e+01    8.115923e-01
  2.505581e+01    7.986986e-01
  2.507169e+01    8.241188e-01
  2.508756e+01    8.022886e-01
  2.510344e+01    8.116198e-01
  2.511931e+01    8.348979e-01
  2.513519e+01    8.107126e-01
  2.515107e+01    8.139499e-01
  2.516694e+01    8.332566e-01
  2.518282e+01    8.281998e-01
  2.519869e+01    8.440918e-01
  2.521457e+01    8.274033e-01
  2.523044e+01    8.267698e-01
  2.524632e+01    8.439559e-01
  2.526219e+01    8.710567e-01
  2.527807e+01    8.788041e-01
  2.529395e+01    8.811669e-01
  2.530982e+01    8.722425e-01
  2.532570e+01    8.741348e-01
  2.534157e+01    8.622078e-01
  2.535745e+01    8.886226e-01
  2.537332e+01    9.138911e-01
  2.538920e+01    9.167413e-01
  2.540507e+01    9.141476e-01
  2.542095e+01    9.109994e-01
  2.543683e+01    9.181764e-01
  2.545270e+01    9.599835e-01
  2.546858e+01    9.600244e-01
  2.548445e+01    9.485786e-01
  2.550033e+01    9.698094e-01
  2.551620e+01    9.849804e-01
  2.553208e+01    9.968597e-01
  2.554795e+01    1.027883e+00
  2.556383e+01    1.055261e+00
  2.557971e+01    1.086919e+00
  2.559558e+01    1.106318e+00
  2.561146e+01    1.158927e+00
  2.562733e+01    1.190083e+00
  2.564321e+01    1.239146e+00
  2.565908e+01    1.302427e+00
  2.567496e+01    1.350149e+00
  2.569083e+01    1.388659e+00
  2.570671e+01    1.533454e+00
  2.572259e+01    1.632139e+00
  2.573846e+01    1.750925e+00
  2.575434e+01    1.903641e+00
  2.577021e+01    2.151761e+00
  2.578609e+01    2.414572e+00
  2.580196e+01    2.688757e+00
  2.581784e+01    3.055846e+00
  2.583371e+01    3.478101e+00
  2.584959e+01    3.961341e+00
  2.586547e+01    4.541139e+00
  2.588134e+01    5.109246e+00
  2.589722e+01    5.748221e+00
  2.591309e+01    6.354142e+00
  2.592897e+01    6.874091e+00
  2.594484e+01    7.305614e+00
  2.596072e+01    7.514633e+00
  2.597660e+01    7.413516e+00
  2.599247e+01    7.102001e+00
  2.600835e+01    6.516637e+00
  2.602422e+01    5.828657e+00
  2.604010e+01    5.015310e+00
  2.605597e+01    4.289366e+00
  2.607185e+01    3.664400e+00
  2.608772e+01    3.107912e+00
  2.610360e+01    2.759638e+00
  2.611948e+01    2.440818e+00
  2.613535e+01    2.171185e+00
  2.615123e+01    1.963040e+00
  2.616710e+01    1.816779e+00
  2.618298e+01    1.652121e+00
  2.619885e+01    1.535936e+00
  2.621473e+01    1.470231e+00
  2.623060e+01    1.391569e+00
  2.624648e+01    1.307751e+00
  2.626236e+01    1.252779e+00
  2.627823e+01    1.196411e+00
  2.629411e+01    1.150006e+00
  2.630998e+01    1.121848e+00
  2.632586e+01    1.116600e+00
  2.634173e+01    1.065268e+00
  2.635761e+01    1.006540e+00
  2.637348e+01    1.005055e+00
  2.638936e+01    9.715312e-01
  2.640524e+01    9.750275e-01
  2.642111e+01    9.672763e-01
  2.643699e+01    9.672220e-01
  2.645286e+01    9.463865e-01
  2.646874e+01    9.367155e-01
  2.648461e+01    9.410642e-01
  2.650049e+01    9.252355e-01
  2.651636e+01    9.273057e-01
  2.653224e+01    9.255837e-01
  2.654812e+01    9.009120e-01
  2.656399e+01    9.119337e-01
  2.657987e+01    9.097621e-01
  2.659574e+01    9.204261e-01
  2.661162e+01    8.980148e-01
  2.662749e+01    8.810165e-01
  2.664337e+01    8.731101e-01
  2.665924e+01    8.612272e-01
  2.667512e+01    8.497509e-01
  2.669100e+01    8.658000e-01
  2.670687e+01    8.747481e-01
  2.672275e+01    8.678205e-01
  2.673862e+01    8.548969e-01
  2.675450e+01    8.828709e-01
  2.677037e+01    8.840410e-01
  2.678625e+01    8.930073e-01
  2.680212e+01    8.832494e-01
  2.681800e+01    8.826488e-01
  2.683388e+01    8.840250e-01
  2.684975e+01    8.875858e-01
  2.686563e+01    9.046317e-01
  2.688150e+01    9.231123e-01
  2.689738e+01    9.337808e-01
  2.691325e+01    9.205406e-01
  2.692913e+01    9.236240e-01
  2.694501e+01    9.361281e-01
  2.696088e+01    9.504272e-01
  2.697676e+01    9.786727e-01
  2.699263e+01    1.000978e+00
  2.700851e+01    1.022141e+00
  2.702438e+01    1.094343e+00
  2.704026e+01    1.132451e+00
  2.705613e+01    1.170188e+00
  2.707201e+01    1.218286e+00
  2.708789e+01    1.295944e+00
  2.710376e+01    1.397325e+00
  2.711964e+01    1.510117e+00
  2.713551e+01    1.639805e+00
  2.715139e+01    1.791715e+00
  2.716726e+01    1.907948e+00
  2.718314e+01    2.056488e+00
  2.719901e+01    2.172551e+00
  2.721489e+01    2.228426e+00
  2.723077e+01    2.229636e+00
  2.724664e+01    2.202009e+00
  2.726252e+01    2.079059e+00
  2.727839e+01    1.905204e+00
  2.729427e+01    1.759949e+00
  2.731014e+01    1.606233e+00
  2.732602e+01    1.443129e+00
  2.734189e+01    1.357721e+00
  2.735777e+01    1.270349e+00
  2.737365e+01    1.195856e+00
  2.738952e+01    1.137780e+00
  2.740540e+01    1.070065e+00
  2.742127e+01    1.030707e+00
  2.743715e+01    1.001593e+00
  2.745302e+01    9.807544e-01
  2.746890e+01    9.555015e-01
  2.748477e+01    9.424276e-01
  2.750065e+01    9.249177e-01
  2.751653e+01    9.228885e-01
  2.753240e+01    8.913973e-01
  2.754828e+01    8.601703e-01
  2.756415e+01    8.654858e-01
  2.758003e+01    8.597228e-01
  2.759590e+01    8.747603e-01
  2.761178e+01    8.531111e-01
  2.762765e+01    8.171883e-01
  2.764353e+01    8.363293e-01
  2.765941e+01    8.513958e-01
  2.767528e+01    8.377971e-01
  2.769116e+01    8.353841e-01
  2.770703e+01    8.356378e-01
  2.772291e+01    8.399745e-01
  2.773878e+01    8.192554e-01
  2.775466e+01    8.203843e-01
  2.777054e+01    8.015766e-01
  2.778641e+01    8.166085e-01
  2.780229e+01    8.180339e-01
  2.781816e+01    8.069716e-01
  2.783404e+01    8.228149e-01
  2.784991e+01    8.088521e-01
  2.786579e+01    7.949474e-01
  2.788166e+01    8.173399e-01
  2.789754e+01    7.873655e-01
  2.791342e+01    7.939989e-01
  2.792929e+01    8.067524e-01
  2.794517e+01    7.939034e-01
  2.796104e+01    7.919844e-01
  2.797692e+01    7.972794e-01
  2.799279e+01    7.907960e-01
  2.800867e+01    7.956203e-01
  2.802454e+01    7.924038e-01
  2.804042e+01    7.842588e-01
  2.805630e+01    7.988360e-01
  2.807217e+01    7.746677e-01
  2.808805e+01    7.718086e-01
  2.810392e+01    7.812147e-01
  2.811980e+01    7.875953e-01
  2.813567e+01    7.817619e-01
  2.815155e+01    7.732724e-01
  2.816742e+01    7.910873e-01
  2.818330e+01    7.949046e-01
  2.819918e+01    7.712763e-01
  2.821505e+01    7.827706e-01
  2.823093e+01    7.781530e-01
  2.824680e+01    7.668545e-01
  2.826268e+01    7.567546e-01
  2.827855e+01    7.552544e-01
  2.829443e+01    7.702495e-01
  2.831030e+01    7.796018e-01
  2.832618e+01    7.717839e-01
  2.834206e+01    7.751033e-01
  2.835793e+01    7.890903e-01
  2.837381e+01    7.956630e-01
  2.838968e+01    7.581999e-01
  2.840556e+01    7.613946e-01
  2.842143e+01    7.637925e-01
  2.843731e+01    7.452754e-01
  2.845318e+01    7.451540e-01
  2.846906e+01    7.524732e-01
  2.848494e+01    7.404860e-01
  2.850081e+01    7.578587e-01
  2.851669e+01    7.831311e-01
  2.853256e+01    7.858118e-01
  2.854844e+01    7.594917e-01
  2.856431e+01    7.593291e-01
  2.858019e+01    7.472306e-01
  2.859606e+01    7.667601e-01
  2.861194e+01    7.750521e-01
  2.862782e+01    7.758765e-01
  2.864369e+01    7.589283e-01
  2.865957e+01    7.526096e-01
  2.867544e+01    7.414019e-01
  2.869132e+01    7.493773e-01
  2.870719e+01    7.510860e-01
  2.872307e+01    7.631921e-01
  2.873895e+01    7.785899e-01
  2.875482e+01    7.531656e-01
  2.877070e+01    7.500640e-01
  2.878657e+01    7.691007e-01
  2.880245e+01    7.569633e-01
  2.881832e+01    7.428119e-01
  2.883420e+01    7.381122e-01
  2.885007e+01    7.630680e-01
  2.886595e+01    7.326820e-01
  2.888183e+01    7.350002e-01
  2.889770e+01    7.444504e-01
  2.891358e+01    7.420564e-01
  2.892945e+01    7.618064e-01
  2.894533e+01    7.643403e-01
  2.896120e+01    7.341970e-01
  2.897708e+01    7.361588e-01
  2.899295e+01    7.401005e-01
  2.900883e+01    7.342829e-01
  2.902471e+01    7.458886e-01
  2.904058e+01    7.402346e-01
  2.905646e+01    7.211083e-01
  2.907233e+01    7.485253e-01
  2.908821e+01    7.561567e-01
  2.910408e+01    7.674271e-01
  2.911996e+01    7.413091e-01
  2.913583e+01    7.328159e-01
  2.915171e+01    7.447984e-01
  2.916759e+01    7.548340e-01
  2.918346e+01    7.428421e-01
  2.919934e+01    7.385538e-01
  2.921521e+01    7.512163e-01
  2.923109e+01    7.457640e-01
  2.924696e+01    7.345167e-01
  2.926284e+01    7.330989e-01
  2.927871e+01    7.603088e-01
  2.929459e+01    7.218140e-01
  2.931047e+01    7.318819e-01
  2.932634e+01    7.339510e-01
  2.934222e+01    7.278409e-01
  2.935809e+01    7.207718e-01
  2.937397e+01    7.252994e-01
  2.938984e+01    7.387466e-01
  2.940572e+01    7.172704e-01
  2.942159e+01    7.141973e-01
  2.943747e+01    7.192922e-01
  2.945335e+01    7.097355e-01
  2.946922e+01    7.096815e-01
  2.948510e+01    7.470078e-01
  2.950097e+01    7.292262e-01
  2.951685e+01    7.260972e-01
  2.953272e+01    7.323219e-01
  2.954860e+01    7.383508e-01
  2.956447e+01    7.572818e-01
  2.958035e+01    7.314427e-01
  2.959623e+01    7.358343e-01
  2.961210e+01    7.299262e-01
  2.962798e+01    7.309158e-01
  2.964385e+01    7.388343e-01
  2.965973e+01    7.186443e-01
  2.967560e+01    7.242721e-01
  2.969148e+01    6.894661e-01
  2.970736e+01    7.059027e-01
  2.972323e+01    7.333798e-01
  2.973911e+01    7.355278e-01
  2.975498e+01    7.286604e-01
  2.977086e+01    7.202804e-01
  2.978673e+01    7.229173e-01
  2.980261e+01    7.300152e-01
  2.981848e+01    7.452014e-01
  2.983436e+01    7.284686e-01
  2.985024e+01    7.320502e-01
  2.986611e+01    7.385878e-01
  2.988199e+01    7.348517e-01
  2.989786e+01    7.174495e-01
  2.991374e+01    7.216076e-01
  2.992961e+01    7.399030e-01
  2.994549e+01    7.445263e-01
  2.996136e+01    7.199506e-01
  2.997724e+01    7.300664e-01
  2.999312e+01    7.190632e-01
  3.000899e+01    7.228391e-01
  3.002487e+01    7.314397e-01
  3.004074e+01    7.416518e-01
  3.005662e+01    7.300203e-01
  3.007249e+01    7.371927e-01
  3.008837e+01    7.501813e-01
  3.010424e+01    7.443984e-01
  3.012012e+01    7.262182e-01
  3.013600e+01    7.331567e-01
  3.015187e+01    7.236122e-01
  3.016775e+01    7.085294e-01
  3.018362e+01    7.152321e-01
  3.019950e+01    6.911928e-01
  3.021537e+01    7.082936e-01
  3.023125e+01    7.274099e-01
  3.024712e+01    7.271622e-01
  3.026300e+01    7.398682e-01
  3.027888e+01    7.017880e-01
  3.029475e+01    6.994550e-01
  3.031063e+01    7.017031e-01
  3.032650e+01    7.214682e-01
  3.034238e+01    7.153392e-01
  3.035825e+01    7.213085e-01
  3.037413e+01    7.256621e-01
  3.039000e+01    7.131360e-01
  3.040588e+01    7.208452e-01
  3.042176e+01    7.011400e-01
  3.043763e+01    7.210183e-01
  3.045351e+01    7.097952e-01
  3.046938e+01    6.989794e-01
  3.048526e+01    6.927679e-01
  3.050113e+01    7.117472e-01
  3.051701e+01    7.133104e-01
  3.053288e+01    7.048459e-01
  3.054876e+01    7.206351e-01
  3.056464e+01    6.951399e-01
  3.058051e+01    7.014258e-01
  3.059639e+01    7.174463e-01
  3.061226e+01    7.136772e-01
  3.062814e+01    7.175236e-01
  3.064401e+01    7.061617e-01
  3.065989e+01    7.165183e-01
  3.067577e+01    7.315015e-01
  3.069164e+01    7.411642e-01
  3.070752e+01    7.106327e-01
  3.072339e+01    7.062746e-01
  3.073927e+01    7.129368e-01
  3.075514e+01    7.012120e-01
  3.077102e+01    7.246177e-01
  3.078689e+01    7.374467e-01
  3.080277e+01    7.216962e-01
  3.081865e+01    7.181777e-01
  3.083452e+01    7.221991e-01
  3.085040e+01    7.276544e-01
  3.086627e+01    7.387705e-01
  3.088215e+01    7.232997e-01
  3.089802e+01    6.903880e-01
  3.091390e+01    7.022080e-01
  3.092977e+01    7.165174e-01
  3.094565e+01    7.202458e-01
  3.096153e+01    7.242897e-01
  3.097740e+01    7.184294e-01
  3.099328e+01    7.207919e-01
  3.100915e+01    7.196547e-01
  3.102503e+01    7.482786e-01
  3.104090e+01    7.441409e-01
  3.105678e+01    7.304529e-01
  3.107265e+01    7.374191e-01
  3.108853e+01    7.345744e-01
  3.110441e+01    7.049285e-01
  3.112028e+01    7.292114e-01
  3.113616e+01    7.386940e-01
  3.115203e+01    7.246037e-01
  3.116791e+01    7.421585e-01
  3.118378e+01    7.241166e-01
  3.119966e+01    7.086130e-01
  3.121553e+01    7.258359e-01
  3.123141e+01    7.170525e-01
  3.124729e+01    7.291728e-01
  3.126316e+01    7.099098e-01
  3.127904e+01    7.283097e-01
  3.129491e+01    7.313667e-01
  3.131079e+01    7.480544e-01
  3.132666e+01    7.391756e-01
  3.134254e+01    7.428871e-01
  3.135841e+01    7.514668e-01
  3.137429e+01    7.534285e-01
  3.139017e+01    7.389850e-01
  3.140604e+01    7.564433e-01
  3.142192e+01    7.436607e-01
  3.143779e+01    7.453446e-01
  3.145367e+01    7.489725e-01
  3.146954e+01    7.551377e-01
  3.148542e+01    7.700469e-01
  3.150129e+01    7.879104e-01
  3.151717e+01    7.861796e-01
  3.153305e+01    7.781144e-01
  3.154892e+01    7.897654e-01
  3.156480e+01    8.158273e-01
  3.158067e+01    8.046794e-01
  3.159655e+01    8.192998e-01
  3.161242e+01    8.269525e-01
  3.162830e+01    8.547862e-01
  3.164418e+01    8.755084e-01
  3.166005e+01    8.640272e-01
  3.167593e+01    9.072644e-01
  3.169180e+01    9.459755e-01
  3.170768e+01    9.977251e-01
  3.172355e+01    1.036273e+00
  3.173943e+01    1.060343e+00
  3.175530e+01    1.140303e+00
  3.177118e+01    1.238791e+00
  3.178706e+01    1.327324e+00
  3.180293e+01    1.394340e+00
  3.181881e+01    1.519659e+00
  3.183468e+01    1.696144e+00
  3.185056e+01    1.858651e+00
  3.186643e+01    1.969436e+00
  3.188231e+01    2.090205e+00
  3.189818e+01    2.194819e+00
  3.191406e+01    2.173032e+00
  3.192994e+01    2.174185e+00
  3.194581e+01    2.108166e+00
  3.196169e+01    1.930285e+00
  3.197756e+01    1.746065e+00
  3.199344e+01    1.612302e+00
  3.200931e+01    1.491974e+00
  3.202519e+01    1.366472e+00
  3.204106e+01    1.237280e+00
  3.205694e+01    1.137059e+00
  3.207282e+01    1.073801e+00
  3.208869e+01    1.011753e+00
  3.210457e+01    9.598076e-01
  3.212044e+01    9.203055e-01
  3.213632e+01    8.780205e-01
  3.215219e+01    8.689216e-01
  3.216807e+01    8.525409e-01
  3.218394e+01    8.207443e-01
  3.219982e+01    8.007690e-01
  3.221570e+01    7.995875e-01
  3.223157e+01    7.970258e-01
  3.224745e+01    7.841245e-01
  3.226332e+01    7.709829e-01
  3.227920e+01    7.742358e-01
  3.229507e+01    7.688314e-01
  3.231095e+01    7.451336e-01
  3.232682e+01    7.491279e-01
  3.234270e+01    7.417390e-01
  3.235858e+01    7.443058e-01
  3.237445e+01    7.579405e-01
  3.239033e+01    7.497453e-01
  3.240620e+01    7.542413e-01
  3.242208e+01    7.436771e-01
  3.243795e+01    7.344378e-01
  3.245383e+01    7.508723e-01
  3.246970e+01    7.207775e-01
  3.248558e+01    6.980348e-01
  3.250146e+01    7.066579e-01
  3.251733e+01    7.293217e-01
  3.253321e+01    7.204285e-01
  3.254908e+01    7.340686e-01
