# == pyFAI calibration ==
# Distance Sample to Detector: 0.3999999939076516 m
# PONI: 9.750e-02, 1.135e-01 m
# Rotations: -0.000175 0.000000 -0.000000 rad
# 
# == Fit2d calibration ==
# Distance Sample-beamCenter: 400.000 mm
# Center: x=1514.000, y=1300.000 pix
# Tilt: 0.010 deg  TiltPlanRot: 0.010 deg
# 
# Detector Detector	 Spline= None	 PixelSize= 7.500e-05, 7.500e-05 m
#    Detector has a mask: False 
#    Detector has a dark current: False 
#    detector has a flat field: False 
# 
# Wavelength: 6.888e-11 m
# Mask applied: user provided
# Dark current applied: False
# Flat field applied: False
# Polarization factor: 0.99
# Normalization factor: 1.0
# --> /home/myspot/data/2024_07_Rosario/Ru-CGO-ex/2024-07-27_002_Ru-CGO-ex_Activtation_ramp_000002_data_000005.dat
#       q_nm^-1             I 
  2.003187e-02    0.000000e+00
  3.590745e-02    7.159866e-02
  5.178302e-02    9.699228e-02
  6.765859e-02    4.304459e-02
  8.353417e-02    1.640855e-02
  9.940974e-02    3.702711e-02
  1.152853e-01    4.397778e-03
  1.311609e-01    3.271027e-03
  1.470365e-01    3.046532e-02
  1.629120e-01    4.739059e-03
  1.787876e-01    2.446977e-02
  1.946632e-01    6.695904e-03
  2.105388e-01    0.000000e+00
  2.264143e-01    1.790595e-02
  2.422899e-01    4.238021e-02
  2.581655e-01    4.143794e-02
  2.740411e-01    2.620075e-02
  2.899166e-01    2.407894e-02
  3.057922e-01    2.210723e-02
  3.216678e-01    6.729880e-04
  3.375433e-01    1.360139e-02
  3.534189e-01    2.753733e-03
  3.692945e-01    1.956828e-02
  3.851701e-01    7.157232e-02
  4.010456e-01    3.754717e-02
  4.169212e-01    4.454474e-02
  4.327968e-01    3.122024e-02
  4.486724e-01    8.723662e-03
  4.645479e-01    9.781254e-03
  4.804235e-01    2.342676e-02
  4.962991e-01    4.186745e-02
  5.121747e-01    4.205801e-02
  5.280502e-01    2.500667e-02
  5.439258e-01    1.652205e-02
  5.598014e-01    1.748022e-02
  5.756770e-01    2.040319e-02
  5.915525e-01    2.479738e-02
  6.074281e-01    2.210280e-02
  6.233037e-01    3.564067e-02
  6.391793e-01    2.835056e-02
  6.550548e-01    1.352550e-02
  6.709304e-01    4.129618e-02
  6.868060e-01    7.324327e-02
  7.026815e-01    4.930303e-02
  7.185571e-01    4.409949e-02
  7.344327e-01    4.471455e-02
  7.503083e-01    3.746543e-02
  7.661838e-01    8.765163e-02
  7.820594e-01    1.215801e-01
  7.979350e-01    1.587199e-01
  8.138106e-01    1.745645e-01
  8.296861e-01    2.429898e-01
  8.455617e-01    2.853744e-01
  8.614373e-01    3.502978e-01
  8.773129e-01    4.405486e-01
  8.931884e-01    5.180069e-01
  9.090640e-01    5.618439e-01
  9.249396e-01    6.623517e-01
  9.408152e-01    7.411582e-01
  9.566907e-01    7.983323e-01
  9.725663e-01    8.289320e-01
  9.884419e-01    9.408954e-01
  1.004317e+00    1.007950e+00
  1.020193e+00    1.051702e+00
  1.036069e+00    1.083052e+00
  1.051944e+00    1.215955e+00
  1.067820e+00    1.352680e+00
  1.083695e+00    1.340928e+00
  1.099571e+00    1.400584e+00
  1.115446e+00    1.558864e+00
  1.131322e+00    1.529206e+00
  1.147198e+00    1.446958e+00
  1.163073e+00    1.571426e+00
  1.178949e+00    1.498747e+00
  1.194824e+00    1.580162e+00
  1.210700e+00    1.943354e+00
  1.226575e+00    2.175395e+00
  1.242451e+00    2.249975e+00
  1.258327e+00    2.418317e+00
  1.274202e+00    2.612219e+00
  1.290078e+00    2.564297e+00
  1.305953e+00    2.589904e+00
  1.321829e+00    2.565010e+00
  1.337705e+00    2.633685e+00
  1.353580e+00    2.751574e+00
  1.369456e+00    2.681557e+00
  1.385331e+00    2.607594e+00
  1.401207e+00    2.684953e+00
  1.417082e+00    2.718846e+00
  1.432958e+00    2.821652e+00
  1.448834e+00    2.777847e+00
  1.464709e+00    2.813075e+00
  1.480585e+00    2.914100e+00
  1.496460e+00    2.913637e+00
  1.512336e+00    2.974796e+00
  1.528211e+00    3.065919e+00
  1.544087e+00    3.085261e+00
  1.559963e+00    3.030284e+00
  1.575838e+00    3.046332e+00
  1.591714e+00    2.984529e+00
  1.607589e+00    3.051829e+00
  1.623465e+00    3.038018e+00
  1.639340e+00    2.955299e+00
  1.655216e+00    2.904179e+00
  1.671092e+00    3.013399e+00
  1.686967e+00    3.092406e+00
  1.702843e+00    2.939488e+00
  1.718718e+00    2.903848e+00
  1.734594e+00    2.853871e+00
  1.750469e+00    2.859183e+00
  1.766345e+00    2.882804e+00
  1.782221e+00    2.921913e+00
  1.798096e+00    2.796393e+00
  1.813972e+00    2.785434e+00
  1.829847e+00    2.937320e+00
  1.845723e+00    3.084736e+00
  1.861598e+00    2.954642e+00
  1.877474e+00    2.975297e+00
  1.893350e+00    2.997586e+00
  1.909225e+00    2.866778e+00
  1.925101e+00    2.661454e+00
  1.940976e+00    2.868646e+00
  1.956852e+00    2.898525e+00
  1.972727e+00    2.848640e+00
  1.988603e+00    2.766545e+00
  2.004479e+00    2.818258e+00
  2.020354e+00    2.725504e+00
  2.036230e+00    2.709362e+00
  2.052105e+00    2.893616e+00
  2.067981e+00    2.913829e+00
  2.083856e+00    2.692049e+00
  2.099732e+00    2.643088e+00
  2.115608e+00    2.768591e+00
  2.131483e+00    2.848306e+00
  2.147359e+00    2.753658e+00
  2.163234e+00    2.777706e+00
  2.179110e+00    2.914123e+00
  2.194985e+00    2.792186e+00
  2.210861e+00    2.677421e+00
  2.226737e+00    2.831604e+00
  2.242612e+00    2.809066e+00
  2.258488e+00    2.843501e+00
  2.274363e+00    2.811073e+00
  2.290239e+00    2.715951e+00
  2.306115e+00    2.661388e+00
  2.321990e+00    2.763295e+00
  2.337866e+00    2.881684e+00
  2.353741e+00    2.877597e+00
  2.369617e+00    2.802624e+00
  2.385492e+00    2.814163e+00
  2.401368e+00    2.707767e+00
  2.417244e+00    2.861437e+00
  2.433119e+00    2.813767e+00
  2.448995e+00    2.863364e+00
  2.464870e+00    2.838867e+00
  2.480746e+00    2.770811e+00
  2.496621e+00    2.865578e+00
  2.512497e+00    2.882550e+00
  2.528373e+00    2.829891e+00
  2.544248e+00    2.797412e+00
  2.560124e+00    2.803776e+00
  2.575999e+00    2.980188e+00
  2.591875e+00    2.936313e+00
  2.607750e+00    2.876943e+00
  2.623626e+00    3.005652e+00
  2.639502e+00    2.963542e+00
  2.655377e+00    2.869976e+00
  2.671253e+00    2.908093e+00
  2.687128e+00    2.867261e+00
  2.703004e+00    2.802233e+00
  2.718879e+00    2.846984e+00
  2.734755e+00    2.850620e+00
  2.750631e+00    2.767565e+00
  2.766506e+00    2.776308e+00
  2.782382e+00    2.886262e+00
  2.798257e+00    2.908986e+00
  2.814133e+00    2.918483e+00
  2.830008e+00    2.967243e+00
  2.845884e+00    2.930296e+00
  2.861760e+00    2.893160e+00
  2.877635e+00    2.899839e+00
  2.893511e+00    2.940629e+00
  2.909386e+00    2.946740e+00
  2.925262e+00    2.972600e+00
  2.941137e+00    2.934623e+00
  2.957013e+00    2.992865e+00
  2.972889e+00    2.946670e+00
  2.988764e+00    2.962599e+00
  3.004640e+00    2.896997e+00
  3.020515e+00    2.855852e+00
  3.036391e+00    2.979226e+00
  3.052266e+00    2.968560e+00
  3.068142e+00    2.923186e+00
  3.084018e+00    2.897775e+00
  3.099893e+00    2.880943e+00
  3.115769e+00    2.934551e+00
  3.131644e+00    3.002933e+00
  3.147520e+00    2.937496e+00
  3.163395e+00    2.949518e+00
  3.179271e+00    2.940800e+00
  3.195147e+00    2.950854e+00
  3.211022e+00    2.992505e+00
  3.226898e+00    2.886448e+00
  3.242773e+00    2.940316e+00
  3.258649e+00    2.917590e+00
  3.274525e+00    3.007717e+00
  3.290400e+00    2.949839e+00
  3.306276e+00    2.941736e+00
  3.322151e+00    2.879466e+00
  3.338027e+00    2.955910e+00
  3.353902e+00    2.964244e+00
  3.369778e+00    2.914915e+00
  3.385654e+00    2.968863e+00
  3.401529e+00    2.937004e+00
  3.417405e+00    2.990774e+00
  3.433280e+00    2.949294e+00
  3.449156e+00    2.965872e+00
  3.465031e+00    2.977321e+00
  3.480907e+00    3.053216e+00
  3.496783e+00    2.982692e+00
  3.512658e+00    2.920116e+00
  3.528534e+00    2.986563e+00
  3.544409e+00    2.932186e+00
  3.560285e+00    2.955485e+00
  3.576160e+00    2.953366e+00
  3.592036e+00    2.988316e+00
  3.607912e+00    3.047436e+00
  3.623787e+00    2.997573e+00
  3.639663e+00    3.086193e+00
  3.655538e+00    3.135787e+00
  3.671414e+00    3.075083e+00
  3.687289e+00    3.073159e+00
  3.703165e+00    3.006564e+00
  3.719041e+00    2.937567e+00
  3.734916e+00    2.945345e+00
  3.750792e+00    2.958340e+00
  3.766667e+00    3.133504e+00
  3.782543e+00    3.050561e+00
  3.798418e+00    3.026365e+00
  3.814294e+00    3.039205e+00
  3.830170e+00    2.964913e+00
  3.846045e+00    2.981999e+00
  3.861921e+00    2.989701e+00
  3.877796e+00    3.043927e+00
  3.893672e+00    2.986047e+00
  3.909547e+00    2.922729e+00
  3.925423e+00    3.062903e+00
  3.941299e+00    3.056370e+00
  3.957174e+00    3.041853e+00
  3.973050e+00    3.013542e+00
  3.988925e+00    3.033638e+00
  4.004801e+00    3.065217e+00
  4.020676e+00    3.065401e+00
  4.036552e+00    2.990329e+00
  4.052428e+00    2.941470e+00
  4.068303e+00    3.024269e+00
  4.084179e+00    3.030877e+00
  4.100054e+00    3.073188e+00
  4.115930e+00    3.034149e+00
  4.131806e+00    3.073995e+00
  4.147681e+00    3.131694e+00
  4.163557e+00    3.151845e+00
  4.179432e+00    3.085850e+00
  4.195308e+00    3.109390e+00
  4.211183e+00    3.149634e+00
  4.227059e+00    3.083818e+00
  4.242935e+00    3.024583e+00
  4.258810e+00    3.073319e+00
  4.274686e+00    3.098455e+00
  4.290561e+00    3.092955e+00
  4.306437e+00    3.087603e+00
  4.322312e+00    3.110736e+00
  4.338188e+00    3.068250e+00
  4.354064e+00    3.054866e+00
  4.369939e+00    3.048769e+00
  4.385815e+00    3.068962e+00
  4.401690e+00    3.082546e+00
  4.417566e+00    3.123798e+00
  4.433441e+00    3.171954e+00
  4.449317e+00    3.143589e+00
  4.465193e+00    3.128174e+00
  4.481068e+00    3.149516e+00
  4.496944e+00    3.127363e+00
  4.512819e+00    3.155396e+00
  4.528695e+00    3.101703e+00
  4.544570e+00    3.073989e+00
  4.560446e+00    3.049621e+00
  4.576322e+00    3.099878e+00
  4.592197e+00    3.096769e+00
  4.608073e+00    3.130055e+00
  4.623948e+00    3.213484e+00
  4.639824e+00    3.158580e+00
  4.655699e+00    3.131254e+00
  4.671575e+00    3.238153e+00
  4.687451e+00    3.182061e+00
  4.703326e+00    3.112240e+00
  4.719202e+00    3.202845e+00
  4.735077e+00    3.241152e+00
  4.750953e+00    3.199836e+00
  4.766828e+00    3.134023e+00
  4.782704e+00    3.064009e+00
  4.798580e+00    3.119828e+00
  4.814455e+00    3.099523e+00
  4.830331e+00    3.056118e+00
  4.846206e+00    3.160421e+00
  4.862082e+00    3.132441e+00
  4.877957e+00    3.112706e+00
  4.893833e+00    3.181134e+00
  4.909709e+00    3.209811e+00
  4.925584e+00    3.171062e+00
  4.941460e+00    3.118225e+00
  4.957335e+00    3.103835e+00
  4.973211e+00    3.200241e+00
  4.989086e+00    3.186786e+00
  5.004962e+00    3.112157e+00
  5.020838e+00    3.160125e+00
  5.036713e+00    3.175936e+00
  5.052589e+00    3.174851e+00
  5.068464e+00    3.189429e+00
  5.084340e+00    3.155252e+00
  5.100216e+00    3.184127e+00
  5.116091e+00    3.127211e+00
  5.131967e+00    3.116702e+00
  5.147842e+00    3.099089e+00
  5.163718e+00    3.183576e+00
  5.179593e+00    3.231704e+00
  5.195469e+00    3.243619e+00
  5.211345e+00    3.133901e+00
  5.227220e+00    3.124160e+00
  5.243096e+00    3.179375e+00
  5.258971e+00    3.182510e+00
  5.274847e+00    3.128167e+00
  5.290722e+00    3.165066e+00
  5.306598e+00    3.182187e+00
  5.322474e+00    3.170641e+00
  5.338349e+00    3.236562e+00
  5.354225e+00    3.241478e+00
  5.370100e+00    3.212933e+00
  5.385976e+00    3.220739e+00
  5.401851e+00    3.230643e+00
  5.417727e+00    3.133761e+00
  5.433603e+00    3.124053e+00
  5.449478e+00    3.173823e+00
  5.465354e+00    3.113619e+00
  5.481229e+00    3.084859e+00
  5.497105e+00    3.148663e+00
  5.512980e+00    3.190752e+00
  5.528856e+00    3.152663e+00
  5.544732e+00    3.102947e+00
  5.560607e+00    3.140617e+00
  5.576483e+00    3.212783e+00
  5.592358e+00    3.188691e+00
  5.608234e+00    3.046676e+00
  5.624109e+00    3.058428e+00
  5.639985e+00    3.175250e+00
  5.655861e+00    3.090251e+00
  5.671736e+00    3.062901e+00
  5.687612e+00    3.195991e+00
  5.703487e+00    3.178122e+00
  5.719363e+00    3.054921e+00
  5.735238e+00    3.125456e+00
  5.751114e+00    3.098808e+00
  5.766990e+00    3.076482e+00
  5.782865e+00    3.100006e+00
  5.798741e+00    3.174682e+00
  5.814616e+00    3.123297e+00
  5.830492e+00    3.146338e+00
  5.846367e+00    3.127828e+00
  5.862243e+00    3.062991e+00
  5.878119e+00    3.032833e+00
  5.893994e+00    2.993150e+00
  5.909870e+00    3.015811e+00
  5.925745e+00    3.091106e+00
  5.941621e+00    3.019955e+00
  5.957497e+00    3.021234e+00
  5.973372e+00    3.062100e+00
  5.989248e+00    3.054096e+00
  6.005123e+00    3.156071e+00
  6.020999e+00    3.131954e+00
  6.036874e+00    3.041994e+00
  6.052750e+00    3.120454e+00
  6.068626e+00    3.100866e+00
  6.084501e+00    3.064144e+00
  6.100377e+00    3.092763e+00
  6.116252e+00    3.176219e+00
  6.132128e+00    3.178736e+00
  6.148003e+00    3.142243e+00
  6.163879e+00    3.086494e+00
  6.179755e+00    3.101955e+00
  6.195630e+00    3.100924e+00
  6.211506e+00    3.121199e+00
  6.227381e+00    3.116161e+00
  6.243257e+00    3.061824e+00
  6.259132e+00    3.093303e+00
  6.275008e+00    3.080494e+00
  6.290884e+00    3.078025e+00
  6.306759e+00    3.114063e+00
  6.322635e+00    3.143657e+00
  6.338510e+00    3.130563e+00
  6.354386e+00    3.133770e+00
  6.370261e+00    3.071528e+00
  6.386137e+00    3.085820e+00
  6.402013e+00    3.080456e+00
  6.417888e+00    3.005471e+00
  6.433764e+00    3.080040e+00
  6.449639e+00    3.088958e+00
  6.465515e+00    3.104074e+00
  6.481390e+00    3.103581e+00
  6.497266e+00    3.076617e+00
  6.513142e+00    3.047647e+00
  6.529017e+00    3.080427e+00
  6.544893e+00    3.126929e+00
  6.560768e+00    3.022120e+00
  6.576644e+00    3.029624e+00
  6.592519e+00    3.064360e+00
  6.608395e+00    3.072807e+00
  6.624271e+00    3.069365e+00
  6.640146e+00    3.085675e+00
  6.656022e+00    3.048171e+00
  6.671897e+00    3.093159e+00
  6.687773e+00    3.194689e+00
  6.703648e+00    3.119644e+00
  6.719524e+00    3.101468e+00
  6.735400e+00    3.147349e+00
  6.751275e+00    3.060201e+00
  6.767151e+00    2.989758e+00
  6.783026e+00    3.060602e+00
  6.798902e+00    3.154764e+00
  6.814777e+00    3.053506e+00
  6.830653e+00    2.988669e+00
  6.846529e+00    3.051183e+00
  6.862404e+00    3.118355e+00
  6.878280e+00    3.090971e+00
  6.894155e+00    3.081760e+00
  6.910031e+00    3.081080e+00
  6.925907e+00    2.997268e+00
  6.941782e+00    3.022546e+00
  6.957658e+00    2.992435e+00
  6.973533e+00    3.003291e+00
  6.989409e+00    3.055911e+00
  7.005284e+00    3.001498e+00
  7.021160e+00    2.977889e+00
  7.037036e+00    2.969328e+00
  7.052911e+00    2.934646e+00
  7.068787e+00    3.017973e+00
  7.084662e+00    3.053483e+00
  7.100538e+00    3.012355e+00
  7.116413e+00    3.077977e+00
  7.132289e+00    3.112146e+00
  7.148165e+00    3.093672e+00
  7.164040e+00    3.094424e+00
  7.179916e+00    3.068348e+00
  7.195791e+00    3.004139e+00
  7.211667e+00    3.033383e+00
  7.227542e+00    3.068765e+00
  7.243418e+00    3.033061e+00
  7.259294e+00    3.008457e+00
  7.275169e+00    2.989950e+00
  7.291045e+00    2.997712e+00
  7.306920e+00    3.070827e+00
  7.322796e+00    3.011765e+00
  7.338671e+00    3.001899e+00
  7.354547e+00    2.929371e+00
  7.370423e+00    2.951118e+00
  7.386298e+00    3.039061e+00
  7.402174e+00    3.074854e+00
  7.418049e+00    3.052265e+00
  7.433925e+00    3.048757e+00
  7.449800e+00    3.027266e+00
  7.465676e+00    3.006499e+00
  7.481552e+00    2.986846e+00
  7.497427e+00    3.029071e+00
  7.513303e+00    3.010535e+00
  7.529178e+00    3.055545e+00
  7.545054e+00    3.049773e+00
  7.560929e+00    3.001661e+00
  7.576805e+00    3.029569e+00
  7.592681e+00    2.976671e+00
  7.608556e+00    2.977331e+00
  7.624432e+00    3.045668e+00
  7.640307e+00    2.992764e+00
  7.656183e+00    3.017109e+00
  7.672058e+00    3.027480e+00
  7.687934e+00    2.993787e+00
  7.703810e+00    2.981496e+00
  7.719685e+00    2.961436e+00
  7.735561e+00    3.032120e+00
  7.751436e+00    3.051327e+00
  7.767312e+00    2.922446e+00
  7.783187e+00    2.884712e+00
  7.799063e+00    2.930246e+00
  7.814939e+00    2.959139e+00
  7.830814e+00    2.975778e+00
  7.846690e+00    2.995481e+00
  7.862565e+00    2.982527e+00
  7.878441e+00    3.019345e+00
  7.894317e+00    2.944652e+00
  7.910192e+00    2.922509e+00
  7.926068e+00    2.949579e+00
  7.941943e+00    2.931626e+00
  7.957819e+00    3.005109e+00
  7.973694e+00    2.988446e+00
  7.989570e+00    2.974692e+00
  8.005446e+00    2.953634e+00
  8.021321e+00    2.991147e+00
  8.037197e+00    2.990238e+00
  8.053072e+00    2.975440e+00
  8.068948e+00    2.959648e+00
  8.084823e+00    2.966931e+00
  8.100699e+00    3.012991e+00
  8.116575e+00    2.962271e+00
  8.132450e+00    2.949043e+00
  8.148326e+00    3.072562e+00
  8.164201e+00    3.048629e+00
  8.180077e+00    2.981797e+00
  8.195952e+00    3.003408e+00
  8.211828e+00    3.027478e+00
  8.227704e+00    2.975760e+00
  8.243579e+00    2.988465e+00
  8.259455e+00    2.956793e+00
  8.275330e+00    3.004485e+00
  8.291206e+00    2.981952e+00
  8.307081e+00    2.969942e+00
  8.322957e+00    2.960484e+00
  8.338833e+00    2.980509e+00
  8.354708e+00    2.919110e+00
  8.370584e+00    2.958670e+00
  8.386459e+00    2.941048e+00
  8.402335e+00    2.934674e+00
  8.418210e+00    2.994743e+00
  8.434086e+00    2.947574e+00
  8.449962e+00    2.875615e+00
  8.465837e+00    2.892403e+00
  8.481713e+00    2.922875e+00
  8.497588e+00    2.924523e+00
  8.513464e+00    2.919922e+00
  8.529339e+00    2.891084e+00
  8.545215e+00    2.873533e+00
  8.561091e+00    2.968443e+00
  8.576966e+00    2.930782e+00
  8.592842e+00    2.888850e+00
  8.608717e+00    2.896443e+00
  8.624593e+00    2.882270e+00
  8.640468e+00    2.833954e+00
  8.656344e+00    2.869729e+00
  8.672220e+00    2.886254e+00
  8.688095e+00    2.945737e+00
  8.703971e+00    2.967578e+00
  8.719846e+00    2.886200e+00
  8.735722e+00    2.850399e+00
  8.751598e+00    2.841252e+00
  8.767473e+00    2.886956e+00
  8.783349e+00    2.858543e+00
  8.799224e+00    2.838132e+00
  8.815100e+00    2.849527e+00
  8.830975e+00    2.871566e+00
  8.846851e+00    2.868882e+00
  8.862727e+00    2.853933e+00
  8.878602e+00    2.850187e+00
  8.894478e+00    2.834359e+00
  8.910353e+00    2.822568e+00
  8.926229e+00    2.888957e+00
  8.942104e+00    2.957931e+00
  8.957980e+00    2.956099e+00
  8.973856e+00    2.912001e+00
  8.989731e+00    2.854061e+00
  9.005607e+00    2.806281e+00
  9.021482e+00    2.836274e+00
  9.037358e+00    2.874949e+00
  9.053233e+00    2.855391e+00
  9.069109e+00    2.844244e+00
  9.084985e+00    2.903029e+00
  9.100860e+00    2.908441e+00
  9.116736e+00    2.829118e+00
  9.132611e+00    2.834694e+00
  9.148487e+00    2.882871e+00
  9.164362e+00    2.863441e+00
  9.180238e+00    2.808712e+00
  9.196114e+00    2.839540e+00
  9.211989e+00    2.839998e+00
  9.227865e+00    2.839821e+00
  9.243740e+00    2.897994e+00
  9.259616e+00    2.893326e+00
  9.275491e+00    2.880058e+00
  9.291367e+00    2.839391e+00
  9.307243e+00    2.863953e+00
  9.323118e+00    2.865098e+00
  9.338994e+00    2.847858e+00
  9.354869e+00    2.781929e+00
  9.370745e+00    2.785674e+00
  9.386620e+00    2.825925e+00
  9.402496e+00    2.854761e+00
  9.418372e+00    2.823852e+00
  9.434247e+00    2.814017e+00
  9.450123e+00    2.741067e+00
  9.465998e+00    2.814307e+00
  9.481874e+00    2.829713e+00
  9.497749e+00    2.808324e+00
  9.513625e+00    2.843745e+00
  9.529501e+00    2.839293e+00
  9.545376e+00    2.834796e+00
  9.561252e+00    2.799530e+00
  9.577127e+00    2.771013e+00
  9.593003e+00    2.807217e+00
  9.608878e+00    2.832817e+00
  9.624754e+00    2.773105e+00
  9.640630e+00    2.740609e+00
  9.656505e+00    2.750557e+00
  9.672381e+00    2.757397e+00
  9.688256e+00    2.769085e+00
  9.704132e+00    2.742854e+00
  9.720008e+00    2.755213e+00
  9.735883e+00    2.749086e+00
  9.751759e+00    2.784541e+00
  9.767634e+00    2.800955e+00
  9.783510e+00    2.746162e+00
  9.799385e+00    2.758316e+00
  9.815261e+00    2.765052e+00
  9.831137e+00    2.723738e+00
  9.847012e+00    2.755801e+00
  9.862888e+00    2.800404e+00
  9.878763e+00    2.774740e+00
  9.894639e+00    2.733293e+00
  9.910514e+00    2.761512e+00
  9.926390e+00    2.774250e+00
  9.942266e+00    2.731110e+00
  9.958141e+00    2.736807e+00
  9.974017e+00    2.695576e+00
  9.989892e+00    2.681926e+00
  1.000577e+01    2.700663e+00
  1.002164e+01    2.716908e+00
  1.003752e+01    2.718525e+00
  1.005339e+01    2.679559e+00
  1.006927e+01    2.706604e+00
  1.008515e+01    2.719115e+00
  1.010102e+01    2.659771e+00
  1.011690e+01    2.707620e+00
  1.013277e+01    2.715724e+00
  1.014865e+01    2.691538e+00
  1.016452e+01    2.696422e+00
  1.018040e+01    2.694903e+00
  1.019627e+01    2.699570e+00
  1.021215e+01    2.628504e+00
  1.022803e+01    2.693411e+00
  1.024390e+01    2.633219e+00
  1.025978e+01    2.664077e+00
  1.027565e+01    2.645768e+00
  1.029153e+01    2.659063e+00
  1.030740e+01    2.671864e+00
  1.032328e+01    2.682711e+00
  1.033915e+01    2.717366e+00
  1.035503e+01    2.654476e+00
  1.037091e+01    2.639024e+00
  1.038678e+01    2.677345e+00
  1.040266e+01    2.667486e+00
  1.041853e+01    2.680628e+00
  1.043441e+01    2.639500e+00
  1.045028e+01    2.622140e+00
  1.046616e+01    2.651938e+00
  1.048204e+01    2.642372e+00
  1.049791e+01    2.663211e+00
  1.051379e+01    2.654258e+00
  1.052966e+01    2.621707e+00
  1.054554e+01    2.694812e+00
  1.056141e+01    2.618147e+00
  1.057729e+01    2.604851e+00
  1.059316e+01    2.621238e+00
  1.060904e+01    2.626649e+00
  1.062492e+01    2.600307e+00
  1.064079e+01    2.621639e+00
  1.065667e+01    2.617239e+00
  1.067254e+01    2.625060e+00
  1.068842e+01    2.631642e+00
  1.070429e+01    2.634484e+00
  1.072017e+01    2.590449e+00
  1.073604e+01    2.560068e+00
  1.075192e+01    2.573214e+00
  1.076780e+01    2.547745e+00
  1.078367e+01    2.581305e+00
  1.079955e+01    2.536932e+00
  1.081542e+01    2.577832e+00
  1.083130e+01    2.565339e+00
  1.084717e+01    2.526114e+00
  1.086305e+01    2.576425e+00
  1.087892e+01    2.587476e+00
  1.089480e+01    2.556087e+00
  1.091068e+01    2.543082e+00
  1.092655e+01    2.559598e+00
  1.094243e+01    2.564662e+00
  1.095830e+01    2.572257e+00
  1.097418e+01    2.515349e+00
  1.099005e+01    2.500648e+00
  1.100593e+01    2.522434e+00
  1.102180e+01    2.523622e+00
  1.103768e+01    2.505791e+00
  1.105356e+01    2.535656e+00
  1.106943e+01    2.530085e+00
  1.108531e+01    2.479043e+00
  1.110118e+01    2.533527e+00
  1.111706e+01    2.542510e+00
  1.113293e+01    2.508703e+00
  1.114881e+01    2.510670e+00
  1.116468e+01    2.483197e+00
  1.118056e+01    2.465266e+00
  1.119644e+01    2.461719e+00
  1.121231e+01    2.502941e+00
  1.122819e+01    2.516484e+00
  1.124406e+01    2.470836e+00
  1.125994e+01    2.479553e+00
  1.127581e+01    2.454447e+00
  1.129169e+01    2.486774e+00
  1.130756e+01    2.497101e+00
  1.132344e+01    2.542427e+00
  1.133932e+01    2.489656e+00
  1.135519e+01    2.437296e+00
  1.137107e+01    2.452069e+00
  1.138694e+01    2.440029e+00
  1.140282e+01    2.444781e+00
  1.141869e+01    2.460661e+00
  1.143457e+01    2.451766e+00
  1.145045e+01    2.472435e+00
  1.146632e+01    2.442989e+00
  1.148220e+01    2.480277e+00
  1.149807e+01    2.456906e+00
  1.151395e+01    2.412632e+00
  1.152982e+01    2.383657e+00
  1.154570e+01    2.412919e+00
  1.156157e+01    2.390390e+00
  1.157745e+01    2.401987e+00
  1.159333e+01    2.422255e+00
  1.160920e+01    2.403704e+00
  1.162508e+01    2.427396e+00
  1.164095e+01    2.467809e+00
  1.165683e+01    2.427957e+00
  1.167270e+01    2.444369e+00
  1.168858e+01    2.412974e+00
  1.170445e+01    2.437864e+00
  1.172033e+01    2.447228e+00
  1.173621e+01    2.388450e+00
  1.175208e+01    2.392949e+00
  1.176796e+01    2.408467e+00
  1.178383e+01    2.423310e+00
  1.179971e+01    2.433565e+00
  1.181558e+01    2.413893e+00
  1.183146e+01    2.356941e+00
  1.184733e+01    2.344431e+00
  1.186321e+01    2.369358e+00
  1.187909e+01    2.358776e+00
  1.189496e+01    2.406729e+00
  1.191084e+01    2.377038e+00
  1.192671e+01    2.379073e+00
  1.194259e+01    2.406417e+00
  1.195846e+01    2.400753e+00
  1.197434e+01    2.397908e+00
  1.199021e+01    2.413270e+00
  1.200609e+01    2.393522e+00
  1.202197e+01    2.385884e+00
  1.203784e+01    2.356593e+00
  1.205372e+01    2.404098e+00
  1.206959e+01    2.378186e+00
  1.208547e+01    2.359123e+00
  1.210134e+01    2.355667e+00
  1.211722e+01    2.351412e+00
  1.213309e+01    2.376277e+00
  1.214897e+01    2.361837e+00
  1.216485e+01    2.341418e+00
  1.218072e+01    2.362252e+00
  1.219660e+01    2.331981e+00
  1.221247e+01    2.316186e+00
  1.222835e+01    2.375672e+00
  1.224422e+01    2.364963e+00
  1.226010e+01    2.344126e+00
  1.227597e+01    2.361222e+00
  1.229185e+01    2.362660e+00
  1.230773e+01    2.348994e+00
  1.232360e+01    2.368859e+00
  1.233948e+01    2.386856e+00
  1.235535e+01    2.396005e+00
  1.237123e+01    2.370005e+00
  1.238710e+01    2.333877e+00
  1.240298e+01    2.319232e+00
  1.241886e+01    2.341016e+00
  1.243473e+01    2.386660e+00
  1.245061e+01    2.436115e+00
  1.246648e+01    2.419091e+00
  1.248236e+01    2.367431e+00
  1.249823e+01    2.399883e+00
  1.251411e+01    2.423463e+00
  1.252998e+01    2.402923e+00
  1.254586e+01    2.339537e+00
  1.256174e+01    2.369728e+00
  1.257761e+01    2.423074e+00
  1.259349e+01    2.453111e+00
  1.260936e+01    2.446676e+00
  1.262524e+01    2.434936e+00
  1.264111e+01    2.470699e+00
  1.265699e+01    2.468892e+00
  1.267286e+01    2.517462e+00
  1.268874e+01    2.500607e+00
  1.270462e+01    2.552765e+00
  1.272049e+01    2.542579e+00
  1.273637e+01    2.533153e+00
  1.275224e+01    2.522045e+00
  1.276812e+01    2.624482e+00
  1.278399e+01    2.613559e+00
  1.279987e+01    2.711119e+00
  1.281574e+01    2.798113e+00
  1.283162e+01    2.825052e+00
  1.284750e+01    2.898278e+00
  1.286337e+01    2.955638e+00
  1.287925e+01    3.067172e+00
  1.289512e+01    3.129960e+00
  1.291100e+01    3.311368e+00
  1.292687e+01    3.530346e+00
  1.294275e+01    3.703557e+00
  1.295862e+01    3.943692e+00
  1.297450e+01    4.271715e+00
  1.299038e+01    4.716656e+00
  1.300625e+01    5.226687e+00
  1.302213e+01    5.762381e+00
  1.303800e+01    6.666142e+00
  1.305388e+01    7.705939e+00
  1.306975e+01    8.952088e+00
  1.308563e+01    1.038245e+01
  1.310150e+01    1.183969e+01
  1.311738e+01    1.346045e+01
  1.313326e+01    1.494020e+01
  1.314913e+01    1.652254e+01
  1.316501e+01    1.796725e+01
  1.318088e+01    1.940105e+01
  1.319676e+01    2.033479e+01
  1.321263e+01    2.021338e+01
  1.322851e+01    1.903496e+01
  1.324438e+01    1.695868e+01
  1.326026e+01    1.456374e+01
  1.327614e+01    1.236350e+01
  1.329201e+01    1.027926e+01
  1.330789e+01    8.725139e+00
  1.332376e+01    7.439632e+00
  1.333964e+01    6.438103e+00
  1.335551e+01    5.691585e+00
  1.337139e+01    5.103935e+00
  1.338727e+01    4.605245e+00
  1.340314e+01    4.173876e+00
  1.341902e+01    3.889513e+00
  1.343489e+01    3.671135e+00
  1.345077e+01    3.419332e+00
  1.346664e+01    3.254979e+00
  1.348252e+01    3.126899e+00
  1.349839e+01    3.020285e+00
  1.351427e+01    2.946528e+00
  1.353015e+01    2.795376e+00
  1.354602e+01    2.690617e+00
  1.356190e+01    2.643783e+00
  1.357777e+01    2.613573e+00
  1.359365e+01    2.574051e+00
  1.360952e+01    2.517466e+00
  1.362540e+01    2.453174e+00
  1.364127e+01    2.472546e+00
  1.365715e+01    2.424657e+00
  1.367303e+01    2.407074e+00
  1.368890e+01    2.392549e+00
  1.370478e+01    2.350189e+00
  1.372065e+01    2.328558e+00
  1.373653e+01    2.273422e+00
  1.375240e+01    2.229794e+00
  1.376828e+01    2.232261e+00
  1.378415e+01    2.247415e+00
  1.380003e+01    2.241128e+00
  1.381591e+01    2.235386e+00
  1.383178e+01    2.207975e+00
  1.384766e+01    2.152956e+00
  1.386353e+01    2.159871e+00
  1.387941e+01    2.166724e+00
  1.389528e+01    2.175761e+00
  1.391116e+01    2.202830e+00
  1.392703e+01    2.156402e+00
  1.394291e+01    2.160970e+00
  1.395879e+01    2.158295e+00
  1.397466e+01    2.118746e+00
  1.399054e+01    2.112218e+00
  1.400641e+01    2.061873e+00
  1.402229e+01    2.105640e+00
  1.403816e+01    2.121104e+00
  1.405404e+01    2.136008e+00
  1.406991e+01    2.074411e+00
  1.408579e+01    2.065154e+00
  1.410167e+01    2.051031e+00
  1.411754e+01    2.065549e+00
  1.413342e+01    2.095428e+00
  1.414929e+01    2.106802e+00
  1.416517e+01    2.056361e+00
  1.418104e+01    2.038171e+00
  1.419692e+01    2.019407e+00
  1.421279e+01    2.032313e+00
  1.422867e+01    2.000103e+00
  1.424455e+01    2.032302e+00
  1.426042e+01    2.004010e+00
  1.427630e+01    1.995689e+00
  1.429217e+01    2.006008e+00
  1.430805e+01    1.992764e+00
  1.432392e+01    2.005884e+00
  1.433980e+01    2.015352e+00
  1.435568e+01    1.992020e+00
  1.437155e+01    1.998020e+00
  1.438743e+01    1.976934e+00
  1.440330e+01    1.999849e+00
  1.441918e+01    1.956402e+00
  1.443505e+01    1.974588e+00
  1.445093e+01    1.956723e+00
  1.446680e+01    1.981680e+00
  1.448268e+01    1.970821e+00
  1.449856e+01    1.967187e+00
  1.451443e+01    1.952103e+00
  1.453031e+01    1.977631e+00
  1.454618e+01    1.989303e+00
  1.456206e+01    1.965985e+00
  1.457793e+01    1.984647e+00
  1.459381e+01    2.001397e+00
  1.460968e+01    1.987110e+00
  1.462556e+01    1.975912e+00
  1.464144e+01    1.930698e+00
  1.465731e+01    1.940564e+00
  1.467319e+01    1.937645e+00
  1.468906e+01    1.903598e+00
  1.470494e+01    1.913774e+00
  1.472081e+01    1.957049e+00
  1.473669e+01    1.944395e+00
  1.475256e+01    1.980603e+00
  1.476844e+01    1.947380e+00
  1.478432e+01    1.937317e+00
  1.480019e+01    1.930273e+00
  1.481607e+01    1.945307e+00
  1.483194e+01    1.956404e+00
  1.484782e+01    1.936568e+00
  1.486369e+01    1.924021e+00
  1.487957e+01    1.978677e+00
  1.489544e+01    1.966485e+00
  1.491132e+01    1.984039e+00
  1.492720e+01    1.985974e+00
  1.494307e+01    1.996172e+00
  1.495895e+01    2.047363e+00
  1.497482e+01    2.080463e+00
  1.499070e+01    2.114695e+00
  1.500657e+01    2.151116e+00
  1.502245e+01    2.243411e+00
  1.503832e+01    2.287451e+00
  1.505420e+01    2.368140e+00
  1.507008e+01    2.421034e+00
  1.508595e+01    2.552480e+00
  1.510183e+01    2.778992e+00
  1.511770e+01    2.930751e+00
  1.513358e+01    3.192871e+00
  1.514945e+01    3.531400e+00
  1.516533e+01    3.912122e+00
  1.518120e+01    4.388680e+00
  1.519708e+01    4.837180e+00
  1.521296e+01    5.281025e+00
  1.522883e+01    5.641909e+00
  1.524471e+01    6.008549e+00
  1.526058e+01    6.325490e+00
  1.527646e+01    6.639979e+00
  1.529233e+01    6.736826e+00
  1.530821e+01    6.649266e+00
  1.532409e+01    6.320453e+00
  1.533996e+01    5.847384e+00
  1.535584e+01    5.231488e+00
  1.537171e+01    4.569195e+00
  1.538759e+01    4.037673e+00
  1.540346e+01    3.588584e+00
  1.541934e+01    3.199316e+00
  1.543521e+01    2.926653e+00
  1.545109e+01    2.706651e+00
  1.546697e+01    2.552971e+00
  1.548284e+01    2.415045e+00
  1.549872e+01    2.296860e+00
  1.551459e+01    2.223278e+00
  1.553047e+01    2.188778e+00
  1.554634e+01    2.056546e+00
  1.556222e+01    2.049418e+00
  1.557809e+01    2.019260e+00
  1.559397e+01    1.953936e+00
  1.560985e+01    1.954997e+00
  1.562572e+01    1.946074e+00
  1.564160e+01    1.854356e+00
  1.565747e+01    1.827360e+00
  1.567335e+01    1.828206e+00
  1.568922e+01    1.814308e+00
  1.570510e+01    1.777464e+00
  1.572097e+01    1.764353e+00
  1.573685e+01    1.783302e+00
  1.575273e+01    1.776073e+00
  1.576860e+01    1.754483e+00
  1.578448e+01    1.750394e+00
  1.580035e+01    1.732363e+00
  1.581623e+01    1.758400e+00
  1.583210e+01    1.742787e+00
  1.584798e+01    1.689963e+00
  1.586385e+01    1.688973e+00
  1.587973e+01    1.715093e+00
  1.589561e+01    1.704387e+00
  1.591148e+01    1.696865e+00
  1.592736e+01    1.681831e+00
  1.594323e+01    1.651127e+00
  1.595911e+01    1.670374e+00
  1.597498e+01    1.677085e+00
  1.599086e+01    1.638642e+00
  1.600673e+01    1.630386e+00
  1.602261e+01    1.679600e+00
  1.603849e+01    1.681509e+00
  1.605436e+01    1.652511e+00
  1.607024e+01    1.658209e+00
  1.608611e+01    1.645144e+00
  1.610199e+01    1.599753e+00
  1.611786e+01    1.574696e+00
  1.613374e+01    1.595381e+00
  1.614961e+01    1.616868e+00
  1.616549e+01    1.592352e+00
  1.618137e+01    1.613243e+00
  1.619724e+01    1.593987e+00
  1.621312e+01    1.580255e+00
  1.622899e+01    1.554123e+00
  1.624487e+01    1.575059e+00
  1.626074e+01    1.586985e+00
  1.627662e+01    1.603603e+00
  1.629250e+01    1.598420e+00
  1.630837e+01    1.622758e+00
  1.632425e+01    1.603608e+00
  1.634012e+01    1.607978e+00
  1.635600e+01    1.617458e+00
  1.637187e+01    1.610025e+00
  1.638775e+01    1.569349e+00
  1.640362e+01    1.557240e+00
  1.641950e+01    1.570284e+00
  1.643538e+01    1.538110e+00
  1.645125e+01    1.527292e+00
  1.646713e+01    1.565531e+00
  1.648300e+01    1.555093e+00
  1.649888e+01    1.563212e+00
  1.651475e+01    1.575400e+00
  1.653063e+01    1.559950e+00
  1.654650e+01    1.518128e+00
  1.656238e+01    1.530990e+00
  1.657826e+01    1.559638e+00
  1.659413e+01    1.570375e+00
  1.661001e+01    1.538586e+00
  1.662588e+01    1.534965e+00
  1.664176e+01    1.548293e+00
  1.665763e+01    1.524454e+00
  1.667351e+01    1.517904e+00
  1.668938e+01    1.510172e+00
  1.670526e+01    1.490534e+00
  1.672114e+01    1.527456e+00
  1.673701e+01    1.519317e+00
  1.675289e+01    1.461575e+00
  1.676876e+01    1.469179e+00
  1.678464e+01    1.489282e+00
  1.680051e+01    1.512704e+00
  1.681639e+01    1.511377e+00
  1.683226e+01    1.493116e+00
  1.684814e+01    1.488039e+00
  1.686402e+01    1.480983e+00
  1.687989e+01    1.460873e+00
  1.689577e+01    1.459173e+00
  1.691164e+01    1.457535e+00
  1.692752e+01    1.469056e+00
  1.694339e+01    1.479033e+00
  1.695927e+01    1.471263e+00
  1.697514e+01    1.472041e+00
  1.699102e+01    1.463320e+00
  1.700690e+01    1.449042e+00
  1.702277e+01    1.450655e+00
  1.703865e+01    1.458656e+00
  1.705452e+01    1.474459e+00
  1.707040e+01    1.445292e+00
  1.708627e+01    1.411135e+00
  1.710215e+01    1.412289e+00
  1.711802e+01    1.424661e+00
  1.713390e+01    1.422064e+00
  1.714978e+01    1.426434e+00
  1.716565e+01    1.426833e+00
  1.718153e+01    1.418872e+00
  1.719740e+01    1.418702e+00
  1.721328e+01    1.413142e+00
  1.722915e+01    1.429169e+00
  1.724503e+01    1.435038e+00
  1.726091e+01    1.431033e+00
  1.727678e+01    1.437935e+00
  1.729266e+01    1.435260e+00
  1.730853e+01    1.421120e+00
  1.732441e+01    1.421826e+00
  1.734028e+01    1.418483e+00
  1.735616e+01    1.414099e+00
  1.737203e+01    1.431238e+00
  1.738791e+01    1.404312e+00
  1.740379e+01    1.400045e+00
  1.741966e+01    1.420046e+00
  1.743554e+01    1.404956e+00
  1.745141e+01    1.405546e+00
  1.746729e+01    1.396781e+00
  1.748316e+01    1.399192e+00
  1.749904e+01    1.417820e+00
  1.751491e+01    1.407259e+00
  1.753079e+01    1.388736e+00
  1.754667e+01    1.395722e+00
  1.756254e+01    1.370782e+00
  1.757842e+01    1.359424e+00
  1.759429e+01    1.380941e+00
  1.761017e+01    1.370527e+00
  1.762604e+01    1.385966e+00
  1.764192e+01    1.377784e+00
  1.765779e+01    1.367184e+00
  1.767367e+01    1.344223e+00
  1.768955e+01    1.347378e+00
  1.770542e+01    1.378500e+00
  1.772130e+01    1.356522e+00
  1.773717e+01    1.369302e+00
  1.775305e+01    1.360034e+00
  1.776892e+01    1.386497e+00
  1.778480e+01    1.417165e+00
  1.780067e+01    1.365780e+00
  1.781655e+01    1.354306e+00
  1.783243e+01    1.355360e+00
  1.784830e+01    1.359768e+00
  1.786418e+01    1.371077e+00
  1.788005e+01    1.382454e+00
  1.789593e+01    1.356500e+00
  1.791180e+01    1.312954e+00
  1.792768e+01    1.341104e+00
  1.794355e+01    1.309714e+00
  1.795943e+01    1.311579e+00
  1.797531e+01    1.321141e+00
  1.799118e+01    1.303367e+00
  1.800706e+01    1.331528e+00
  1.802293e+01    1.312086e+00
  1.803881e+01    1.323824e+00
  1.805468e+01    1.336663e+00
  1.807056e+01    1.338878e+00
  1.808643e+01    1.309494e+00
  1.810231e+01    1.305939e+00
  1.811819e+01    1.296496e+00
  1.813406e+01    1.305092e+00
  1.814994e+01    1.315642e+00
  1.816581e+01    1.291113e+00
  1.818169e+01    1.296708e+00
  1.819756e+01    1.299031e+00
  1.821344e+01    1.306821e+00
  1.822932e+01    1.274330e+00
  1.824519e+01    1.303067e+00
  1.826107e+01    1.304112e+00
  1.827694e+01    1.307882e+00
  1.829282e+01    1.318950e+00
  1.830869e+01    1.320536e+00
  1.832457e+01    1.320730e+00
  1.834044e+01    1.281556e+00
  1.835632e+01    1.286223e+00
  1.837220e+01    1.299296e+00
  1.838807e+01    1.306915e+00
  1.840395e+01    1.307214e+00
  1.841982e+01    1.299809e+00
  1.843570e+01    1.270208e+00
  1.845157e+01    1.253812e+00
  1.846745e+01    1.281207e+00
  1.848332e+01    1.282786e+00
  1.849920e+01    1.272047e+00
  1.851508e+01    1.277772e+00
  1.853095e+01    1.294496e+00
  1.854683e+01    1.275064e+00
  1.856270e+01    1.290443e+00
  1.857858e+01    1.286744e+00
  1.859445e+01    1.249001e+00
  1.861033e+01    1.255828e+00
  1.862620e+01    1.266536e+00
  1.864208e+01    1.290037e+00
  1.865796e+01    1.251360e+00
  1.867383e+01    1.263653e+00
  1.868971e+01    1.269995e+00
  1.870558e+01    1.271512e+00
  1.872146e+01    1.258910e+00
  1.873733e+01    1.293168e+00
  1.875321e+01    1.274475e+00
  1.876908e+01    1.260352e+00
  1.878496e+01    1.242298e+00
  1.880084e+01    1.229884e+00
  1.881671e+01    1.238652e+00
  1.883259e+01    1.255709e+00
  1.884846e+01    1.259650e+00
  1.886434e+01    1.251945e+00
  1.888021e+01    1.247156e+00
  1.889609e+01    1.227368e+00
  1.891196e+01    1.251116e+00
  1.892784e+01    1.248561e+00
  1.894372e+01    1.226592e+00
  1.895959e+01    1.222665e+00
  1.897547e+01    1.241925e+00
  1.899134e+01    1.246532e+00
  1.900722e+01    1.246511e+00
  1.902309e+01    1.236282e+00
  1.903897e+01    1.227938e+00
  1.905484e+01    1.241033e+00
  1.907072e+01    1.218749e+00
  1.908660e+01    1.212576e+00
  1.910247e+01    1.221204e+00
  1.911835e+01    1.226458e+00
  1.913422e+01    1.205410e+00
  1.915010e+01    1.200353e+00
  1.916597e+01    1.210614e+00
  1.918185e+01    1.214471e+00
  1.919773e+01    1.228666e+00
  1.921360e+01    1.221107e+00
  1.922948e+01    1.200533e+00
  1.924535e+01    1.218564e+00
  1.926123e+01    1.205588e+00
  1.927710e+01    1.207297e+00
  1.929298e+01    1.190848e+00
  1.930885e+01    1.215076e+00
  1.932473e+01    1.223168e+00
  1.934061e+01    1.207251e+00
  1.935648e+01    1.213403e+00
  1.937236e+01    1.191752e+00
  1.938823e+01    1.202461e+00
  1.940411e+01    1.218960e+00
  1.941998e+01    1.197889e+00
  1.943586e+01    1.197784e+00
  1.945173e+01    1.186729e+00
  1.946761e+01    1.180971e+00
  1.948349e+01    1.191615e+00
  1.949936e+01    1.192524e+00
  1.951524e+01    1.197207e+00
  1.953111e+01    1.215404e+00
  1.954699e+01    1.173462e+00
  1.956286e+01    1.145879e+00
  1.957874e+01    1.171231e+00
  1.959461e+01    1.184900e+00
  1.961049e+01    1.178264e+00
  1.962637e+01    1.179013e+00
  1.964224e+01    1.171544e+00
  1.965812e+01    1.172451e+00
  1.967399e+01    1.168498e+00
  1.968987e+01    1.176902e+00
  1.970574e+01    1.170363e+00
  1.972162e+01    1.156739e+00
  1.973749e+01    1.185559e+00
  1.975337e+01    1.198286e+00
  1.976925e+01    1.169871e+00
  1.978512e+01    1.159796e+00
  1.980100e+01    1.146268e+00
  1.981687e+01    1.168310e+00
  1.983275e+01    1.149118e+00
  1.984862e+01    1.154529e+00
  1.986450e+01    1.164476e+00
  1.988037e+01    1.142280e+00
  1.989625e+01    1.147371e+00
  1.991213e+01    1.137545e+00
  1.992800e+01    1.160788e+00
  1.994388e+01    1.179909e+00
  1.995975e+01    1.137909e+00
  1.997563e+01    1.131292e+00
  1.999150e+01    1.152715e+00
  2.000738e+01    1.148482e+00
  2.002325e+01    1.157719e+00
  2.003913e+01    1.127167e+00
  2.005501e+01    1.134207e+00
  2.007088e+01    1.145538e+00
  2.008676e+01    1.143761e+00
  2.010263e+01    1.137338e+00
  2.011851e+01    1.123474e+00
  2.013438e+01    1.116608e+00
  2.015026e+01    1.115558e+00
  2.016614e+01    1.111775e+00
  2.018201e+01    1.127597e+00
  2.019789e+01    1.126588e+00
  2.021376e+01    1.137059e+00
  2.022964e+01    1.138605e+00
  2.024551e+01    1.115753e+00
  2.026139e+01    1.130700e+00
  2.027726e+01    1.111050e+00
  2.029314e+01    1.116389e+00
  2.030902e+01    1.121123e+00
  2.032489e+01    1.124357e+00
  2.034077e+01    1.136529e+00
  2.035664e+01    1.117599e+00
  2.037252e+01    1.112518e+00
  2.038839e+01    1.108787e+00
  2.040427e+01    1.113962e+00
  2.042014e+01    1.118122e+00
  2.043602e+01    1.128525e+00
  2.045190e+01    1.117570e+00
  2.046777e+01    1.113045e+00
  2.048365e+01    1.119396e+00
  2.049952e+01    1.118094e+00
  2.051540e+01    1.131468e+00
  2.053127e+01    1.101623e+00
  2.054715e+01    1.116063e+00
  2.056302e+01    1.095195e+00
  2.057890e+01    1.146656e+00
  2.059478e+01    1.116560e+00
  2.061065e+01    1.100590e+00
  2.062653e+01    1.106151e+00
  2.064240e+01    1.104798e+00
  2.065828e+01    1.094981e+00
  2.067415e+01    1.096992e+00
  2.069003e+01    1.102742e+00
  2.070590e+01    1.087958e+00
  2.072178e+01    1.099801e+00
  2.073766e+01    1.098979e+00
  2.075353e+01    1.112819e+00
  2.076941e+01    1.141384e+00
  2.078528e+01    1.139224e+00
  2.080116e+01    1.105147e+00
  2.081703e+01    1.105132e+00
  2.083291e+01    1.117396e+00
  2.084878e+01    1.103247e+00
  2.086466e+01    1.101390e+00
  2.088054e+01    1.132451e+00
  2.089641e+01    1.135291e+00
  2.091229e+01    1.109947e+00
  2.092816e+01    1.093521e+00
  2.094404e+01    1.066848e+00
  2.095991e+01    1.095291e+00
  2.097579e+01    1.121063e+00
  2.099166e+01    1.124207e+00
  2.100754e+01    1.087653e+00
  2.102342e+01    1.079527e+00
  2.103929e+01    1.095153e+00
  2.105517e+01    1.110631e+00
  2.107104e+01    1.113259e+00
  2.108692e+01    1.126201e+00
  2.110279e+01    1.106681e+00
  2.111867e+01    1.091794e+00
  2.113455e+01    1.102657e+00
  2.115042e+01    1.096193e+00
  2.116630e+01    1.108302e+00
  2.118217e+01    1.121959e+00
  2.119805e+01    1.108790e+00
  2.121392e+01    1.107274e+00
  2.122980e+01    1.142488e+00
  2.124567e+01    1.137604e+00
  2.126155e+01    1.151988e+00
  2.127743e+01    1.154748e+00
  2.129330e+01    1.142708e+00
  2.130918e+01    1.156606e+00
  2.132505e+01    1.151304e+00
  2.134093e+01    1.158752e+00
  2.135680e+01    1.182491e+00
  2.137268e+01    1.176682e+00
  2.138855e+01    1.184254e+00
  2.140443e+01    1.206717e+00
  2.142031e+01    1.220752e+00
  2.143618e+01    1.237661e+00
  2.145206e+01    1.246314e+00
  2.146793e+01    1.253752e+00
  2.148381e+01    1.279035e+00
  2.149968e+01    1.292387e+00
  2.151556e+01    1.289167e+00
  2.153143e+01    1.315926e+00
  2.154731e+01    1.353933e+00
  2.156319e+01    1.421504e+00
  2.157906e+01    1.465772e+00
  2.159494e+01    1.498660e+00
  2.161081e+01    1.568835e+00
  2.162669e+01    1.616546e+00
  2.164256e+01    1.677932e+00
  2.165844e+01    1.824917e+00
  2.167431e+01    1.934910e+00
  2.169019e+01    2.085984e+00
  2.170607e+01    2.267298e+00
  2.172194e+01    2.489253e+00
  2.173782e+01    2.798898e+00
  2.175369e+01    3.122600e+00
  2.176957e+01    3.582368e+00
  2.178544e+01    4.097402e+00
  2.180132e+01    4.695380e+00
  2.181719e+01    5.434212e+00
  2.183307e+01    6.191384e+00
  2.184895e+01    7.030837e+00
  2.186482e+01    7.888475e+00
  2.188070e+01    8.839998e+00
  2.189657e+01    9.782678e+00
  2.191245e+01    1.055962e+01
  2.192832e+01    1.101686e+01
  2.194420e+01    1.116544e+01
  2.196007e+01    1.086749e+01
  2.197595e+01    1.007495e+01
  2.199183e+01    8.942524e+00
  2.200770e+01    7.726922e+00
  2.202358e+01    6.519418e+00
  2.203945e+01    5.519156e+00
  2.205533e+01    4.643055e+00
  2.207120e+01    4.006087e+00
  2.208708e+01    3.414191e+00
  2.210296e+01    2.999184e+00
  2.211883e+01    2.709826e+00
  2.213471e+01    2.435406e+00
  2.215058e+01    2.238728e+00
  2.216646e+01    2.071923e+00
  2.218233e+01    1.916499e+00
  2.219821e+01    1.789594e+00
  2.221408e+01    1.655153e+00
  2.222996e+01    1.577746e+00
  2.224584e+01    1.533984e+00
  2.226171e+01    1.499582e+00
  2.227759e+01    1.426798e+00
  2.229346e+01    1.357394e+00
  2.230934e+01    1.301440e+00
  2.232521e+01    1.285046e+00
  2.234109e+01    1.262215e+00
  2.235696e+01    1.227014e+00
  2.237284e+01    1.217960e+00
  2.238872e+01    1.222107e+00
  2.240459e+01    1.198950e+00
  2.242047e+01    1.160469e+00
  2.243634e+01    1.138788e+00
  2.245222e+01    1.143269e+00
  2.246809e+01    1.101203e+00
  2.248397e+01    1.072294e+00
  2.249984e+01    1.054489e+00
  2.251572e+01    1.052385e+00
  2.253160e+01    1.065734e+00
  2.254747e+01    1.067186e+00
  2.256335e+01    1.045136e+00
  2.257922e+01    1.040945e+00
  2.259510e+01    1.023431e+00
  2.261097e+01    1.006490e+00
  2.262685e+01    1.007699e+00
  2.264272e+01    1.022017e+00
  2.265860e+01    1.019113e+00
  2.267448e+01    9.822931e-01
  2.269035e+01    9.905553e-01
  2.270623e+01    9.837517e-01
  2.272210e+01    9.856840e-01
  2.273798e+01    9.746628e-01
  2.275385e+01    9.630725e-01
  2.276973e+01    9.571537e-01
  2.278560e+01    9.541309e-01
  2.280148e+01    9.615974e-01
  2.281736e+01    9.558427e-01
  2.283323e+01    9.297038e-01
  2.284911e+01    9.447799e-01
  2.286498e+01    9.414113e-01
  2.288086e+01    9.399251e-01
  2.289673e+01    9.572935e-01
  2.291261e+01    9.525476e-01
  2.292848e+01    9.490506e-01
  2.294436e+01    9.284112e-01
  2.296024e+01    9.235858e-01
  2.297611e+01    9.118864e-01
  2.299199e+01    9.165635e-01
  2.300786e+01    9.271892e-01
  2.302374e+01    9.316970e-01
  2.303961e+01    9.227721e-01
  2.305549e+01    9.313238e-01
  2.307137e+01    9.278150e-01
  2.308724e+01    9.379914e-01
  2.310312e+01    9.058333e-01
  2.311899e+01    9.017829e-01
  2.313487e+01    9.219667e-01
  2.315074e+01    9.030258e-01
  2.316662e+01    9.076121e-01
  2.318249e+01    8.907780e-01
  2.319837e+01    8.912324e-01
  2.321425e+01    9.038580e-01
  2.323012e+01    9.076785e-01
  2.324600e+01    8.919337e-01
  2.326187e+01    8.785560e-01
  2.327775e+01    8.968226e-01
  2.329362e+01    8.963539e-01
  2.330950e+01    8.898202e-01
  2.332537e+01    8.839374e-01
  2.334125e+01    8.964469e-01
  2.335713e+01    8.833469e-01
  2.337300e+01    8.859531e-01
  2.338888e+01    8.839454e-01
  2.340475e+01    8.972594e-01
  2.342063e+01    8.591108e-01
  2.343650e+01    8.614362e-01
  2.345238e+01    8.836910e-01
  2.346825e+01    8.723471e-01
  2.348413e+01    8.708251e-01
  2.350001e+01    8.848795e-01
  2.351588e+01    8.859772e-01
  2.353176e+01    8.685763e-01
  2.354763e+01    8.540658e-01
  2.356351e+01    8.676709e-01
  2.357938e+01    8.752002e-01
  2.359526e+01    8.712106e-01
  2.361113e+01    8.605801e-01
  2.362701e+01    8.646275e-01
  2.364289e+01    8.610125e-01
  2.365876e+01    8.389933e-01
  2.367464e+01    8.291301e-01
  2.369051e+01    8.571810e-01
  2.370639e+01    8.184919e-01
  2.372226e+01    8.264016e-01
  2.373814e+01    8.598028e-01
  2.375401e+01    8.457713e-01
  2.376989e+01    8.538035e-01
  2.378577e+01    8.233507e-01
  2.380164e+01    8.249415e-01
  2.381752e+01    8.289895e-01
  2.383339e+01    8.183827e-01
  2.384927e+01    8.129060e-01
  2.386514e+01    8.249814e-01
  2.388102e+01    8.315545e-01
  2.389689e+01    8.431164e-01
  2.391277e+01    8.321764e-01
  2.392865e+01    8.265067e-01
  2.394452e+01    8.274055e-01
  2.396040e+01    8.322535e-01
  2.397627e+01    8.240485e-01
  2.399215e+01    8.123628e-01
  2.400802e+01    8.060757e-01
  2.402390e+01    8.110263e-01
  2.403978e+01    8.203487e-01
  2.405565e+01    8.113725e-01
  2.407153e+01    8.221826e-01
  2.408740e+01    8.153635e-01
  2.410328e+01    8.273155e-01
  2.411915e+01    8.115881e-01
  2.413503e+01    8.026766e-01
  2.415090e+01    7.900276e-01
  2.416678e+01    7.840382e-01
  2.418266e+01    7.836999e-01
  2.419853e+01    7.722785e-01
  2.421441e+01    7.723538e-01
  2.423028e+01    7.852556e-01
  2.424616e+01    8.058717e-01
  2.426203e+01    8.042572e-01
  2.427791e+01    8.090583e-01
  2.429378e+01    8.056540e-01
  2.430966e+01    8.160912e-01
  2.432554e+01    8.166556e-01
  2.434141e+01    8.035990e-01
  2.435729e+01    8.132051e-01
  2.437316e+01    8.412441e-01
  2.438904e+01    8.212911e-01
  2.440491e+01    7.875277e-01
  2.442079e+01    8.220121e-01
  2.443666e+01    8.251349e-01
  2.445254e+01    8.012453e-01
  2.446842e+01    7.902926e-01
  2.448429e+01    8.060311e-01
  2.450017e+01    8.045667e-01
  2.451604e+01    8.024005e-01
  2.453192e+01    8.244210e-01
  2.454779e+01    8.078707e-01
  2.456367e+01    7.915949e-01
  2.457954e+01    8.043204e-01
  2.459542e+01    8.157361e-01
  2.461130e+01    7.989715e-01
  2.462717e+01    7.905696e-01
  2.464305e+01    8.209183e-01
  2.465892e+01    8.233440e-01
  2.467480e+01    8.140851e-01
  2.469067e+01    8.181210e-01
  2.470655e+01    8.050770e-01
  2.472242e+01    7.946494e-01
  2.473830e+01    8.085147e-01
  2.475418e+01    7.946729e-01
  2.477005e+01    8.047779e-01
  2.478593e+01    8.111315e-01
  2.480180e+01    8.271960e-01
  2.481768e+01    8.316542e-01
  2.483355e+01    8.117077e-01
  2.484943e+01    8.040398e-01
  2.486530e+01    7.955236e-01
  2.488118e+01    7.945395e-01
  2.489706e+01    8.059596e-01
  2.491293e+01    8.168299e-01
  2.492881e+01    8.199518e-01
  2.494468e+01    8.210191e-01
  2.496056e+01    8.170548e-01
  2.497643e+01    8.201182e-01
  2.499231e+01    8.223825e-01
  2.500819e+01    8.241692e-01
  2.502406e+01    8.153136e-01
  2.503994e+01    8.263519e-01
  2.505581e+01    8.208562e-01
  2.507169e+01    8.231816e-01
  2.508756e+01    8.491844e-01
  2.510344e+01    8.460830e-01
  2.511931e+01    8.284885e-01
  2.513519e+01    8.589790e-01
  2.515107e+01    8.493406e-01
  2.516694e+01    8.471994e-01
  2.518282e+01    8.479779e-01
  2.519869e+01    8.513927e-01
  2.521457e+01    8.585808e-01
  2.523044e+01    8.452380e-01
  2.524632e+01    8.701475e-01
  2.526219e+01    8.838378e-01
  2.527807e+01    8.976374e-01
  2.529395e+01    8.699228e-01
  2.530982e+01    9.000708e-01
  2.532570e+01    8.979009e-01
  2.534157e+01    8.874317e-01
  2.535745e+01    8.949181e-01
  2.537332e+01    9.015604e-01
  2.538920e+01    9.209993e-01
  2.540507e+01    9.436570e-01
  2.542095e+01    9.366401e-01
  2.543683e+01    9.447434e-01
  2.545270e+01    9.523318e-01
  2.546858e+01    9.543183e-01
  2.548445e+01    9.801703e-01
  2.550033e+01    9.683566e-01
  2.551620e+01    9.901758e-01
  2.553208e+01    1.008382e+00
  2.554795e+01    1.020133e+00
  2.556383e+01    1.034517e+00
  2.557971e+01    1.045324e+00
  2.559558e+01    1.090032e+00
  2.561146e+01    1.111323e+00
  2.562733e+01    1.153169e+00
  2.564321e+01    1.183248e+00
  2.565908e+01    1.217056e+00
  2.567496e+01    1.269960e+00
  2.569083e+01    1.335177e+00
  2.570671e+01    1.376760e+00
  2.572259e+01    1.438994e+00
  2.573846e+01    1.532099e+00
  2.575434e+01    1.665002e+00
  2.577021e+01    1.793953e+00
  2.578609e+01    1.944205e+00
  2.580196e+01    2.158158e+00
  2.581784e+01    2.419548e+00
  2.583371e+01    2.711094e+00
  2.584959e+01    3.039883e+00
  2.586547e+01    3.488713e+00
  2.588134e+01    4.003437e+00
  2.589722e+01    4.636215e+00
  2.591309e+01    5.398985e+00
  2.592897e+01    6.147325e+00
  2.594484e+01    6.917888e+00
  2.596072e+01    7.793531e+00
  2.597660e+01    8.541882e+00
  2.599247e+01    9.043540e+00
  2.600835e+01    9.294437e+00
  2.602422e+01    9.202600e+00
  2.604010e+01    8.791270e+00
  2.605597e+01    8.003312e+00
  2.607185e+01    7.077677e+00
  2.608772e+01    6.226125e+00
  2.610360e+01    5.286857e+00
  2.611948e+01    4.498726e+00
  2.613535e+01    3.835572e+00
  2.615123e+01    3.332724e+00
  2.616710e+01    2.899131e+00
  2.618298e+01    2.552439e+00
  2.619885e+01    2.313192e+00
  2.621473e+01    2.094764e+00
  2.623060e+01    1.912517e+00
  2.624648e+01    1.778383e+00
  2.626236e+01    1.634726e+00
  2.627823e+01    1.528093e+00
  2.629411e+01    1.446433e+00
  2.630998e+01    1.392523e+00
  2.632586e+01    1.332159e+00
  2.634173e+01    1.252071e+00
  2.635761e+01    1.197622e+00
  2.637348e+01    1.166985e+00
  2.638936e+01    1.149710e+00
  2.640524e+01    1.095125e+00
  2.642111e+01    1.103644e+00
  2.643699e+01    1.079589e+00
  2.645286e+01    1.064407e+00
  2.646874e+01    1.035326e+00
  2.648461e+01    1.026515e+00
  2.650049e+01    9.971545e-01
  2.651636e+01    9.764412e-01
  2.653224e+01    1.000361e+00
  2.654812e+01    9.981756e-01
  2.656399e+01    9.827234e-01
  2.657987e+01    9.731366e-01
  2.659574e+01    9.797642e-01
  2.661162e+01    9.797669e-01
  2.662749e+01    9.674692e-01
  2.664337e+01    9.683519e-01
  2.665924e+01    9.204932e-01
  2.667512e+01    9.373575e-01
  2.669100e+01    9.639048e-01
  2.670687e+01    9.512528e-01
  2.672275e+01    9.373078e-01
  2.673862e+01    9.420944e-01
  2.675450e+01    9.284366e-01
  2.677037e+01    9.284227e-01
  2.678625e+01    9.230518e-01
  2.680212e+01    9.173660e-01
  2.681800e+01    9.196092e-01
  2.683388e+01    9.329148e-01
  2.684975e+01    9.463288e-01
  2.686563e+01    9.639634e-01
  2.688150e+01    9.311255e-01
  2.689738e+01    9.384048e-01
  2.691325e+01    9.530132e-01
  2.692913e+01    9.617791e-01
  2.694501e+01    9.845979e-01
  2.696088e+01    9.783158e-01
  2.697676e+01    9.847627e-01
  2.699263e+01    1.003734e+00
  2.700851e+01    1.032699e+00
  2.702438e+01    1.028295e+00
  2.704026e+01    1.051937e+00
  2.705613e+01    1.099807e+00
  2.707201e+01    1.158052e+00
  2.708789e+01    1.169228e+00
  2.710376e+01    1.225734e+00
  2.711964e+01    1.337151e+00
  2.713551e+01    1.434766e+00
  2.715139e+01    1.550062e+00
  2.716726e+01    1.690002e+00
  2.718314e+01    1.841263e+00
  2.719901e+01    2.029925e+00
  2.721489e+01    2.202307e+00
  2.723077e+01    2.394374e+00
  2.724664e+01    2.499974e+00
  2.726252e+01    2.621974e+00
  2.727839e+01    2.632027e+00
  2.729427e+01    2.618276e+00
  2.731014e+01    2.479527e+00
  2.732602e+01    2.292113e+00
  2.734189e+01    2.056083e+00
  2.735777e+01    1.886047e+00
  2.737365e+01    1.701368e+00
  2.738952e+01    1.561485e+00
  2.740540e+01    1.432753e+00
  2.742127e+01    1.337658e+00
  2.743715e+01    1.288899e+00
  2.745302e+01    1.203802e+00
  2.746890e+01    1.137566e+00
  2.748477e+01    1.093299e+00
  2.750065e+01    1.053144e+00
  2.751653e+01    1.036327e+00
  2.753240e+01    1.024692e+00
  2.754828e+01    1.005976e+00
  2.756415e+01    9.829917e-01
  2.758003e+01    9.483081e-01
  2.759590e+01    9.382300e-01
  2.761178e+01    9.204096e-01
  2.762765e+01    9.008778e-01
  2.764353e+01    8.830464e-01
  2.765941e+01    8.813924e-01
  2.767528e+01    8.861551e-01
  2.769116e+01    8.761030e-01
  2.770703e+01    8.688840e-01
  2.772291e+01    8.640341e-01
  2.773878e+01    8.525953e-01
  2.775466e+01    8.522163e-01
  2.777054e+01    8.550232e-01
  2.778641e+01    8.733026e-01
  2.780229e+01    8.473636e-01
  2.781816e+01    8.501837e-01
  2.783404e+01    8.621525e-01
  2.784991e+01    8.487798e-01
  2.786579e+01    8.291653e-01
  2.788166e+01    8.277993e-01
  2.789754e+01    8.284332e-01
  2.791342e+01    8.126712e-01
  2.792929e+01    8.093805e-01
  2.794517e+01    8.158090e-01
  2.796104e+01    8.204544e-01
  2.797692e+01    8.279671e-01
  2.799279e+01    8.283069e-01
  2.800867e+01    8.287652e-01
  2.802454e+01    8.347040e-01
  2.804042e+01    7.985127e-01
  2.805630e+01    8.084416e-01
  2.807217e+01    8.056557e-01
  2.808805e+01    8.177577e-01
  2.810392e+01    8.211616e-01
  2.811980e+01    8.286992e-01
  2.813567e+01    8.126770e-01
  2.815155e+01    8.005317e-01
  2.816742e+01    7.857671e-01
  2.818330e+01    7.924896e-01
  2.819918e+01    8.042365e-01
  2.821505e+01    8.002107e-01
  2.823093e+01    7.860513e-01
  2.824680e+01    7.804322e-01
  2.826268e+01    7.859553e-01
  2.827855e+01    7.964094e-01
  2.829443e+01    8.075348e-01
  2.831030e+01    8.000653e-01
  2.832618e+01    8.051404e-01
  2.834206e+01    7.879112e-01
  2.835793e+01    7.766421e-01
  2.837381e+01    7.809435e-01
  2.838968e+01    7.755721e-01
  2.840556e+01    7.801471e-01
  2.842143e+01    7.864566e-01
  2.843731e+01    8.019320e-01
  2.845318e+01    7.899511e-01
  2.846906e+01    7.715366e-01
  2.848494e+01    7.811651e-01
  2.850081e+01    8.004266e-01
  2.851669e+01    7.880427e-01
  2.853256e+01    7.770799e-01
  2.854844e+01    7.790233e-01
  2.856431e+01    7.836765e-01
  2.858019e+01    7.859542e-01
  2.859606e+01    7.749558e-01
  2.861194e+01    7.670039e-01
  2.862782e+01    7.802426e-01
  2.864369e+01    7.983643e-01
  2.865957e+01    7.890508e-01
  2.867544e+01    7.747689e-01
  2.869132e+01    7.773587e-01
  2.870719e+01    7.677912e-01
  2.872307e+01    7.737998e-01
  2.873895e+01    7.810994e-01
  2.875482e+01    7.742666e-01
  2.877070e+01    7.673886e-01
  2.878657e+01    7.990480e-01
  2.880245e+01    7.757751e-01
  2.881832e+01    7.815880e-01
  2.883420e+01    7.669023e-01
  2.885007e+01    7.721766e-01
  2.886595e+01    7.851989e-01
  2.888183e+01    7.852055e-01
  2.889770e+01    7.871510e-01
  2.891358e+01    7.616303e-01
  2.892945e+01    7.581153e-01
  2.894533e+01    7.636006e-01
  2.896120e+01    7.527199e-01
  2.897708e+01    7.462527e-01
  2.899295e+01    7.607406e-01
  2.900883e+01    7.851208e-01
  2.902471e+01    7.501652e-01
  2.904058e+01    7.797342e-01
  2.905646e+01    7.709681e-01
  2.907233e+01    7.609082e-01
  2.908821e+01    7.658209e-01
  2.910408e+01    7.660106e-01
  2.911996e+01    7.682849e-01
  2.913583e+01    7.567798e-01
  2.915171e+01    7.391658e-01
  2.916759e+01    7.656180e-01
  2.918346e+01    7.648956e-01
  2.919934e+01    7.690924e-01
  2.921521e+01    7.645687e-01
  2.923109e+01    7.862388e-01
  2.924696e+01    7.691814e-01
  2.926284e+01    7.482736e-01
  2.927871e+01    7.323666e-01
  2.929459e+01    7.449421e-01
  2.931047e+01    7.500302e-01
  2.932634e+01    7.433758e-01
  2.934222e+01    7.416679e-01
  2.935809e+01    7.441005e-01
  2.937397e+01    7.347550e-01
  2.938984e+01    7.440645e-01
  2.940572e+01    7.626632e-01
  2.942159e+01    7.529345e-01
  2.943747e+01    7.588490e-01
  2.945335e+01    7.541211e-01
  2.946922e+01    7.442783e-01
  2.948510e+01    7.545075e-01
  2.950097e+01    7.364193e-01
  2.951685e+01    7.481021e-01
  2.953272e+01    7.545702e-01
  2.954860e+01    7.538227e-01
  2.956447e+01    7.382971e-01
  2.958035e+01    7.507889e-01
  2.959623e+01    7.759618e-01
  2.961210e+01    7.572907e-01
  2.962798e+01    7.367405e-01
  2.964385e+01    7.314958e-01
  2.965973e+01    7.397850e-01
  2.967560e+01    7.354190e-01
  2.969148e+01    7.160466e-01
  2.970736e+01    7.303761e-01
  2.972323e+01    7.415162e-01
  2.973911e+01    7.414901e-01
  2.975498e+01    7.352781e-01
  2.977086e+01    7.320719e-01
  2.978673e+01    7.336404e-01
  2.980261e+01    7.213134e-01
  2.981848e+01    7.104672e-01
  2.983436e+01    7.349691e-01
  2.985024e+01    7.357624e-01
  2.986611e+01    7.258274e-01
  2.988199e+01    7.262939e-01
  2.989786e+01    7.425297e-01
  2.991374e+01    7.242453e-01
  2.992961e+01    7.434987e-01
  2.994549e+01    7.341317e-01
  2.996136e+01    7.427153e-01
  2.997724e+01    7.462034e-01
  2.999312e+01    7.469864e-01
  3.000899e+01    7.521827e-01
  3.002487e+01    7.494325e-01
  3.004074e+01    7.493346e-01
  3.005662e+01    7.822968e-01
  3.007249e+01    7.658829e-01
  3.008837e+01    7.522844e-01
  3.010424e+01    7.392588e-01
  3.012012e+01    7.416281e-01
  3.013600e+01    7.412271e-01
  3.015187e+01    7.400016e-01
  3.016775e+01    7.270342e-01
  3.018362e+01    7.290264e-01
  3.019950e+01    7.435210e-01
  3.021537e+01    7.488403e-01
  3.023125e+01    7.229739e-01
  3.024712e+01    7.251846e-01
  3.026300e+01    7.500183e-01
  3.027888e+01    7.504536e-01
  3.029475e+01    7.436476e-01
  3.031063e+01    7.306525e-01
  3.032650e+01    7.319704e-01
  3.034238e+01    7.330041e-01
  3.035825e+01    7.224905e-01
  3.037413e+01    7.257652e-01
  3.039000e+01    7.197380e-01
  3.040588e+01    7.267529e-01
  3.042176e+01    7.418559e-01
  3.043763e+01    7.343050e-01
  3.045351e+01    7.497963e-01
  3.046938e+01    7.196243e-01
  3.048526e+01    7.092583e-01
  3.050113e+01    7.285361e-01
  3.051701e+01    7.426958e-01
  3.053288e+01    7.418351e-01
  3.054876e+01    7.331987e-01
  3.056464e+01    7.196960e-01
  3.058051e+01    7.364081e-01
  3.059639e+01    7.231289e-01
  3.061226e+01    7.154084e-01
  3.062814e+01    7.393230e-01
  3.064401e+01    7.354615e-01
  3.065989e+01    7.225878e-01
  3.067577e+01    7.163830e-01
  3.069164e+01    7.253422e-01
  3.070752e+01    7.123881e-01
  3.072339e+01    7.391466e-01
  3.073927e+01    7.458764e-01
  3.075514e+01    7.510368e-01
  3.077102e+01    7.695387e-01
  3.078689e+01    7.194813e-01
  3.080277e+01    7.112314e-01
  3.081865e+01    7.219582e-01
  3.083452e+01    7.185715e-01
  3.085040e+01    7.089319e-01
  3.086627e+01    7.198141e-01
  3.088215e+01    7.319158e-01
  3.089802e+01    7.263224e-01
  3.091390e+01    7.299891e-01
  3.092977e+01    7.307797e-01
  3.094565e+01    7.219806e-01
  3.096153e+01    7.282816e-01
  3.097740e+01    7.418559e-01
  3.099328e+01    7.511801e-01
  3.100915e+01    7.299228e-01
  3.102503e+01    7.426963e-01
  3.104090e+01    7.492800e-01
  3.105678e+01    7.461784e-01
  3.107265e+01    7.309784e-01
  3.108853e+01    7.254267e-01
  3.110441e+01    7.371398e-01
  3.112028e+01    7.456988e-01
  3.113616e+01    7.435212e-01
  3.115203e+01    7.403924e-01
  3.116791e+01    7.684536e-01
  3.118378e+01    7.574466e-01
  3.119966e+01    7.383426e-01
  3.121553e+01    7.432124e-01
  3.123141e+01    7.506399e-01
  3.124729e+01    7.475774e-01
  3.126316e+01    7.446762e-01
  3.127904e+01    7.350479e-01
  3.129491e+01    7.404361e-01
  3.131079e+01    7.661734e-01
  3.132666e+01    7.572386e-01
  3.134254e+01    7.645904e-01
  3.135841e+01    7.536767e-01
  3.137429e+01    7.577761e-01
  3.139017e+01    7.722362e-01
  3.140604e+01    7.858691e-01
  3.142192e+01    7.708025e-01
  3.143779e+01    7.742329e-01
  3.145367e+01    7.665381e-01
  3.146954e+01    7.762285e-01
  3.148542e+01    7.752870e-01
  3.150129e+01    7.731826e-01
  3.151717e+01    7.883565e-01
  3.153305e+01    7.903461e-01
  3.154892e+01    8.102257e-01
  3.156480e+01    8.004535e-01
  3.158067e+01    7.932145e-01
  3.159655e+01    8.243403e-01
  3.161242e+01    8.188818e-01
  3.162830e+01    8.261487e-01
  3.164418e+01    8.495170e-01
  3.166005e+01    8.594067e-01
  3.167593e+01    8.873678e-01
  3.169180e+01    8.939322e-01
  3.170768e+01    9.025996e-01
  3.172355e+01    9.372064e-01
  3.173943e+01    9.777687e-01
  3.175530e+01    1.009140e+00
  3.177118e+01    1.053362e+00
  3.178706e+01    1.144442e+00
  3.180293e+01    1.173282e+00
  3.181881e+01    1.259339e+00
  3.183468e+01    1.383509e+00
  3.185056e+01    1.506153e+00
  3.186643e+01    1.615246e+00
  3.188231e+01    1.825620e+00
  3.189818e+01    1.989501e+00
  3.191406e+01    2.209237e+00
  3.192994e+01    2.349058e+00
  3.194581e+01    2.517899e+00
  3.196169e+01    2.593186e+00
  3.197756e+01    2.612650e+00
  3.199344e+01    2.539032e+00
  3.200931e+01    2.461346e+00
  3.202519e+01    2.278218e+00
  3.204106e+01    2.104042e+00
  3.205694e+01    1.905294e+00
  3.207282e+01    1.700405e+00
  3.208869e+01    1.489114e+00
  3.210457e+01    1.362747e+00
  3.212044e+01    1.294194e+00
  3.213632e+01    1.175028e+00
  3.215219e+01    1.114864e+00
  3.216807e+01    1.059934e+00
  3.218394e+01    1.031599e+00
  3.219982e+01    9.720811e-01
  3.221570e+01    9.179209e-01
  3.223157e+01    9.112852e-01
  3.224745e+01    8.975056e-01
  3.226332e+01    8.823349e-01
  3.227920e+01    8.583096e-01
  3.229507e+01    8.342010e-01
  3.231095e+01    8.386047e-01
  3.232682e+01    8.078372e-01
  3.234270e+01    7.975975e-01
  3.235858e+01    7.875120e-01
  3.237445e+01    7.978542e-01
  3.239033e+01    7.561676e-01
  3.240620e+01    7.950947e-01
  3.242208e+01    7.888583e-01
  3.243795e+01    7.667143e-01
  3.245383e+01    7.597497e-01
  3.246970e+01    7.557644e-01
  3.248558e+01    7.589473e-01
  3.250146e+01    7.348081e-01
  3.251733e+01    7.411119e-01
  3.253321e+01    7.513935e-01
  3.254908e+01    7.470537e-01
