# == pyFAI calibration ==
# Distance Sample to Detector: 0.3999999939076516 m
# PONI: 9.750e-02, 1.135e-01 m
# Rotations: -0.000175 0.000000 -0.000000 rad
# 
# == Fit2d calibration ==
# Distance Sample-beamCenter: 400.000 mm
# Center: x=1514.000, y=1300.000 pix
# Tilt: 0.010 deg  TiltPlanRot: 0.010 deg
# 
# Detector Detector	 Spline= None	 PixelSize= 7.500e-05, 7.500e-05 m
#    Detector has a mask: False 
#    Detector has a dark current: False 
#    detector has a flat field: False 
# 
# Wavelength: 6.888e-11 m
# Mask applied: user provided
# Dark current applied: False
# Flat field applied: False
# Polarization factor: 0.99
# Normalization factor: 1.0
# --> /home/myspot/data/2024_07_Rosario/Ru-CGO-ex/2024-07-27_002_Ru-CGO-ex_Activtation_ramp_000002_data_000102.dat
#       q_nm^-1             I 
  2.003187e-02    0.000000e+00
  3.590745e-02    0.000000e+00
  5.178302e-02    4.781393e-02
  6.765859e-02    1.759619e-01
  8.353417e-02    1.501248e-01
  9.940974e-02    1.891460e-02
  1.152853e-01    6.907703e-02
  1.311609e-01    5.197033e-02
  1.470365e-01    4.448052e-03
  1.629120e-01    4.446601e-02
  1.787876e-01    4.552314e-02
  1.946632e-01    1.149345e-02
  2.105388e-01    2.018963e-02
  2.264143e-01    2.817377e-02
  2.422899e-01    5.941473e-02
  2.581655e-01    3.759943e-02
  2.740411e-01    2.917520e-02
  2.899166e-01    1.123745e-02
  3.057922e-01    2.524776e-02
  3.216678e-01    4.319603e-02
  3.375433e-01    2.851858e-02
  3.534189e-01    4.299662e-02
  3.692945e-01    2.109728e-02
  3.851701e-01    1.842850e-02
  4.010456e-01    2.373429e-02
  4.169212e-01    1.095000e-02
  4.327968e-01    1.967119e-02
  4.486724e-01    1.982456e-02
  4.645479e-01    2.640185e-02
  4.804235e-01    2.265102e-02
  4.962991e-01    8.959222e-03
  5.121747e-01    1.010672e-02
  5.280502e-01    3.833587e-02
  5.439258e-01    2.063529e-02
  5.598014e-01    1.947278e-02
  5.756770e-01    3.430966e-02
  5.915525e-01    4.483603e-02
  6.074281e-01    4.266260e-02
  6.233037e-01    1.431738e-02
  6.391793e-01    3.810089e-02
  6.550548e-01    5.313985e-02
  6.709304e-01    5.104513e-02
  6.868060e-01    1.449459e-02
  7.026815e-01    2.866772e-02
  7.185571e-01    3.458773e-02
  7.344327e-01    7.130988e-02
  7.503083e-01    1.018879e-01
  7.661838e-01    7.291066e-02
  7.820594e-01    1.175757e-01
  7.979350e-01    1.634857e-01
  8.138106e-01    2.227612e-01
  8.296861e-01    2.555823e-01
  8.455617e-01    2.720974e-01
  8.614373e-01    3.352970e-01
  8.773129e-01    3.857451e-01
  8.931884e-01    4.773501e-01
  9.090640e-01    5.838751e-01
  9.249396e-01    6.048355e-01
  9.408152e-01    6.595852e-01
  9.566907e-01    7.610682e-01
  9.725663e-01    8.292455e-01
  9.884419e-01    9.639062e-01
  1.004317e+00    1.031791e+00
  1.020193e+00    1.084468e+00
  1.036069e+00    1.128500e+00
  1.051944e+00    1.156973e+00
  1.067820e+00    1.231313e+00
  1.083695e+00    1.240187e+00
  1.099571e+00    1.337949e+00
  1.115446e+00    1.300806e+00
  1.131322e+00    1.275023e+00
  1.147198e+00    1.418670e+00
  1.163073e+00    1.551243e+00
  1.178949e+00    1.575484e+00
  1.194824e+00    1.705229e+00
  1.210700e+00    1.809898e+00
  1.226575e+00    2.015295e+00
  1.242451e+00    2.198820e+00
  1.258327e+00    2.351372e+00
  1.274202e+00    2.436976e+00
  1.290078e+00    2.538962e+00
  1.305953e+00    2.468603e+00
  1.321829e+00    2.473707e+00
  1.337705e+00    2.475527e+00
  1.353580e+00    2.597250e+00
  1.369456e+00    2.723561e+00
  1.385331e+00    2.641608e+00
  1.401207e+00    2.624441e+00
  1.417082e+00    2.742915e+00
  1.432958e+00    2.789238e+00
  1.448834e+00    2.811541e+00
  1.464709e+00    2.678520e+00
  1.480585e+00    2.832513e+00
  1.496460e+00    2.876645e+00
  1.512336e+00    2.783467e+00
  1.528211e+00    2.929470e+00
  1.544087e+00    2.950707e+00
  1.559963e+00    2.923131e+00
  1.575838e+00    2.985117e+00
  1.591714e+00    2.860435e+00
  1.607589e+00    2.904430e+00
  1.623465e+00    2.882364e+00
  1.639340e+00    2.765690e+00
  1.655216e+00    2.755896e+00
  1.671092e+00    2.764758e+00
  1.686967e+00    2.759954e+00
  1.702843e+00    2.794718e+00
  1.718718e+00    2.748262e+00
  1.734594e+00    2.862411e+00
  1.750469e+00    2.874702e+00
  1.766345e+00    2.904432e+00
  1.782221e+00    2.810664e+00
  1.798096e+00    2.816419e+00
  1.813972e+00    2.776363e+00
  1.829847e+00    2.731691e+00
  1.845723e+00    2.674083e+00
  1.861598e+00    2.677684e+00
  1.877474e+00    2.667574e+00
  1.893350e+00    2.745436e+00
  1.909225e+00    2.741767e+00
  1.925101e+00    2.838420e+00
  1.940976e+00    2.790405e+00
  1.956852e+00    2.699149e+00
  1.972727e+00    2.611184e+00
  1.988603e+00    2.706461e+00
  2.004479e+00    2.766850e+00
  2.020354e+00    2.734409e+00
  2.036230e+00    2.784372e+00
  2.052105e+00    2.745790e+00
  2.067981e+00    2.591711e+00
  2.083856e+00    2.564381e+00
  2.099732e+00    2.742047e+00
  2.115608e+00    2.761210e+00
  2.131483e+00    2.646736e+00
  2.147359e+00    2.711132e+00
  2.163234e+00    2.690746e+00
  2.179110e+00    2.750407e+00
  2.194985e+00    2.765285e+00
  2.210861e+00    2.762212e+00
  2.226737e+00    2.857126e+00
  2.242612e+00    2.795559e+00
  2.258488e+00    2.751787e+00
  2.274363e+00    2.714671e+00
  2.290239e+00    2.666454e+00
  2.306115e+00    2.795847e+00
  2.321990e+00    2.656752e+00
  2.337866e+00    2.699607e+00
  2.353741e+00    2.824169e+00
  2.369617e+00    2.778005e+00
  2.385492e+00    2.712959e+00
  2.401368e+00    2.704237e+00
  2.417244e+00    2.737782e+00
  2.433119e+00    2.805347e+00
  2.448995e+00    2.703467e+00
  2.464870e+00    2.705523e+00
  2.480746e+00    2.708939e+00
  2.496621e+00    2.731245e+00
  2.512497e+00    2.721164e+00
  2.528373e+00    2.707539e+00
  2.544248e+00    2.684787e+00
  2.560124e+00    2.727889e+00
  2.575999e+00    2.721235e+00
  2.591875e+00    2.729714e+00
  2.607750e+00    2.742611e+00
  2.623626e+00    2.732985e+00
  2.639502e+00    2.666690e+00
  2.655377e+00    2.693458e+00
  2.671253e+00    2.730633e+00
  2.687128e+00    2.794406e+00
  2.703004e+00    2.840574e+00
  2.718879e+00    2.814506e+00
  2.734755e+00    2.864601e+00
  2.750631e+00    2.763019e+00
  2.766506e+00    2.834254e+00
  2.782382e+00    2.804991e+00
  2.798257e+00    2.698081e+00
  2.814133e+00    2.785809e+00
  2.830008e+00    2.808492e+00
  2.845884e+00    2.763634e+00
  2.861760e+00    2.761626e+00
  2.877635e+00    2.757025e+00
  2.893511e+00    2.818831e+00
  2.909386e+00    2.851126e+00
  2.925262e+00    2.822242e+00
  2.941137e+00    2.896107e+00
  2.957013e+00    2.894073e+00
  2.972889e+00    2.872876e+00
  2.988764e+00    2.850689e+00
  3.004640e+00    2.867598e+00
  3.020515e+00    2.913298e+00
  3.036391e+00    2.891740e+00
  3.052266e+00    2.821512e+00
  3.068142e+00    2.887964e+00
  3.084018e+00    2.813046e+00
  3.099893e+00    2.744662e+00
  3.115769e+00    2.844592e+00
  3.131644e+00    2.816843e+00
  3.147520e+00    2.895479e+00
  3.163395e+00    2.852845e+00
  3.179271e+00    2.812311e+00
  3.195147e+00    2.835246e+00
  3.211022e+00    2.909437e+00
  3.226898e+00    2.903873e+00
  3.242773e+00    2.841990e+00
  3.258649e+00    2.836300e+00
  3.274525e+00    2.845673e+00
  3.290400e+00    2.939261e+00
  3.306276e+00    2.960538e+00
  3.322151e+00    2.884656e+00
  3.338027e+00    2.965491e+00
  3.353902e+00    2.964531e+00
  3.369778e+00    2.937174e+00
  3.385654e+00    2.893028e+00
  3.401529e+00    2.885731e+00
  3.417405e+00    2.885885e+00
  3.433280e+00    2.808173e+00
  3.449156e+00    2.882485e+00
  3.465031e+00    2.904366e+00
  3.480907e+00    2.993645e+00
  3.496783e+00    3.027062e+00
  3.512658e+00    2.800549e+00
  3.528534e+00    2.817297e+00
  3.544409e+00    2.994977e+00
  3.560285e+00    3.002865e+00
  3.576160e+00    2.993738e+00
  3.592036e+00    2.932619e+00
  3.607912e+00    2.886323e+00
  3.623787e+00    2.889133e+00
  3.639663e+00    2.931262e+00
  3.655538e+00    2.925713e+00
  3.671414e+00    2.967542e+00
  3.687289e+00    2.915627e+00
  3.703165e+00    2.858560e+00
  3.719041e+00    2.967438e+00
  3.734916e+00    2.919362e+00
  3.750792e+00    2.915726e+00
  3.766667e+00    2.883642e+00
  3.782543e+00    2.842187e+00
  3.798418e+00    2.922058e+00
  3.814294e+00    2.946064e+00
  3.830170e+00    2.912656e+00
  3.846045e+00    2.938485e+00
  3.861921e+00    2.997534e+00
  3.877796e+00    3.025397e+00
  3.893672e+00    3.008702e+00
  3.909547e+00    2.970165e+00
  3.925423e+00    2.936084e+00
  3.941299e+00    2.944821e+00
  3.957174e+00    3.032938e+00
  3.973050e+00    3.072336e+00
  3.988925e+00    2.981429e+00
  4.004801e+00    2.962113e+00
  4.020676e+00    3.029679e+00
  4.036552e+00    3.035969e+00
  4.052428e+00    2.998545e+00
  4.068303e+00    3.002978e+00
  4.084179e+00    2.954471e+00
  4.100054e+00    3.045490e+00
  4.115930e+00    2.961405e+00
  4.131806e+00    2.998657e+00
  4.147681e+00    3.025069e+00
  4.163557e+00    2.982777e+00
  4.179432e+00    3.001140e+00
  4.195308e+00    3.042199e+00
  4.211183e+00    3.072459e+00
  4.227059e+00    3.012144e+00
  4.242935e+00    2.985245e+00
  4.258810e+00    2.987653e+00
  4.274686e+00    2.963975e+00
  4.290561e+00    2.998792e+00
  4.306437e+00    3.023614e+00
  4.322312e+00    3.032186e+00
  4.338188e+00    3.048655e+00
  4.354064e+00    3.050999e+00
  4.369939e+00    3.040945e+00
  4.385815e+00    3.005350e+00
  4.401690e+00    2.975392e+00
  4.417566e+00    3.007191e+00
  4.433441e+00    3.042630e+00
  4.449317e+00    3.063994e+00
  4.465193e+00    3.042648e+00
  4.481068e+00    3.009363e+00
  4.496944e+00    2.883852e+00
  4.512819e+00    2.979477e+00
  4.528695e+00    3.004182e+00
  4.544570e+00    3.019364e+00
  4.560446e+00    3.011466e+00
  4.576322e+00    3.036090e+00
  4.592197e+00    3.045293e+00
  4.608073e+00    3.054775e+00
  4.623948e+00    3.020543e+00
  4.639824e+00    3.007697e+00
  4.655699e+00    3.063475e+00
  4.671575e+00    3.034265e+00
  4.687451e+00    3.045585e+00
  4.703326e+00    3.043149e+00
  4.719202e+00    3.029196e+00
  4.735077e+00    3.075870e+00
  4.750953e+00    3.080310e+00
  4.766828e+00    3.138045e+00
  4.782704e+00    3.092286e+00
  4.798580e+00    3.002226e+00
  4.814455e+00    3.013837e+00
  4.830331e+00    3.041435e+00
  4.846206e+00    3.102831e+00
  4.862082e+00    3.031214e+00
  4.877957e+00    3.051480e+00
  4.893833e+00    3.130721e+00
  4.909709e+00    3.058183e+00
  4.925584e+00    3.015844e+00
  4.941460e+00    3.016892e+00
  4.957335e+00    3.002626e+00
  4.973211e+00    3.050779e+00
  4.989086e+00    3.083487e+00
  5.004962e+00    3.079507e+00
  5.020838e+00    3.018305e+00
  5.036713e+00    3.026285e+00
  5.052589e+00    3.035290e+00
  5.068464e+00    3.088869e+00
  5.084340e+00    3.085816e+00
  5.100216e+00    3.029397e+00
  5.116091e+00    3.062892e+00
  5.131967e+00    3.047038e+00
  5.147842e+00    3.109880e+00
  5.163718e+00    3.045078e+00
  5.179593e+00    3.070615e+00
  5.195469e+00    3.074665e+00
  5.211345e+00    3.097580e+00
  5.227220e+00    3.111989e+00
  5.243096e+00    3.120576e+00
  5.258971e+00    3.069043e+00
  5.274847e+00    3.062246e+00
  5.290722e+00    3.057969e+00
  5.306598e+00    3.074420e+00
  5.322474e+00    3.182557e+00
  5.338349e+00    3.128236e+00
  5.354225e+00    3.143230e+00
  5.370100e+00    3.075671e+00
  5.385976e+00    3.011208e+00
  5.401851e+00    3.047408e+00
  5.417727e+00    3.040362e+00
  5.433603e+00    3.088584e+00
  5.449478e+00    3.041872e+00
  5.465354e+00    3.042029e+00
  5.481229e+00    3.041640e+00
  5.497105e+00    3.054956e+00
  5.512980e+00    3.120068e+00
  5.528856e+00    3.125611e+00
  5.544732e+00    3.049806e+00
  5.560607e+00    3.079276e+00
  5.576483e+00    3.049023e+00
  5.592358e+00    2.988923e+00
  5.608234e+00    2.985899e+00
  5.624109e+00    2.975752e+00
  5.639985e+00    2.980578e+00
  5.655861e+00    2.975492e+00
  5.671736e+00    3.014211e+00
  5.687612e+00    3.079781e+00
  5.703487e+00    3.070689e+00
  5.719363e+00    3.037712e+00
  5.735238e+00    3.032511e+00
  5.751114e+00    3.057998e+00
  5.766990e+00    3.027144e+00
  5.782865e+00    3.016921e+00
  5.798741e+00    3.061310e+00
  5.814616e+00    3.070014e+00
  5.830492e+00    3.035640e+00
  5.846367e+00    3.011184e+00
  5.862243e+00    2.905699e+00
  5.878119e+00    2.906493e+00
  5.893994e+00    2.970850e+00
  5.909870e+00    3.052095e+00
  5.925745e+00    2.992927e+00
  5.941621e+00    3.035877e+00
  5.957497e+00    2.984483e+00
  5.973372e+00    2.962640e+00
  5.989248e+00    2.918122e+00
  6.005123e+00    2.939247e+00
  6.020999e+00    2.935699e+00
  6.036874e+00    3.013284e+00
  6.052750e+00    3.033831e+00
  6.068626e+00    2.986200e+00
  6.084501e+00    2.995376e+00
  6.100377e+00    3.021402e+00
  6.116252e+00    3.064486e+00
  6.132128e+00    3.080470e+00
  6.148003e+00    3.053583e+00
  6.163879e+00    3.057481e+00
  6.179755e+00    2.947080e+00
  6.195630e+00    2.948934e+00
  6.211506e+00    3.039594e+00
  6.227381e+00    3.021080e+00
  6.243257e+00    2.988645e+00
  6.259132e+00    3.035579e+00
  6.275008e+00    2.950263e+00
  6.290884e+00    2.914212e+00
  6.306759e+00    2.975248e+00
  6.322635e+00    3.010074e+00
  6.338510e+00    3.029672e+00
  6.354386e+00    3.029079e+00
  6.370261e+00    3.021586e+00
  6.386137e+00    2.970817e+00
  6.402013e+00    3.005745e+00
  6.417888e+00    3.014776e+00
  6.433764e+00    2.972835e+00
  6.449639e+00    2.984950e+00
  6.465515e+00    3.014116e+00
  6.481390e+00    3.000026e+00
  6.497266e+00    2.997140e+00
  6.513142e+00    3.024073e+00
  6.529017e+00    2.982362e+00
  6.544893e+00    3.011640e+00
  6.560768e+00    2.959543e+00
  6.576644e+00    2.933501e+00
  6.592519e+00    3.010714e+00
  6.608395e+00    2.909594e+00
  6.624271e+00    2.920554e+00
  6.640146e+00    2.951929e+00
  6.656022e+00    2.976803e+00
  6.671897e+00    3.024966e+00
  6.687773e+00    2.991118e+00
  6.703648e+00    3.047403e+00
  6.719524e+00    3.007357e+00
  6.735400e+00    2.974922e+00
  6.751275e+00    3.022259e+00
  6.767151e+00    3.006098e+00
  6.783026e+00    3.015257e+00
  6.798902e+00    3.043473e+00
  6.814777e+00    2.972490e+00
  6.830653e+00    3.011585e+00
  6.846529e+00    3.031745e+00
  6.862404e+00    3.004817e+00
  6.878280e+00    2.941750e+00
  6.894155e+00    2.973874e+00
  6.910031e+00    2.985113e+00
  6.925907e+00    2.985946e+00
  6.941782e+00    2.953258e+00
  6.957658e+00    2.924457e+00
  6.973533e+00    2.923707e+00
  6.989409e+00    2.956503e+00
  7.005284e+00    2.973314e+00
  7.021160e+00    2.954328e+00
  7.037036e+00    2.944050e+00
  7.052911e+00    2.961665e+00
  7.068787e+00    2.972622e+00
  7.084662e+00    2.999120e+00
  7.100538e+00    2.942511e+00
  7.116413e+00    2.925344e+00
  7.132289e+00    2.921686e+00
  7.148165e+00    2.978785e+00
  7.164040e+00    3.051527e+00
  7.179916e+00    2.985451e+00
  7.195791e+00    2.985233e+00
  7.211667e+00    3.026592e+00
  7.227542e+00    2.942743e+00
  7.243418e+00    2.924375e+00
  7.259294e+00    2.923443e+00
  7.275169e+00    2.944195e+00
  7.291045e+00    2.929939e+00
  7.306920e+00    2.931317e+00
  7.322796e+00    2.953528e+00
  7.338671e+00    2.994862e+00
  7.354547e+00    3.000405e+00
  7.370423e+00    2.979922e+00
  7.386298e+00    2.931674e+00
  7.402174e+00    2.887986e+00
  7.418049e+00    2.934729e+00
  7.433925e+00    2.917025e+00
  7.449800e+00    2.909639e+00
  7.465676e+00    2.933796e+00
  7.481552e+00    2.881962e+00
  7.497427e+00    2.907694e+00
  7.513303e+00    2.911508e+00
  7.529178e+00    2.915210e+00
  7.545054e+00    2.916240e+00
  7.560929e+00    2.908710e+00
  7.576805e+00    2.831837e+00
  7.592681e+00    2.840558e+00
  7.608556e+00    2.941086e+00
  7.624432e+00    2.922982e+00
  7.640307e+00    2.892890e+00
  7.656183e+00    2.917864e+00
  7.672058e+00    2.891690e+00
  7.687934e+00    2.899053e+00
  7.703810e+00    2.863642e+00
  7.719685e+00    2.894552e+00
  7.735561e+00    2.911069e+00
  7.751436e+00    2.937745e+00
  7.767312e+00    2.999062e+00
  7.783187e+00    2.960208e+00
  7.799063e+00    2.903377e+00
  7.814939e+00    2.984452e+00
  7.830814e+00    2.897624e+00
  7.846690e+00    2.919495e+00
  7.862565e+00    2.910566e+00
  7.878441e+00    2.916352e+00
  7.894317e+00    2.843857e+00
  7.910192e+00    2.816657e+00
  7.926068e+00    2.873085e+00
  7.941943e+00    2.896745e+00
  7.957819e+00    2.853042e+00
  7.973694e+00    2.838119e+00
  7.989570e+00    2.859431e+00
  8.005446e+00    2.935610e+00
  8.021321e+00    2.926347e+00
  8.037197e+00    2.913795e+00
  8.053072e+00    2.902916e+00
  8.068948e+00    2.880467e+00
  8.084823e+00    2.886463e+00
  8.100699e+00    2.907446e+00
  8.116575e+00    2.912054e+00
  8.132450e+00    2.899453e+00
  8.148326e+00    2.957892e+00
  8.164201e+00    2.949866e+00
  8.180077e+00    2.922977e+00
  8.195952e+00    2.908427e+00
  8.211828e+00    2.898855e+00
  8.227704e+00    2.890840e+00
  8.243579e+00    3.007222e+00
  8.259455e+00    2.956993e+00
  8.275330e+00    2.873912e+00
  8.291206e+00    2.856125e+00
  8.307081e+00    2.900301e+00
  8.322957e+00    2.883713e+00
  8.338833e+00    2.903231e+00
  8.354708e+00    2.905007e+00
  8.370584e+00    2.874354e+00
  8.386459e+00    2.816487e+00
  8.402335e+00    2.849876e+00
  8.418210e+00    2.853744e+00
  8.434086e+00    2.767866e+00
  8.449962e+00    2.851929e+00
  8.465837e+00    2.868956e+00
  8.481713e+00    2.885648e+00
  8.497588e+00    2.824168e+00
  8.513464e+00    2.812896e+00
  8.529339e+00    2.833064e+00
  8.545215e+00    2.863036e+00
  8.561091e+00    2.857008e+00
  8.576966e+00    2.837365e+00
  8.592842e+00    2.803754e+00
  8.608717e+00    2.796946e+00
  8.624593e+00    2.831170e+00
  8.640468e+00    2.814787e+00
  8.656344e+00    2.887614e+00
  8.672220e+00    2.875182e+00
  8.688095e+00    2.843382e+00
  8.703971e+00    2.851042e+00
  8.719846e+00    2.818776e+00
  8.735722e+00    2.723118e+00
  8.751598e+00    2.752741e+00
  8.767473e+00    2.772901e+00
  8.783349e+00    2.762869e+00
  8.799224e+00    2.818036e+00
  8.815100e+00    2.816863e+00
  8.830975e+00    2.757081e+00
  8.846851e+00    2.770970e+00
  8.862727e+00    2.774516e+00
  8.878602e+00    2.781267e+00
  8.894478e+00    2.781109e+00
  8.910353e+00    2.762412e+00
  8.926229e+00    2.698302e+00
  8.942104e+00    2.767339e+00
  8.957980e+00    2.781363e+00
  8.973856e+00    2.836679e+00
  8.989731e+00    2.774325e+00
  9.005607e+00    2.815540e+00
  9.021482e+00    2.777623e+00
  9.037358e+00    2.737506e+00
  9.053233e+00    2.772427e+00
  9.069109e+00    2.741884e+00
  9.084985e+00    2.729316e+00
  9.100860e+00    2.710241e+00
  9.116736e+00    2.778611e+00
  9.132611e+00    2.795819e+00
  9.148487e+00    2.802472e+00
  9.164362e+00    2.788644e+00
  9.180238e+00    2.812348e+00
  9.196114e+00    2.749006e+00
  9.211989e+00    2.732819e+00
  9.227865e+00    2.770327e+00
  9.243740e+00    2.736231e+00
  9.259616e+00    2.804765e+00
  9.275491e+00    2.766655e+00
  9.291367e+00    2.731350e+00
  9.307243e+00    2.724592e+00
  9.323118e+00    2.696957e+00
  9.338994e+00    2.716875e+00
  9.354869e+00    2.741519e+00
  9.370745e+00    2.737785e+00
  9.386620e+00    2.707331e+00
  9.402496e+00    2.709573e+00
  9.418372e+00    2.751133e+00
  9.434247e+00    2.734792e+00
  9.450123e+00    2.727811e+00
  9.465998e+00    2.693976e+00
  9.481874e+00    2.725384e+00
  9.497749e+00    2.714297e+00
  9.513625e+00    2.754775e+00
  9.529501e+00    2.783542e+00
  9.545376e+00    2.797217e+00
  9.561252e+00    2.685605e+00
  9.577127e+00    2.610092e+00
  9.593003e+00    2.684031e+00
  9.608878e+00    2.747898e+00
  9.624754e+00    2.696244e+00
  9.640630e+00    2.659830e+00
  9.656505e+00    2.694909e+00
  9.672381e+00    2.678992e+00
  9.688256e+00    2.696731e+00
  9.704132e+00    2.687291e+00
  9.720008e+00    2.682257e+00
  9.735883e+00    2.770646e+00
  9.751759e+00    2.710985e+00
  9.767634e+00    2.661840e+00
  9.783510e+00    2.629792e+00
  9.799385e+00    2.625620e+00
  9.815261e+00    2.690166e+00
  9.831137e+00    2.662082e+00
  9.847012e+00    2.593244e+00
  9.862888e+00    2.658672e+00
  9.878763e+00    2.678806e+00
  9.894639e+00    2.636245e+00
  9.910514e+00    2.640596e+00
  9.926390e+00    2.635794e+00
  9.942266e+00    2.621964e+00
  9.958141e+00    2.653411e+00
  9.974017e+00    2.648111e+00
  9.989892e+00    2.625237e+00
  1.000577e+01    2.648391e+00
  1.002164e+01    2.645350e+00
  1.003752e+01    2.650635e+00
  1.005339e+01    2.637230e+00
  1.006927e+01    2.590262e+00
  1.008515e+01    2.638820e+00
  1.010102e+01    2.657101e+00
  1.011690e+01    2.658388e+00
  1.013277e+01    2.667839e+00
  1.014865e+01    2.624176e+00
  1.016452e+01    2.564626e+00
  1.018040e+01    2.595387e+00
  1.019627e+01    2.604537e+00
  1.021215e+01    2.583850e+00
  1.022803e+01    2.578543e+00
  1.024390e+01    2.564548e+00
  1.025978e+01    2.575612e+00
  1.027565e+01    2.577697e+00
  1.029153e+01    2.553293e+00
  1.030740e+01    2.591603e+00
  1.032328e+01    2.590964e+00
  1.033915e+01    2.580390e+00
  1.035503e+01    2.498719e+00
  1.037091e+01    2.543940e+00
  1.038678e+01    2.595235e+00
  1.040266e+01    2.558502e+00
  1.041853e+01    2.530982e+00
  1.043441e+01    2.514351e+00
  1.045028e+01    2.537030e+00
  1.046616e+01    2.603292e+00
  1.048204e+01    2.562141e+00
  1.049791e+01    2.565010e+00
  1.051379e+01    2.572438e+00
  1.052966e+01    2.565938e+00
  1.054554e+01    2.574986e+00
  1.056141e+01    2.526145e+00
  1.057729e+01    2.577427e+00
  1.059316e+01    2.583691e+00
  1.060904e+01    2.548554e+00
  1.062492e+01    2.545434e+00
  1.064079e+01    2.546531e+00
  1.065667e+01    2.535316e+00
  1.067254e+01    2.579024e+00
  1.068842e+01    2.527181e+00
  1.070429e+01    2.516203e+00
  1.072017e+01    2.532092e+00
  1.073604e+01    2.536460e+00
  1.075192e+01    2.531186e+00
  1.076780e+01    2.546559e+00
  1.078367e+01    2.491862e+00
  1.079955e+01    2.473067e+00
  1.081542e+01    2.499678e+00
  1.083130e+01    2.504015e+00
  1.084717e+01    2.516814e+00
  1.086305e+01    2.504420e+00
  1.087892e+01    2.466786e+00
  1.089480e+01    2.475103e+00
  1.091068e+01    2.506634e+00
  1.092655e+01    2.506663e+00
  1.094243e+01    2.503287e+00
  1.095830e+01    2.463480e+00
  1.097418e+01    2.475300e+00
  1.099005e+01    2.468684e+00
  1.100593e+01    2.463884e+00
  1.102180e+01    2.507091e+00
  1.103768e+01    2.496468e+00
  1.105356e+01    2.473741e+00
  1.106943e+01    2.446854e+00
  1.108531e+01    2.435433e+00
  1.110118e+01    2.474790e+00
  1.111706e+01    2.460981e+00
  1.113293e+01    2.410721e+00
  1.114881e+01    2.414714e+00
  1.116468e+01    2.453474e+00
  1.118056e+01    2.441934e+00
  1.119644e+01    2.433471e+00
  1.121231e+01    2.422559e+00
  1.122819e+01    2.422251e+00
  1.124406e+01    2.453122e+00
  1.125994e+01    2.440867e+00
  1.127581e+01    2.411416e+00
  1.129169e+01    2.404678e+00
  1.130756e+01    2.411812e+00
  1.132344e+01    2.390678e+00
  1.133932e+01    2.372548e+00
  1.135519e+01    2.418559e+00
  1.137107e+01    2.408096e+00
  1.138694e+01    2.412318e+00
  1.140282e+01    2.430120e+00
  1.141869e+01    2.440960e+00
  1.143457e+01    2.362930e+00
  1.145045e+01    2.331186e+00
  1.146632e+01    2.356912e+00
  1.148220e+01    2.363930e+00
  1.149807e+01    2.378740e+00
  1.151395e+01    2.349682e+00
  1.152982e+01    2.354625e+00
  1.154570e+01    2.380457e+00
  1.156157e+01    2.368183e+00
  1.157745e+01    2.346008e+00
  1.159333e+01    2.342342e+00
  1.160920e+01    2.326541e+00
  1.162508e+01    2.316020e+00
  1.164095e+01    2.372926e+00
  1.165683e+01    2.364347e+00
  1.167270e+01    2.310412e+00
  1.168858e+01    2.329088e+00
  1.170445e+01    2.330410e+00
  1.172033e+01    2.341588e+00
  1.173621e+01    2.319686e+00
  1.175208e+01    2.329843e+00
  1.176796e+01    2.346227e+00
  1.178383e+01    2.375786e+00
  1.179971e+01    2.367915e+00
  1.181558e+01    2.347836e+00
  1.183146e+01    2.358223e+00
  1.184733e+01    2.350857e+00
  1.186321e+01    2.359031e+00
  1.187909e+01    2.345999e+00
  1.189496e+01    2.288679e+00
  1.191084e+01    2.279953e+00
  1.192671e+01    2.237314e+00
  1.194259e+01    2.303520e+00
  1.195846e+01    2.298864e+00
  1.197434e+01    2.274343e+00
  1.199021e+01    2.308523e+00
  1.200609e+01    2.296734e+00
  1.202197e+01    2.279396e+00
  1.203784e+01    2.292179e+00
  1.205372e+01    2.330943e+00
  1.206959e+01    2.290710e+00
  1.208547e+01    2.280160e+00
  1.210134e+01    2.306786e+00
  1.211722e+01    2.318523e+00
  1.213309e+01    2.294500e+00
  1.214897e+01    2.285846e+00
  1.216485e+01    2.280929e+00
  1.218072e+01    2.263555e+00
  1.219660e+01    2.315686e+00
  1.221247e+01    2.297436e+00
  1.222835e+01    2.284999e+00
  1.224422e+01    2.289754e+00
  1.226010e+01    2.315878e+00
  1.227597e+01    2.274723e+00
  1.229185e+01    2.308513e+00
  1.230773e+01    2.288671e+00
  1.232360e+01    2.316604e+00
  1.233948e+01    2.343544e+00
  1.235535e+01    2.311491e+00
  1.237123e+01    2.301929e+00
  1.238710e+01    2.276067e+00
  1.240298e+01    2.256751e+00
  1.241886e+01    2.266776e+00
  1.243473e+01    2.319317e+00
  1.245061e+01    2.320121e+00
  1.246648e+01    2.343583e+00
  1.248236e+01    2.364174e+00
  1.249823e+01    2.310436e+00
  1.251411e+01    2.333448e+00
  1.252998e+01    2.336468e+00
  1.254586e+01    2.341966e+00
  1.256174e+01    2.351115e+00
  1.257761e+01    2.346752e+00
  1.259349e+01    2.315093e+00
  1.260936e+01    2.321902e+00
  1.262524e+01    2.344254e+00
  1.264111e+01    2.351948e+00
  1.265699e+01    2.371372e+00
  1.267286e+01    2.397707e+00
  1.268874e+01    2.430860e+00
  1.270462e+01    2.442171e+00
  1.272049e+01    2.463169e+00
  1.273637e+01    2.486675e+00
  1.275224e+01    2.490502e+00
  1.276812e+01    2.553691e+00
  1.278399e+01    2.572742e+00
  1.279987e+01    2.589974e+00
  1.281574e+01    2.634025e+00
  1.283162e+01    2.731256e+00
  1.284750e+01    2.802427e+00
  1.286337e+01    2.901627e+00
  1.287925e+01    2.996814e+00
  1.289512e+01    3.079668e+00
  1.291100e+01    3.262490e+00
  1.292687e+01    3.388117e+00
  1.294275e+01    3.643989e+00
  1.295862e+01    3.906035e+00
  1.297450e+01    4.275728e+00
  1.299038e+01    4.778368e+00
  1.300625e+01    5.260437e+00
  1.302213e+01    5.989772e+00
  1.303800e+01    6.847917e+00
  1.305388e+01    8.052882e+00
  1.306975e+01    9.357288e+00
  1.308563e+01    1.070558e+01
  1.310150e+01    1.198009e+01
  1.311738e+01    1.323439e+01
  1.313326e+01    1.461124e+01
  1.314913e+01    1.595962e+01
  1.316501e+01    1.700954e+01
  1.318088e+01    1.766028e+01
  1.319676e+01    1.780763e+01
  1.321263e+01    1.688538e+01
  1.322851e+01    1.526619e+01
  1.324438e+01    1.308813e+01
  1.326026e+01    1.095133e+01
  1.327614e+01    9.259159e+00
  1.329201e+01    7.826599e+00
  1.330789e+01    6.765449e+00
  1.332376e+01    5.869965e+00
  1.333964e+01    5.090948e+00
  1.335551e+01    4.551254e+00
  1.337139e+01    4.157411e+00
  1.338727e+01    3.851406e+00
  1.340314e+01    3.545587e+00
  1.341902e+01    3.364934e+00
  1.343489e+01    3.190012e+00
  1.345077e+01    3.003188e+00
  1.346664e+01    2.875287e+00
  1.348252e+01    2.791260e+00
  1.349839e+01    2.707406e+00
  1.351427e+01    2.643544e+00
  1.353015e+01    2.573701e+00
  1.354602e+01    2.571476e+00
  1.356190e+01    2.508738e+00
  1.357777e+01    2.470306e+00
  1.359365e+01    2.440520e+00
  1.360952e+01    2.420221e+00
  1.362540e+01    2.334450e+00
  1.364127e+01    2.315494e+00
  1.365715e+01    2.345110e+00
  1.367303e+01    2.314452e+00
  1.368890e+01    2.280478e+00
  1.370478e+01    2.247894e+00
  1.372065e+01    2.245597e+00
  1.373653e+01    2.199748e+00
  1.375240e+01    2.195117e+00
  1.376828e+01    2.167066e+00
  1.378415e+01    2.151315e+00
  1.380003e+01    2.149658e+00
  1.381591e+01    2.113083e+00
  1.383178e+01    2.153907e+00
  1.384766e+01    2.169686e+00
  1.386353e+01    2.140275e+00
  1.387941e+01    2.109253e+00
  1.389528e+01    2.069971e+00
  1.391116e+01    2.042876e+00
  1.392703e+01    2.056337e+00
  1.394291e+01    2.051587e+00
  1.395879e+01    2.033126e+00
  1.397466e+01    2.023475e+00
  1.399054e+01    2.034981e+00
  1.400641e+01    2.017072e+00
  1.402229e+01    2.030003e+00
  1.403816e+01    2.006810e+00
  1.405404e+01    2.023351e+00
  1.406991e+01    2.061576e+00
  1.408579e+01    2.030824e+00
  1.410167e+01    2.003400e+00
  1.411754e+01    1.974768e+00
  1.413342e+01    1.962652e+00
  1.414929e+01    1.971169e+00
  1.416517e+01    1.984509e+00
  1.418104e+01    1.977491e+00
  1.419692e+01    1.946959e+00
  1.421279e+01    1.956617e+00
  1.422867e+01    1.925406e+00
  1.424455e+01    1.926135e+00
  1.426042e+01    1.945522e+00
  1.427630e+01    1.942063e+00
  1.429217e+01    1.944135e+00
  1.430805e+01    1.947155e+00
  1.432392e+01    1.924420e+00
  1.433980e+01    1.941686e+00
  1.435568e+01    1.955647e+00
  1.437155e+01    1.932946e+00
  1.438743e+01    1.921742e+00
  1.440330e+01    1.926225e+00
  1.441918e+01    1.904485e+00
  1.443505e+01    1.929422e+00
  1.445093e+01    1.907178e+00
  1.446680e+01    1.947476e+00
  1.448268e+01    1.891516e+00
  1.449856e+01    1.908896e+00
  1.451443e+01    1.887216e+00
  1.453031e+01    1.859558e+00
  1.454618e+01    1.876331e+00
  1.456206e+01    1.876634e+00
  1.457793e+01    1.922742e+00
  1.459381e+01    1.910466e+00
  1.460968e+01    1.881128e+00
  1.462556e+01    1.907389e+00
  1.464144e+01    1.899582e+00
  1.465731e+01    1.899684e+00
  1.467319e+01    1.875142e+00
  1.468906e+01    1.867324e+00
  1.470494e+01    1.869464e+00
  1.472081e+01    1.875197e+00
  1.473669e+01    1.847048e+00
  1.475256e+01    1.885097e+00
  1.476844e+01    1.881474e+00
  1.478432e+01    1.889189e+00
  1.480019e+01    1.920927e+00
  1.481607e+01    1.887525e+00
  1.483194e+01    1.885871e+00
  1.484782e+01    1.894864e+00
  1.486369e+01    1.914776e+00
  1.487957e+01    1.949292e+00
  1.489544e+01    1.930675e+00
  1.491132e+01    1.949559e+00
  1.492720e+01    1.934501e+00
  1.494307e+01    2.004356e+00
  1.495895e+01    2.046564e+00
  1.497482e+01    2.062306e+00
  1.499070e+01    2.097169e+00
  1.500657e+01    2.135027e+00
  1.502245e+01    2.174751e+00
  1.503832e+01    2.260840e+00
  1.505420e+01    2.359993e+00
  1.507008e+01    2.444781e+00
  1.508595e+01    2.630384e+00
  1.510183e+01    2.803023e+00
  1.511770e+01    3.032270e+00
  1.513358e+01    3.312670e+00
  1.514945e+01    3.652884e+00
  1.516533e+01    4.138874e+00
  1.518120e+01    4.484197e+00
  1.519708e+01    4.821784e+00
  1.521296e+01    5.182940e+00
  1.522883e+01    5.516806e+00
  1.524471e+01    5.794981e+00
  1.526058e+01    5.998903e+00
  1.527646e+01    6.074195e+00
  1.529233e+01    5.923373e+00
  1.530821e+01    5.673494e+00
  1.532409e+01    5.186496e+00
  1.533996e+01    4.651558e+00
  1.535584e+01    4.143700e+00
  1.537171e+01    3.619413e+00
  1.538759e+01    3.272545e+00
  1.540346e+01    2.928065e+00
  1.541934e+01    2.679256e+00
  1.543521e+01    2.545223e+00
  1.545109e+01    2.383579e+00
  1.546697e+01    2.264429e+00
  1.548284e+01    2.165338e+00
  1.549872e+01    2.100806e+00
  1.551459e+01    2.055290e+00
  1.553047e+01    1.998119e+00
  1.554634e+01    1.924097e+00
  1.556222e+01    1.875505e+00
  1.557809e+01    1.837534e+00
  1.559397e+01    1.843766e+00
  1.560985e+01    1.805893e+00
  1.562572e+01    1.812598e+00
  1.564160e+01    1.765530e+00
  1.565747e+01    1.758484e+00
  1.567335e+01    1.759329e+00
  1.568922e+01    1.692791e+00
  1.570510e+01    1.687933e+00
  1.572097e+01    1.696489e+00
  1.573685e+01    1.704839e+00
  1.575273e+01    1.674415e+00
  1.576860e+01    1.664616e+00
  1.578448e+01    1.668125e+00
  1.580035e+01    1.647303e+00
  1.581623e+01    1.667354e+00
  1.583210e+01    1.674881e+00
  1.584798e+01    1.649946e+00
  1.586385e+01    1.652745e+00
  1.587973e+01    1.616650e+00
  1.589561e+01    1.639959e+00
  1.591148e+01    1.628670e+00
  1.592736e+01    1.617275e+00
  1.594323e+01    1.646852e+00
  1.595911e+01    1.635033e+00
  1.597498e+01    1.605357e+00
  1.599086e+01    1.600307e+00
  1.600673e+01    1.625383e+00
  1.602261e+01    1.573648e+00
  1.603849e+01    1.554039e+00
  1.605436e+01    1.553922e+00
  1.607024e+01    1.566622e+00
  1.608611e+01    1.563739e+00
  1.610199e+01    1.590286e+00
  1.611786e+01    1.568215e+00
  1.613374e+01    1.584577e+00
  1.614961e+01    1.573656e+00
  1.616549e+01    1.555897e+00
  1.618137e+01    1.561369e+00
  1.619724e+01    1.546569e+00
  1.621312e+01    1.567364e+00
  1.622899e+01    1.553993e+00
  1.624487e+01    1.545600e+00
  1.626074e+01    1.560104e+00
  1.627662e+01    1.599493e+00
  1.629250e+01    1.544444e+00
  1.630837e+01    1.538766e+00
  1.632425e+01    1.538262e+00
  1.634012e+01    1.539401e+00
  1.635600e+01    1.509365e+00
  1.637187e+01    1.494744e+00
  1.638775e+01    1.488710e+00
  1.640362e+01    1.491132e+00
  1.641950e+01    1.479721e+00
  1.643538e+01    1.491936e+00
  1.645125e+01    1.516718e+00
  1.646713e+01    1.505191e+00
  1.648300e+01    1.487756e+00
  1.649888e+01    1.506673e+00
  1.651475e+01    1.445431e+00
  1.653063e+01    1.478955e+00
  1.654650e+01    1.503808e+00
  1.656238e+01    1.509837e+00
  1.657826e+01    1.493866e+00
  1.659413e+01    1.481917e+00
  1.661001e+01    1.471117e+00
  1.662588e+01    1.483903e+00
  1.664176e+01    1.500017e+00
  1.665763e+01    1.425124e+00
  1.667351e+01    1.428399e+00
  1.668938e+01    1.439154e+00
  1.670526e+01    1.465029e+00
  1.672114e+01    1.487606e+00
  1.673701e+01    1.466480e+00
  1.675289e+01    1.445467e+00
  1.676876e+01    1.463345e+00
  1.678464e+01    1.464865e+00
  1.680051e+01    1.430812e+00
  1.681639e+01    1.449290e+00
  1.683226e+01    1.458832e+00
  1.684814e+01    1.446142e+00
  1.686402e+01    1.460001e+00
  1.687989e+01    1.443901e+00
  1.689577e+01    1.457241e+00
  1.691164e+01    1.433546e+00
  1.692752e+01    1.412301e+00
  1.694339e+01    1.447388e+00
  1.695927e+01    1.441857e+00
  1.697514e+01    1.420890e+00
  1.699102e+01    1.432043e+00
  1.700690e+01    1.431657e+00
  1.702277e+01    1.404484e+00
  1.703865e+01    1.418468e+00
  1.705452e+01    1.408932e+00
  1.707040e+01    1.397316e+00
  1.708627e+01    1.396067e+00
  1.710215e+01    1.385538e+00
  1.711802e+01    1.388939e+00
  1.713390e+01    1.411501e+00
  1.714978e+01    1.390114e+00
  1.716565e+01    1.400513e+00
  1.718153e+01    1.372772e+00
  1.719740e+01    1.370431e+00
  1.721328e+01    1.396790e+00
  1.722915e+01    1.395175e+00
  1.724503e+01    1.379061e+00
  1.726091e+01    1.371139e+00
  1.727678e+01    1.367544e+00
  1.729266e+01    1.337385e+00
  1.730853e+01    1.370145e+00
  1.732441e+01    1.393690e+00
  1.734028e+01    1.360195e+00
  1.735616e+01    1.343939e+00
  1.737203e+01    1.388476e+00
  1.738791e+01    1.368828e+00
  1.740379e+01    1.346584e+00
  1.741966e+01    1.355186e+00
  1.743554e+01    1.365749e+00
  1.745141e+01    1.341368e+00
  1.746729e+01    1.334430e+00
  1.748316e+01    1.341778e+00
  1.749904e+01    1.393987e+00
  1.751491e+01    1.368563e+00
  1.753079e+01    1.336128e+00
  1.754667e+01    1.323753e+00
  1.756254e+01    1.341401e+00
  1.757842e+01    1.334865e+00
  1.759429e+01    1.336503e+00
  1.761017e+01    1.349684e+00
  1.762604e+01    1.345376e+00
  1.764192e+01    1.360466e+00
  1.765779e+01    1.356503e+00
  1.767367e+01    1.348386e+00
  1.768955e+01    1.319719e+00
  1.770542e+01    1.306410e+00
  1.772130e+01    1.317835e+00
  1.773717e+01    1.307283e+00
  1.775305e+01    1.294810e+00
  1.776892e+01    1.317698e+00
  1.778480e+01    1.319000e+00
  1.780067e+01    1.325577e+00
  1.781655e+01    1.297498e+00
  1.783243e+01    1.308420e+00
  1.784830e+01    1.288463e+00
  1.786418e+01    1.285171e+00
  1.788005e+01    1.306234e+00
  1.789593e+01    1.295855e+00
  1.791180e+01    1.287107e+00
  1.792768e+01    1.304234e+00
  1.794355e+01    1.286901e+00
  1.795943e+01    1.300819e+00
  1.797531e+01    1.319867e+00
  1.799118e+01    1.295350e+00
  1.800706e+01    1.274726e+00
  1.802293e+01    1.299241e+00
  1.803881e+01    1.308925e+00
  1.805468e+01    1.289196e+00
  1.807056e+01    1.278064e+00
  1.808643e+01    1.277007e+00
  1.810231e+01    1.289372e+00
  1.811819e+01    1.265694e+00
  1.813406e+01    1.271851e+00
  1.814994e+01    1.291556e+00
  1.816581e+01    1.277272e+00
  1.818169e+01    1.262678e+00
  1.819756e+01    1.271738e+00
  1.821344e+01    1.239831e+00
  1.822932e+01    1.253634e+00
  1.824519e+01    1.289151e+00
  1.826107e+01    1.294545e+00
  1.827694e+01    1.284453e+00
  1.829282e+01    1.267915e+00
  1.830869e+01    1.256162e+00
  1.832457e+01    1.257880e+00
  1.834044e+01    1.281496e+00
  1.835632e+01    1.254369e+00
  1.837220e+01    1.252054e+00
  1.838807e+01    1.241629e+00
  1.840395e+01    1.253897e+00
  1.841982e+01    1.250560e+00
  1.843570e+01    1.236417e+00
  1.845157e+01    1.233917e+00
  1.846745e+01    1.222194e+00
  1.848332e+01    1.214597e+00
  1.849920e+01    1.230965e+00
  1.851508e+01    1.219294e+00
  1.853095e+01    1.222136e+00
  1.854683e+01    1.241717e+00
  1.856270e+01    1.256175e+00
  1.857858e+01    1.223094e+00
  1.859445e+01    1.217291e+00
  1.861033e+01    1.197401e+00
  1.862620e+01    1.200281e+00
  1.864208e+01    1.211553e+00
  1.865796e+01    1.231851e+00
  1.867383e+01    1.223807e+00
  1.868971e+01    1.224656e+00
  1.870558e+01    1.230388e+00
  1.872146e+01    1.222598e+00
  1.873733e+01    1.206256e+00
  1.875321e+01    1.218320e+00
  1.876908e+01    1.224706e+00
  1.878496e+01    1.212751e+00
  1.880084e+01    1.220420e+00
  1.881671e+01    1.186633e+00
  1.883259e+01    1.206892e+00
  1.884846e+01    1.200767e+00
  1.886434e+01    1.214998e+00
  1.888021e+01    1.207207e+00
  1.889609e+01    1.193560e+00
  1.891196e+01    1.192626e+00
  1.892784e+01    1.204298e+00
  1.894372e+01    1.202873e+00
  1.895959e+01    1.169007e+00
  1.897547e+01    1.169616e+00
  1.899134e+01    1.204830e+00
  1.900722e+01    1.203004e+00
  1.902309e+01    1.210397e+00
  1.903897e+01    1.185899e+00
  1.905484e+01    1.168923e+00
  1.907072e+01    1.155202e+00
  1.908660e+01    1.192406e+00
  1.910247e+01    1.172505e+00
  1.911835e+01    1.159932e+00
  1.913422e+01    1.182727e+00
  1.915010e+01    1.183938e+00
  1.916597e+01    1.176688e+00
  1.918185e+01    1.155838e+00
  1.919773e+01    1.163602e+00
  1.921360e+01    1.171410e+00
  1.922948e+01    1.167191e+00
  1.924535e+01    1.181229e+00
  1.926123e+01    1.171340e+00
  1.927710e+01    1.169166e+00
  1.929298e+01    1.183775e+00
  1.930885e+01    1.161212e+00
  1.932473e+01    1.158034e+00
  1.934061e+01    1.141484e+00
  1.935648e+01    1.124754e+00
  1.937236e+01    1.138333e+00
  1.938823e+01    1.180305e+00
  1.940411e+01    1.163370e+00
  1.941998e+01    1.127318e+00
  1.943586e+01    1.151837e+00
  1.945173e+01    1.153550e+00
  1.946761e+01    1.138703e+00
  1.948349e+01    1.119311e+00
  1.949936e+01    1.158344e+00
  1.951524e+01    1.151359e+00
  1.953111e+01    1.115707e+00
  1.954699e+01    1.133689e+00
  1.956286e+01    1.134213e+00
  1.957874e+01    1.140817e+00
  1.959461e+01    1.152241e+00
  1.961049e+01    1.133101e+00
  1.962637e+01    1.099299e+00
  1.964224e+01    1.123542e+00
  1.965812e+01    1.130954e+00
  1.967399e+01    1.144889e+00
  1.968987e+01    1.156679e+00
  1.970574e+01    1.122511e+00
  1.972162e+01    1.109117e+00
  1.973749e+01    1.113750e+00
  1.975337e+01    1.131234e+00
  1.976925e+01    1.137251e+00
  1.978512e+01    1.144745e+00
  1.980100e+01    1.131194e+00
  1.981687e+01    1.131499e+00
  1.983275e+01    1.124172e+00
  1.984862e+01    1.114064e+00
  1.986450e+01    1.100894e+00
  1.988037e+01    1.116276e+00
  1.989625e+01    1.116920e+00
  1.991213e+01    1.110424e+00
  1.992800e+01    1.102999e+00
  1.994388e+01    1.122486e+00
  1.995975e+01    1.102123e+00
  1.997563e+01    1.097131e+00
  1.999150e+01    1.108398e+00
  2.000738e+01    1.090987e+00
  2.002325e+01    1.104989e+00
  2.003913e+01    1.088144e+00
  2.005501e+01    1.097077e+00
  2.007088e+01    1.073750e+00
  2.008676e+01    1.092689e+00
  2.010263e+01    1.110787e+00
  2.011851e+01    1.095303e+00
  2.013438e+01    1.078844e+00
  2.015026e+01    1.085650e+00
  2.016614e+01    1.095878e+00
  2.018201e+01    1.082766e+00
  2.019789e+01    1.087897e+00
  2.021376e+01    1.105483e+00
  2.022964e+01    1.080799e+00
  2.024551e+01    1.079743e+00
  2.026139e+01    1.099469e+00
  2.027726e+01    1.080355e+00
  2.029314e+01    1.096903e+00
  2.030902e+01    1.078658e+00
  2.032489e+01    1.080930e+00
  2.034077e+01    1.097266e+00
  2.035664e+01    1.115888e+00
  2.037252e+01    1.126136e+00
  2.038839e+01    1.086642e+00
  2.040427e+01    1.079085e+00
  2.042014e+01    1.066736e+00
  2.043602e+01    1.078928e+00
  2.045190e+01    1.093920e+00
  2.046777e+01    1.089658e+00
  2.048365e+01    1.066446e+00
  2.049952e+01    1.069250e+00
  2.051540e+01    1.086767e+00
  2.053127e+01    1.064267e+00
  2.054715e+01    1.051145e+00
  2.056302e+01    1.070157e+00
  2.057890e+01    1.075745e+00
  2.059478e+01    1.079447e+00
  2.061065e+01    1.070190e+00
  2.062653e+01    1.074358e+00
  2.064240e+01    1.065776e+00
  2.065828e+01    1.083985e+00
  2.067415e+01    1.093550e+00
  2.069003e+01    1.107357e+00
  2.070590e+01    1.070582e+00
  2.072178e+01    1.059632e+00
  2.073766e+01    1.074221e+00
  2.075353e+01    1.094409e+00
  2.076941e+01    1.075074e+00
  2.078528e+01    1.061944e+00
  2.080116e+01    1.060166e+00
  2.081703e+01    1.066764e+00
  2.083291e+01    1.058475e+00
  2.084878e+01    1.068679e+00
  2.086466e+01    1.078294e+00
  2.088054e+01    1.078356e+00
  2.089641e+01    1.080422e+00
  2.091229e+01    1.073296e+00
  2.092816e+01    1.079937e+00
  2.094404e+01    1.085155e+00
  2.095991e+01    1.075835e+00
  2.097579e+01    1.046659e+00
  2.099166e+01    1.071428e+00
  2.100754e+01    1.089595e+00
  2.102342e+01    1.070127e+00
  2.103929e+01    1.060395e+00
  2.105517e+01    1.082395e+00
  2.107104e+01    1.072046e+00
  2.108692e+01    1.065469e+00
  2.110279e+01    1.056921e+00
  2.111867e+01    1.060772e+00
  2.113455e+01    1.071137e+00
  2.115042e+01    1.099344e+00
  2.116630e+01    1.097422e+00
  2.118217e+01    1.079690e+00
  2.119805e+01    1.105330e+00
  2.121392e+01    1.094710e+00
  2.122980e+01    1.103917e+00
  2.124567e+01    1.092015e+00
  2.126155e+01    1.128229e+00
  2.127743e+01    1.122227e+00
  2.129330e+01    1.114357e+00
  2.130918e+01    1.096789e+00
  2.132505e+01    1.106613e+00
  2.134093e+01    1.131137e+00
  2.135680e+01    1.163540e+00
  2.137268e+01    1.149225e+00
  2.138855e+01    1.143761e+00
  2.140443e+01    1.161229e+00
  2.142031e+01    1.193218e+00
  2.143618e+01    1.205523e+00
  2.145206e+01    1.184439e+00
  2.146793e+01    1.214594e+00
  2.148381e+01    1.258174e+00
  2.149968e+01    1.285562e+00
  2.151556e+01    1.294328e+00
  2.153143e+01    1.314933e+00
  2.154731e+01    1.359445e+00
  2.156319e+01    1.376665e+00
  2.157906e+01    1.434540e+00
  2.159494e+01    1.480629e+00
  2.161081e+01    1.533697e+00
  2.162669e+01    1.650110e+00
  2.164256e+01    1.757913e+00
  2.165844e+01    1.881340e+00
  2.167431e+01    2.022176e+00
  2.169019e+01    2.186233e+00
  2.170607e+01    2.431043e+00
  2.172194e+01    2.755535e+00
  2.173782e+01    3.081636e+00
  2.175369e+01    3.501673e+00
  2.176957e+01    4.040007e+00
  2.178544e+01    4.612190e+00
  2.180132e+01    5.289880e+00
  2.181719e+01    5.993079e+00
  2.183307e+01    6.701599e+00
  2.184895e+01    7.496428e+00
  2.186482e+01    8.279952e+00
  2.188070e+01    9.018982e+00
  2.189657e+01    9.587373e+00
  2.191245e+01    9.788532e+00
  2.192832e+01    9.646976e+00
  2.194420e+01    9.150801e+00
  2.196007e+01    8.269731e+00
  2.197595e+01    7.214583e+00
  2.199183e+01    6.179810e+00
  2.200770e+01    5.197075e+00
  2.202358e+01    4.343880e+00
  2.203945e+01    3.772071e+00
  2.205533e+01    3.284266e+00
  2.207120e+01    2.872022e+00
  2.208708e+01    2.556645e+00
  2.210296e+01    2.284184e+00
  2.211883e+01    2.074984e+00
  2.213471e+01    1.946597e+00
  2.215058e+01    1.809143e+00
  2.216646e+01    1.671693e+00
  2.218233e+01    1.592258e+00
  2.219821e+01    1.529151e+00
  2.221408e+01    1.465956e+00
  2.222996e+01    1.370633e+00
  2.224584e+01    1.327469e+00
  2.226171e+01    1.292186e+00
  2.227759e+01    1.286854e+00
  2.229346e+01    1.247367e+00
  2.230934e+01    1.200677e+00
  2.232521e+01    1.184227e+00
  2.234109e+01    1.172145e+00
  2.235696e+01    1.130984e+00
  2.237284e+01    1.123010e+00
  2.238872e+01    1.085890e+00
  2.240459e+01    1.087029e+00
  2.242047e+01    1.089547e+00
  2.243634e+01    1.076816e+00
  2.245222e+01    1.068635e+00
  2.246809e+01    1.047618e+00
  2.248397e+01    1.053684e+00
  2.249984e+01    1.017584e+00
  2.251572e+01    9.975843e-01
  2.253160e+01    9.964477e-01
  2.254747e+01    1.016901e+00
  2.256335e+01    1.003180e+00
  2.257922e+01    9.996192e-01
  2.259510e+01    1.007131e+00
  2.261097e+01    9.788089e-01
  2.262685e+01    9.867931e-01
  2.264272e+01    9.695666e-01
  2.265860e+01    9.894394e-01
  2.267448e+01    9.415444e-01
  2.269035e+01    9.426962e-01
  2.270623e+01    9.667332e-01
  2.272210e+01    9.508847e-01
  2.273798e+01    9.289311e-01
  2.275385e+01    9.386590e-01
  2.276973e+01    9.266689e-01
  2.278560e+01    9.275414e-01
  2.280148e+01    9.307944e-01
  2.281736e+01    9.317570e-01
  2.283323e+01    9.283801e-01
  2.284911e+01    9.223260e-01
  2.286498e+01    9.263876e-01
  2.288086e+01    9.350510e-01
  2.289673e+01    9.108993e-01
  2.291261e+01    8.959376e-01
  2.292848e+01    8.915506e-01
  2.294436e+01    9.028320e-01
  2.296024e+01    8.892066e-01
  2.297611e+01    8.827351e-01
  2.299199e+01    9.035007e-01
  2.300786e+01    9.174114e-01
  2.302374e+01    8.982549e-01
  2.303961e+01    9.032942e-01
  2.305549e+01    8.926862e-01
  2.307137e+01    8.885923e-01
  2.308724e+01    8.855593e-01
  2.310312e+01    8.817184e-01
  2.311899e+01    8.853815e-01
  2.313487e+01    8.967561e-01
  2.315074e+01    8.955741e-01
  2.316662e+01    8.813765e-01
  2.318249e+01    8.634375e-01
  2.319837e+01    8.680891e-01
  2.321425e+01    8.598707e-01
  2.323012e+01    8.645814e-01
  2.324600e+01    8.709018e-01
  2.326187e+01    8.749936e-01
  2.327775e+01    8.689498e-01
  2.329362e+01    8.707967e-01
  2.330950e+01    8.502960e-01
  2.332537e+01    8.473878e-01
  2.334125e+01    8.442038e-01
  2.335713e+01    8.486181e-01
  2.337300e+01    8.494846e-01
  2.338888e+01    8.451915e-01
  2.340475e+01    8.532764e-01
  2.342063e+01    8.661336e-01
  2.343650e+01    8.639899e-01
  2.345238e+01    8.470135e-01
  2.346825e+01    8.511884e-01
  2.348413e+01    8.382394e-01
  2.350001e+01    8.141888e-01
  2.351588e+01    8.312139e-01
  2.353176e+01    8.362282e-01
  2.354763e+01    8.230519e-01
  2.356351e+01    8.306006e-01
  2.357938e+01    8.430034e-01
  2.359526e+01    8.268237e-01
  2.361113e+01    8.489243e-01
  2.362701e+01    8.468737e-01
  2.364289e+01    8.370553e-01
  2.365876e+01    8.240100e-01
  2.367464e+01    8.184688e-01
  2.369051e+01    8.302590e-01
  2.370639e+01    8.050888e-01
  2.372226e+01    7.835017e-01
  2.373814e+01    8.159183e-01
  2.375401e+01    8.067420e-01
  2.376989e+01    8.008668e-01
  2.378577e+01    7.979740e-01
  2.380164e+01    7.993379e-01
  2.381752e+01    8.098302e-01
  2.383339e+01    8.022512e-01
  2.384927e+01    7.971729e-01
  2.386514e+01    8.126909e-01
  2.388102e+01    8.201949e-01
  2.389689e+01    7.969609e-01
  2.391277e+01    8.096699e-01
  2.392865e+01    7.961319e-01
  2.394452e+01    7.709525e-01
  2.396040e+01    8.066858e-01
  2.397627e+01    7.830283e-01
  2.399215e+01    7.945082e-01
  2.400802e+01    7.822796e-01
  2.402390e+01    7.805415e-01
  2.403978e+01    7.691559e-01
  2.405565e+01    7.836292e-01
  2.407153e+01    7.916747e-01
  2.408740e+01    7.958424e-01
  2.410328e+01    7.838737e-01
  2.411915e+01    7.699270e-01
  2.413503e+01    7.675475e-01
  2.415090e+01    7.755753e-01
  2.416678e+01    7.732534e-01
  2.418266e+01    7.670841e-01
  2.419853e+01    7.515088e-01
  2.421441e+01    7.679360e-01
  2.423028e+01    7.659939e-01
  2.424616e+01    7.797688e-01
  2.426203e+01    7.938103e-01
  2.427791e+01    7.905353e-01
  2.429378e+01    7.885617e-01
  2.430966e+01    7.797956e-01
  2.432554e+01    7.850246e-01
  2.434141e+01    7.795883e-01
  2.435729e+01    7.734166e-01
  2.437316e+01    7.757542e-01
  2.438904e+01    7.828596e-01
  2.440491e+01    7.925470e-01
  2.442079e+01    8.068619e-01
  2.443666e+01    8.138747e-01
  2.445254e+01    7.770880e-01
  2.446842e+01    7.654181e-01
  2.448429e+01    7.852955e-01
  2.450017e+01    7.776231e-01
  2.451604e+01    7.721882e-01
  2.453192e+01    7.872533e-01
  2.454779e+01    7.727925e-01
  2.456367e+01    7.699405e-01
  2.457954e+01    7.582648e-01
  2.459542e+01    7.600143e-01
  2.461130e+01    7.770771e-01
  2.462717e+01    7.711813e-01
  2.464305e+01    7.829604e-01
  2.465892e+01    7.837899e-01
  2.467480e+01    7.927287e-01
  2.469067e+01    8.129339e-01
  2.470655e+01    7.793198e-01
  2.472242e+01    7.894405e-01
  2.473830e+01    7.917037e-01
  2.475418e+01    7.871745e-01
  2.477005e+01    7.983916e-01
  2.478593e+01    7.779371e-01
  2.480180e+01    7.865781e-01
  2.481768e+01    7.760354e-01
  2.483355e+01    7.718756e-01
  2.484943e+01    7.805616e-01
  2.486530e+01    7.868988e-01
  2.488118e+01    7.923847e-01
  2.489706e+01    8.043302e-01
  2.491293e+01    8.176897e-01
  2.492881e+01    8.045882e-01
  2.494468e+01    8.002862e-01
  2.496056e+01    7.838846e-01
  2.497643e+01    7.877696e-01
  2.499231e+01    7.933127e-01
  2.500819e+01    8.018423e-01
  2.502406e+01    7.925552e-01
  2.503994e+01    7.931007e-01
  2.505581e+01    7.922410e-01
  2.507169e+01    8.103729e-01
  2.508756e+01    7.974375e-01
  2.510344e+01    8.058911e-01
  2.511931e+01    8.324925e-01
  2.513519e+01    8.239932e-01
  2.515107e+01    8.005584e-01
  2.516694e+01    8.048681e-01
  2.518282e+01    8.118530e-01
  2.519869e+01    8.310083e-01
  2.521457e+01    8.523362e-01
  2.523044e+01    8.370781e-01
  2.524632e+01    8.374017e-01
  2.526219e+01    8.489742e-01
  2.527807e+01    8.486132e-01
  2.529395e+01    8.576637e-01
  2.530982e+01    8.485942e-01
  2.532570e+01    8.812258e-01
  2.534157e+01    8.990264e-01
  2.535745e+01    8.662482e-01
  2.537332e+01    8.760810e-01
  2.538920e+01    8.854346e-01
  2.540507e+01    8.985677e-01
  2.542095e+01    9.216446e-01
  2.543683e+01    9.179495e-01
  2.545270e+01    9.214630e-01
  2.546858e+01    9.153907e-01
  2.548445e+01    9.492469e-01
  2.550033e+01    9.692726e-01
  2.551620e+01    9.662948e-01
  2.553208e+01    9.805074e-01
  2.554795e+01    1.031883e+00
  2.556383e+01    1.060637e+00
  2.557971e+01    1.063489e+00
  2.559558e+01    1.091907e+00
  2.561146e+01    1.121984e+00
  2.562733e+01    1.148273e+00
  2.564321e+01    1.184920e+00
  2.565908e+01    1.230722e+00
  2.567496e+01    1.296976e+00
  2.569083e+01    1.358100e+00
  2.570671e+01    1.429020e+00
  2.572259e+01    1.521140e+00
  2.573846e+01    1.676910e+00
  2.575434e+01    1.798991e+00
  2.577021e+01    1.954915e+00
  2.578609e+01    2.172896e+00
  2.580196e+01    2.412892e+00
  2.581784e+01    2.720572e+00
  2.583371e+01    3.117515e+00
  2.584959e+01    3.545150e+00
  2.586547e+01    4.077188e+00
  2.588134e+01    4.671834e+00
  2.589722e+01    5.352774e+00
  2.591309e+01    6.055640e+00
  2.592897e+01    6.754619e+00
  2.594484e+01    7.378465e+00
  2.596072e+01    7.885869e+00
  2.597660e+01    8.109351e+00
  2.599247e+01    8.054130e+00
  2.600835e+01    7.737446e+00
  2.602422e+01    7.039276e+00
  2.604010e+01    6.266808e+00
  2.605597e+01    5.429264e+00
  2.607185e+01    4.643450e+00
  2.608772e+01    3.960779e+00
  2.610360e+01    3.390916e+00
  2.611948e+01    2.972089e+00
  2.613535e+01    2.624863e+00
  2.615123e+01    2.299005e+00
  2.616710e+01    2.075721e+00
  2.618298e+01    1.881404e+00
  2.619885e+01    1.716814e+00
  2.621473e+01    1.602092e+00
  2.623060e+01    1.504295e+00
  2.624648e+01    1.400504e+00
  2.626236e+01    1.348837e+00
  2.627823e+01    1.294552e+00
  2.629411e+01    1.231179e+00
  2.630998e+01    1.195893e+00
  2.632586e+01    1.152754e+00
  2.634173e+01    1.096130e+00
  2.635761e+01    1.060328e+00
  2.637348e+01    1.044736e+00
  2.638936e+01    1.014801e+00
  2.640524e+01    9.994037e-01
  2.642111e+01    9.900637e-01
  2.643699e+01    9.737793e-01
  2.645286e+01    9.903675e-01
  2.646874e+01    9.668399e-01
  2.648461e+01    9.430777e-01
  2.650049e+01    9.452844e-01
  2.651636e+01    9.339743e-01
  2.653224e+01    9.375354e-01
  2.654812e+01    9.460739e-01
  2.656399e+01    9.306783e-01
  2.657987e+01    9.273086e-01
  2.659574e+01    9.322467e-01
  2.661162e+01    9.223636e-01
  2.662749e+01    8.865627e-01
  2.664337e+01    8.781060e-01
  2.665924e+01    8.987733e-01
  2.667512e+01    9.020889e-01
  2.669100e+01    9.107894e-01
  2.670687e+01    8.973926e-01
  2.672275e+01    8.741343e-01
  2.673862e+01    8.848241e-01
  2.675450e+01    8.911334e-01
  2.677037e+01    9.167627e-01
  2.678625e+01    9.072192e-01
  2.680212e+01    8.911847e-01
  2.681800e+01    8.806592e-01
  2.683388e+01    8.807493e-01
  2.684975e+01    9.085510e-01
  2.686563e+01    9.229721e-01
  2.688150e+01    9.060701e-01
  2.689738e+01    9.216456e-01
  2.691325e+01    9.220205e-01
  2.692913e+01    9.231414e-01
  2.694501e+01    9.475754e-01
  2.696088e+01    9.559473e-01
  2.697676e+01    9.780639e-01
  2.699263e+01    9.965224e-01
  2.700851e+01    1.004636e+00
  2.702438e+01    1.057468e+00
  2.704026e+01    1.083549e+00
  2.705613e+01    1.122348e+00
  2.707201e+01    1.150053e+00
  2.708789e+01    1.243207e+00
  2.710376e+01    1.327270e+00
  2.711964e+01    1.409782e+00
  2.713551e+01    1.539438e+00
  2.715139e+01    1.682041e+00
  2.716726e+01    1.817157e+00
  2.718314e+01    1.986823e+00
  2.719901e+01    2.133886e+00
  2.721489e+01    2.263900e+00
  2.723077e+01    2.303439e+00
  2.724664e+01    2.332178e+00
  2.726252e+01    2.343591e+00
  2.727839e+01    2.216803e+00
  2.729427e+01    2.056753e+00
  2.731014e+01    1.847046e+00
  2.732602e+01    1.706116e+00
  2.734189e+01    1.558413e+00
  2.735777e+01    1.419729e+00
  2.737365e+01    1.316606e+00
  2.738952e+01    1.227018e+00
  2.740540e+01    1.152002e+00
  2.742127e+01    1.111184e+00
  2.743715e+01    1.070920e+00
  2.745302e+01    1.018763e+00
  2.746890e+01    1.007970e+00
  2.748477e+01    9.790666e-01
  2.750065e+01    9.462178e-01
  2.751653e+01    9.265371e-01
  2.753240e+01    9.226700e-01
  2.754828e+01    8.852087e-01
  2.756415e+01    8.754053e-01
  2.758003e+01    8.758573e-01
  2.759590e+01    8.517790e-01
  2.761178e+01    8.307511e-01
  2.762765e+01    8.354698e-01
  2.764353e+01    8.428355e-01
  2.765941e+01    8.306189e-01
  2.767528e+01    8.327519e-01
  2.769116e+01    8.339169e-01
  2.770703e+01    8.422517e-01
  2.772291e+01    8.242056e-01
  2.773878e+01    8.192439e-01
  2.775466e+01    8.196371e-01
  2.777054e+01    8.074495e-01
  2.778641e+01    7.897435e-01
  2.780229e+01    7.917659e-01
  2.781816e+01    7.808256e-01
  2.783404e+01    7.906457e-01
  2.784991e+01    8.078483e-01
  2.786579e+01    8.082013e-01
  2.788166e+01    8.159087e-01
  2.789754e+01    8.031576e-01
  2.791342e+01    8.042542e-01
  2.792929e+01    8.054878e-01
  2.794517e+01    8.101454e-01
  2.796104e+01    8.032110e-01
  2.797692e+01    7.690032e-01
  2.799279e+01    7.858467e-01
  2.800867e+01    7.862222e-01
  2.802454e+01    7.865381e-01
  2.804042e+01    7.819809e-01
  2.805630e+01    7.812417e-01
  2.807217e+01    7.956396e-01
  2.808805e+01    7.767014e-01
  2.810392e+01    7.738451e-01
  2.811980e+01    7.871004e-01
  2.813567e+01    8.058540e-01
  2.815155e+01    7.635391e-01
  2.816742e+01    7.658857e-01
  2.818330e+01    7.554767e-01
  2.819918e+01    7.678999e-01
  2.821505e+01    7.556304e-01
  2.823093e+01    7.740814e-01
  2.824680e+01    7.689602e-01
  2.826268e+01    7.626329e-01
  2.827855e+01    7.535731e-01
  2.829443e+01    7.533326e-01
  2.831030e+01    7.568336e-01
  2.832618e+01    7.486926e-01
  2.834206e+01    7.649225e-01
  2.835793e+01    7.546876e-01
  2.837381e+01    7.527584e-01
  2.838968e+01    7.681878e-01
  2.840556e+01    7.761575e-01
  2.842143e+01    7.632545e-01
  2.843731e+01    7.475945e-01
  2.845318e+01    7.802718e-01
  2.846906e+01    7.738540e-01
  2.848494e+01    7.726076e-01
  2.850081e+01    7.665647e-01
  2.851669e+01    7.559046e-01
  2.853256e+01    7.715866e-01
  2.854844e+01    7.578753e-01
  2.856431e+01    7.528778e-01
  2.858019e+01    7.661794e-01
  2.859606e+01    7.463839e-01
  2.861194e+01    7.463076e-01
  2.862782e+01    7.395303e-01
  2.864369e+01    7.370937e-01
  2.865957e+01    7.638955e-01
  2.867544e+01    7.611909e-01
  2.869132e+01    7.498117e-01
  2.870719e+01    7.353083e-01
  2.872307e+01    7.322847e-01
  2.873895e+01    7.651834e-01
  2.875482e+01    7.465446e-01
  2.877070e+01    7.394274e-01
  2.878657e+01    7.486448e-01
  2.880245e+01    7.506163e-01
  2.881832e+01    7.435933e-01
  2.883420e+01    7.491167e-01
  2.885007e+01    7.113110e-01
  2.886595e+01    7.348136e-01
  2.888183e+01    7.358719e-01
  2.889770e+01    7.400575e-01
  2.891358e+01    7.514001e-01
  2.892945e+01    7.336341e-01
  2.894533e+01    7.318766e-01
  2.896120e+01    7.579805e-01
  2.897708e+01    7.501048e-01
  2.899295e+01    7.418209e-01
  2.900883e+01    7.354918e-01
  2.902471e+01    7.380750e-01
  2.904058e+01    7.465746e-01
  2.905646e+01    7.402822e-01
  2.907233e+01    7.346156e-01
  2.908821e+01    7.662167e-01
  2.910408e+01    7.501941e-01
  2.911996e+01    7.324632e-01
  2.913583e+01    7.323179e-01
  2.915171e+01    7.364058e-01
  2.916759e+01    7.407924e-01
  2.918346e+01    7.327639e-01
  2.919934e+01    7.175410e-01
  2.921521e+01    7.211670e-01
  2.923109e+01    7.195910e-01
  2.924696e+01    7.142429e-01
  2.926284e+01    7.329810e-01
  2.927871e+01    7.300587e-01
  2.929459e+01    7.464353e-01
  2.931047e+01    7.323835e-01
  2.932634e+01    6.944413e-01
  2.934222e+01    7.180716e-01
  2.935809e+01    7.459772e-01
  2.937397e+01    7.332791e-01
  2.938984e+01    7.076574e-01
  2.940572e+01    6.987076e-01
  2.942159e+01    7.061677e-01
  2.943747e+01    7.187389e-01
  2.945335e+01    7.120058e-01
  2.946922e+01    7.045150e-01
  2.948510e+01    7.270043e-01
  2.950097e+01    7.161319e-01
  2.951685e+01    6.967748e-01
  2.953272e+01    7.019485e-01
  2.954860e+01    7.043451e-01
  2.956447e+01    7.135806e-01
  2.958035e+01    7.089362e-01
  2.959623e+01    7.266062e-01
  2.961210e+01    7.359161e-01
  2.962798e+01    7.322870e-01
  2.964385e+01    7.271470e-01
  2.965973e+01    7.484483e-01
  2.967560e+01    7.404460e-01
  2.969148e+01    7.058463e-01
  2.970736e+01    7.081517e-01
  2.972323e+01    7.181683e-01
  2.973911e+01    7.170203e-01
  2.975498e+01    7.233568e-01
  2.977086e+01    7.173904e-01
  2.978673e+01    7.186015e-01
  2.980261e+01    7.301463e-01
  2.981848e+01    7.193987e-01
  2.983436e+01    7.239299e-01
  2.985024e+01    7.095045e-01
  2.986611e+01    7.029817e-01
  2.988199e+01    7.102355e-01
  2.989786e+01    7.221718e-01
  2.991374e+01    7.046884e-01
  2.992961e+01    6.847414e-01
  2.994549e+01    7.186771e-01
  2.996136e+01    7.269045e-01
  2.997724e+01    7.200079e-01
  2.999312e+01    7.109905e-01
  3.000899e+01    7.032946e-01
  3.002487e+01    7.100052e-01
  3.004074e+01    7.162071e-01
  3.005662e+01    7.426518e-01
  3.007249e+01    7.313789e-01
  3.008837e+01    7.223860e-01
  3.010424e+01    7.345575e-01
  3.012012e+01    7.298343e-01
  3.013600e+01    6.985521e-01
  3.015187e+01    7.291456e-01
  3.016775e+01    7.205248e-01
  3.018362e+01    7.124443e-01
  3.019950e+01    7.274908e-01
  3.021537e+01    7.295735e-01
  3.023125e+01    7.168332e-01
  3.024712e+01    7.128016e-01
  3.026300e+01    7.098831e-01
  3.027888e+01    7.090021e-01
  3.029475e+01    7.188241e-01
  3.031063e+01    7.027329e-01
  3.032650e+01    7.055575e-01
  3.034238e+01    7.146414e-01
  3.035825e+01    7.046769e-01
  3.037413e+01    7.087781e-01
  3.039000e+01    6.984121e-01
  3.040588e+01    7.365980e-01
  3.042176e+01    7.178992e-01
  3.043763e+01    6.969482e-01
  3.045351e+01    7.074265e-01
  3.046938e+01    6.996015e-01
  3.048526e+01    7.033299e-01
  3.050113e+01    7.018186e-01
  3.051701e+01    6.940178e-01
  3.053288e+01    7.130857e-01
  3.054876e+01    7.304756e-01
  3.056464e+01    7.150047e-01
  3.058051e+01    7.093154e-01
  3.059639e+01    7.151743e-01
  3.061226e+01    7.158967e-01
  3.062814e+01    7.204717e-01
  3.064401e+01    7.374631e-01
  3.065989e+01    7.147627e-01
  3.067577e+01    6.969754e-01
  3.069164e+01    7.172776e-01
  3.070752e+01    7.113066e-01
  3.072339e+01    7.357988e-01
  3.073927e+01    7.311855e-01
  3.075514e+01    7.180052e-01
  3.077102e+01    7.027217e-01
  3.078689e+01    7.031060e-01
  3.080277e+01    6.957110e-01
  3.081865e+01    7.125424e-01
  3.083452e+01    7.218607e-01
  3.085040e+01    7.113420e-01
  3.086627e+01    7.281745e-01
  3.088215e+01    6.966904e-01
  3.089802e+01    7.024266e-01
  3.091390e+01    7.033467e-01
  3.092977e+01    6.946905e-01
  3.094565e+01    6.942376e-01
  3.096153e+01    6.948629e-01
  3.097740e+01    6.981068e-01
  3.099328e+01    7.233453e-01
  3.100915e+01    7.217902e-01
  3.102503e+01    7.350075e-01
  3.104090e+01    6.994414e-01
  3.105678e+01    6.988338e-01
  3.107265e+01    7.304043e-01
  3.108853e+01    7.087303e-01
  3.110441e+01    7.244262e-01
  3.112028e+01    7.150840e-01
  3.113616e+01    7.054150e-01
  3.115203e+01    7.135461e-01
  3.116791e+01    7.217160e-01
  3.118378e+01    7.209904e-01
  3.119966e+01    7.344785e-01
  3.121553e+01    7.367331e-01
  3.123141e+01    7.374866e-01
  3.124729e+01    7.241542e-01
  3.126316e+01    7.169464e-01
  3.127904e+01    7.389783e-01
  3.129491e+01    7.249244e-01
  3.131079e+01    7.174380e-01
  3.132666e+01    7.261522e-01
  3.134254e+01    7.357659e-01
  3.135841e+01    7.297394e-01
  3.137429e+01    7.511901e-01
  3.139017e+01    7.310268e-01
  3.140604e+01    7.477700e-01
  3.142192e+01    7.268938e-01
  3.143779e+01    7.323666e-01
  3.145367e+01    7.474235e-01
  3.146954e+01    7.409881e-01
  3.148542e+01    7.652412e-01
  3.150129e+01    7.574168e-01
  3.151717e+01    7.503588e-01
  3.153305e+01    7.583744e-01
  3.154892e+01    7.722209e-01
  3.156480e+01    7.826015e-01
  3.158067e+01    7.862781e-01
  3.159655e+01    7.892647e-01
  3.161242e+01    8.040047e-01
  3.162830e+01    8.390456e-01
  3.164418e+01    8.461384e-01
  3.166005e+01    8.573509e-01
  3.167593e+01    9.041766e-01
  3.169180e+01    9.317176e-01
  3.170768e+01    9.180299e-01
  3.172355e+01    9.557743e-01
  3.173943e+01    1.010124e+00
  3.175530e+01    1.064250e+00
  3.177118e+01    1.131303e+00
  3.178706e+01    1.207452e+00
  3.180293e+01    1.299619e+00
  3.181881e+01    1.408148e+00
  3.183468e+01    1.540260e+00
  3.185056e+01    1.694769e+00
  3.186643e+01    1.879091e+00
  3.188231e+01    2.003366e+00
  3.189818e+01    2.168448e+00
  3.191406e+01    2.257400e+00
  3.192994e+01    2.372710e+00
  3.194581e+01    2.357127e+00
  3.196169e+01    2.270784e+00
  3.197756e+01    2.098835e+00
  3.199344e+01    1.917907e+00
  3.200931e+01    1.772944e+00
  3.202519e+01    1.618013e+00
  3.204106e+01    1.460164e+00
  3.205694e+01    1.315015e+00
  3.207282e+01    1.218356e+00
  3.208869e+01    1.111585e+00
  3.210457e+01    1.064534e+00
  3.212044e+01    1.033850e+00
  3.213632e+01    9.747729e-01
  3.215219e+01    9.045074e-01
  3.216807e+01    8.985540e-01
  3.218394e+01    8.669670e-01
  3.219982e+01    8.761652e-01
  3.221570e+01    8.403087e-01
  3.223157e+01    8.011102e-01
  3.224745e+01    7.850397e-01
  3.226332e+01    8.027622e-01
  3.227920e+01    7.797239e-01
  3.229507e+01    7.773715e-01
  3.231095e+01    7.541426e-01
  3.232682e+01    7.901307e-01
  3.234270e+01    7.749887e-01
  3.235858e+01    7.468308e-01
  3.237445e+01    7.540796e-01
  3.239033e+01    7.486108e-01
  3.240620e+01    7.228173e-01
  3.242208e+01    7.607794e-01
  3.243795e+01    7.417342e-01
  3.245383e+01    7.384653e-01
  3.246970e+01    7.339769e-01
  3.248558e+01    7.179225e-01
  3.250146e+01    7.311348e-01
  3.251733e+01    7.155802e-01
  3.253321e+01    7.051755e-01
  3.254908e+01    7.153973e-01
