# == pyFAI calibration ==
# Distance Sample to Detector: 0.3999999939076516 m
# PONI: 9.750e-02, 1.135e-01 m
# Rotations: -0.000175 0.000000 -0.000000 rad
# 
# == Fit2d calibration ==
# Distance Sample-beamCenter: 400.000 mm
# Center: x=1514.000, y=1300.000 pix
# Tilt: 0.010 deg  TiltPlanRot: 0.010 deg
# 
# Detector Detector	 Spline= None	 PixelSize= 7.500e-05, 7.500e-05 m
#    Detector has a mask: False 
#    Detector has a dark current: False 
#    detector has a flat field: False 
# 
# Wavelength: 6.888e-11 m
# Mask applied: user provided
# Dark current applied: False
# Flat field applied: False
# Polarization factor: 0.99
# Normalization factor: 1.0
# --> /home/myspot/data/2024_07_Rosario/Ru-CGO-ex/2024-07-27_002_Ru-CGO-ex_Activtation_ramp_000002_data_000157.dat
#       q_nm^-1             I 
  2.003187e-02    0.000000e+00
  3.590745e-02    7.159502e-02
  5.178302e-02    9.764390e-02
  6.765859e-02    7.502810e-02
  8.353417e-02    1.045163e-01
  9.940974e-02    7.223085e-02
  1.152853e-01    3.507604e-02
  1.311609e-01    4.337301e-02
  1.470365e-01    1.388489e-01
  1.629120e-01    4.706461e-02
  1.787876e-01    1.797042e-03
  1.946632e-01    1.052960e-02
  2.105388e-01    3.805593e-02
  2.264143e-01    2.671707e-02
  2.422899e-01    1.428251e-02
  2.581655e-01    3.355033e-02
  2.740411e-01    4.939852e-02
  2.899166e-01    4.874463e-02
  3.057922e-01    5.048520e-02
  3.216678e-01    3.572734e-02
  3.375433e-01    2.859506e-02
  3.534189e-01    3.630657e-02
  3.692945e-01    4.978323e-02
  3.851701e-01    2.147251e-02
  4.010456e-01    1.992207e-02
  4.169212e-01    2.344786e-02
  4.327968e-01    4.539279e-02
  4.486724e-01    2.292079e-02
  4.645479e-01    2.549582e-02
  4.804235e-01    3.571025e-02
  4.962991e-01    4.792889e-02
  5.121747e-01    3.641983e-02
  5.280502e-01    4.747957e-02
  5.439258e-01    2.711923e-02
  5.598014e-01    4.480530e-02
  5.756770e-01    4.993356e-02
  5.915525e-01    1.906718e-02
  6.074281e-01    1.881442e-02
  6.233037e-01    2.014748e-02
  6.391793e-01    2.215525e-02
  6.550548e-01    4.721186e-02
  6.709304e-01    2.628403e-02
  6.868060e-01    1.625404e-02
  7.026815e-01    4.532168e-02
  7.185571e-01    3.352078e-02
  7.344327e-01    1.613978e-02
  7.503083e-01    2.403454e-02
  7.661838e-01    4.745101e-02
  7.820594e-01    8.799678e-02
  7.979350e-01    1.440145e-01
  8.138106e-01    2.194347e-01
  8.296861e-01    2.616051e-01
  8.455617e-01    2.930314e-01
  8.614373e-01    3.837521e-01
  8.773129e-01    4.235879e-01
  8.931884e-01    4.803878e-01
  9.090640e-01    5.572349e-01
  9.249396e-01    6.262640e-01
  9.408152e-01    6.981484e-01
  9.566907e-01    7.687558e-01
  9.725663e-01    8.371762e-01
  9.884419e-01    1.037606e+00
  1.004317e+00    1.053795e+00
  1.020193e+00    1.050436e+00
  1.036069e+00    1.113587e+00
  1.051944e+00    1.247119e+00
  1.067820e+00    1.294516e+00
  1.083695e+00    1.347401e+00
  1.099571e+00    1.397310e+00
  1.115446e+00    1.478945e+00
  1.131322e+00    1.546790e+00
  1.147198e+00    1.397376e+00
  1.163073e+00    1.417757e+00
  1.178949e+00    1.528993e+00
  1.194824e+00    1.650891e+00
  1.210700e+00    1.866060e+00
  1.226575e+00    2.085650e+00
  1.242451e+00    2.374012e+00
  1.258327e+00    2.419028e+00
  1.274202e+00    2.362100e+00
  1.290078e+00    2.362281e+00
  1.305953e+00    2.424354e+00
  1.321829e+00    2.512738e+00
  1.337705e+00    2.598528e+00
  1.353580e+00    2.712628e+00
  1.369456e+00    2.580959e+00
  1.385331e+00    2.448835e+00
  1.401207e+00    2.567279e+00
  1.417082e+00    2.595743e+00
  1.432958e+00    2.692206e+00
  1.448834e+00    2.676288e+00
  1.464709e+00    2.580422e+00
  1.480585e+00    2.646902e+00
  1.496460e+00    2.702646e+00
  1.512336e+00    2.808306e+00
  1.528211e+00    2.782669e+00
  1.544087e+00    2.860672e+00
  1.559963e+00    2.877422e+00
  1.575838e+00    2.930675e+00
  1.591714e+00    2.945754e+00
  1.607589e+00    2.792464e+00
  1.623465e+00    2.918806e+00
  1.639340e+00    2.857305e+00
  1.655216e+00    2.915312e+00
  1.671092e+00    2.798147e+00
  1.686967e+00    2.798424e+00
  1.702843e+00    2.869879e+00
  1.718718e+00    2.735713e+00
  1.734594e+00    2.745737e+00
  1.750469e+00    2.700923e+00
  1.766345e+00    2.667709e+00
  1.782221e+00    2.727737e+00
  1.798096e+00    2.853822e+00
  1.813972e+00    2.781219e+00
  1.829847e+00    2.789219e+00
  1.845723e+00    2.792633e+00
  1.861598e+00    2.730328e+00
  1.877474e+00    2.725508e+00
  1.893350e+00    2.793288e+00
  1.909225e+00    2.754647e+00
  1.925101e+00    2.683553e+00
  1.940976e+00    2.725390e+00
  1.956852e+00    2.734216e+00
  1.972727e+00    2.788581e+00
  1.988603e+00    2.757325e+00
  2.004479e+00    2.767104e+00
  2.020354e+00    2.748045e+00
  2.036230e+00    2.737442e+00
  2.052105e+00    2.662372e+00
  2.067981e+00    2.699402e+00
  2.083856e+00    2.777906e+00
  2.099732e+00    2.722192e+00
  2.115608e+00    2.670353e+00
  2.131483e+00    2.751704e+00
  2.147359e+00    2.832011e+00
  2.163234e+00    2.686304e+00
  2.179110e+00    2.738595e+00
  2.194985e+00    2.822634e+00
  2.210861e+00    2.807675e+00
  2.226737e+00    2.731005e+00
  2.242612e+00    2.630712e+00
  2.258488e+00    2.677316e+00
  2.274363e+00    2.689222e+00
  2.290239e+00    2.732045e+00
  2.306115e+00    2.831065e+00
  2.321990e+00    2.847527e+00
  2.337866e+00    2.764646e+00
  2.353741e+00    2.733296e+00
  2.369617e+00    2.777029e+00
  2.385492e+00    2.778866e+00
  2.401368e+00    2.758278e+00
  2.417244e+00    2.863676e+00
  2.433119e+00    2.860172e+00
  2.448995e+00    2.728646e+00
  2.464870e+00    2.696288e+00
  2.480746e+00    2.733701e+00
  2.496621e+00    2.675148e+00
  2.512497e+00    2.862219e+00
  2.528373e+00    2.804577e+00
  2.544248e+00    2.720730e+00
  2.560124e+00    2.731822e+00
  2.575999e+00    2.750694e+00
  2.591875e+00    2.741652e+00
  2.607750e+00    2.703263e+00
  2.623626e+00    2.804095e+00
  2.639502e+00    2.839950e+00
  2.655377e+00    2.906719e+00
  2.671253e+00    2.768897e+00
  2.687128e+00    2.785265e+00
  2.703004e+00    2.812785e+00
  2.718879e+00    2.849515e+00
  2.734755e+00    2.706793e+00
  2.750631e+00    2.806441e+00
  2.766506e+00    2.907220e+00
  2.782382e+00    2.961362e+00
  2.798257e+00    2.766292e+00
  2.814133e+00    2.813477e+00
  2.830008e+00    2.874076e+00
  2.845884e+00    2.882898e+00
  2.861760e+00    2.826866e+00
  2.877635e+00    2.827186e+00
  2.893511e+00    2.792965e+00
  2.909386e+00    2.812577e+00
  2.925262e+00    2.756471e+00
  2.941137e+00    2.848634e+00
  2.957013e+00    2.841882e+00
  2.972889e+00    2.871850e+00
  2.988764e+00    2.887754e+00
  3.004640e+00    2.813065e+00
  3.020515e+00    2.838757e+00
  3.036391e+00    2.880319e+00
  3.052266e+00    2.916980e+00
  3.068142e+00    2.849715e+00
  3.084018e+00    2.856567e+00
  3.099893e+00    2.920808e+00
  3.115769e+00    2.871673e+00
  3.131644e+00    2.846110e+00
  3.147520e+00    2.867537e+00
  3.163395e+00    2.987383e+00
  3.179271e+00    3.035751e+00
  3.195147e+00    2.969149e+00
  3.211022e+00    2.959000e+00
  3.226898e+00    2.906024e+00
  3.242773e+00    2.909180e+00
  3.258649e+00    3.015449e+00
  3.274525e+00    2.974219e+00
  3.290400e+00    2.899981e+00
  3.306276e+00    2.920871e+00
  3.322151e+00    2.978832e+00
  3.338027e+00    2.941972e+00
  3.353902e+00    2.914792e+00
  3.369778e+00    2.971350e+00
  3.385654e+00    2.879771e+00
  3.401529e+00    2.902373e+00
  3.417405e+00    2.901329e+00
  3.433280e+00    2.992777e+00
  3.449156e+00    2.941207e+00
  3.465031e+00    2.925567e+00
  3.480907e+00    2.954371e+00
  3.496783e+00    2.981609e+00
  3.512658e+00    2.866487e+00
  3.528534e+00    2.998726e+00
  3.544409e+00    3.047536e+00
  3.560285e+00    2.967200e+00
  3.576160e+00    3.041631e+00
  3.592036e+00    3.017948e+00
  3.607912e+00    2.928893e+00
  3.623787e+00    3.031836e+00
  3.639663e+00    2.983454e+00
  3.655538e+00    2.982593e+00
  3.671414e+00    3.050409e+00
  3.687289e+00    3.015030e+00
  3.703165e+00    2.919028e+00
  3.719041e+00    2.991728e+00
  3.734916e+00    2.971854e+00
  3.750792e+00    2.977191e+00
  3.766667e+00    2.982009e+00
  3.782543e+00    2.923462e+00
  3.798418e+00    2.991733e+00
  3.814294e+00    2.995212e+00
  3.830170e+00    2.942657e+00
  3.846045e+00    3.028603e+00
  3.861921e+00    2.978785e+00
  3.877796e+00    2.966929e+00
  3.893672e+00    2.937059e+00
  3.909547e+00    3.007255e+00
  3.925423e+00    3.109918e+00
  3.941299e+00    3.081301e+00
  3.957174e+00    3.015511e+00
  3.973050e+00    3.051822e+00
  3.988925e+00    3.046754e+00
  4.004801e+00    3.050110e+00
  4.020676e+00    2.985359e+00
  4.036552e+00    2.974809e+00
  4.052428e+00    3.080481e+00
  4.068303e+00    3.095783e+00
  4.084179e+00    3.041901e+00
  4.100054e+00    3.017731e+00
  4.115930e+00    3.120273e+00
  4.131806e+00    3.039646e+00
  4.147681e+00    2.994839e+00
  4.163557e+00    3.096326e+00
  4.179432e+00    3.005988e+00
  4.195308e+00    3.004860e+00
  4.211183e+00    3.074180e+00
  4.227059e+00    3.034757e+00
  4.242935e+00    2.964518e+00
  4.258810e+00    3.046653e+00
  4.274686e+00    3.102256e+00
  4.290561e+00    3.057192e+00
  4.306437e+00    3.024143e+00
  4.322312e+00    3.032597e+00
  4.338188e+00    3.012318e+00
  4.354064e+00    3.012926e+00
  4.369939e+00    3.118043e+00
  4.385815e+00    3.080882e+00
  4.401690e+00    2.979645e+00
  4.417566e+00    3.058828e+00
  4.433441e+00    3.096859e+00
  4.449317e+00    3.095106e+00
  4.465193e+00    3.082770e+00
  4.481068e+00    3.060735e+00
  4.496944e+00    3.104552e+00
  4.512819e+00    3.066621e+00
  4.528695e+00    3.049633e+00
  4.544570e+00    3.062139e+00
  4.560446e+00    3.104388e+00
  4.576322e+00    3.120678e+00
  4.592197e+00    3.110405e+00
  4.608073e+00    3.107860e+00
  4.623948e+00    3.092263e+00
  4.639824e+00    3.072797e+00
  4.655699e+00    3.102316e+00
  4.671575e+00    3.139874e+00
  4.687451e+00    3.100908e+00
  4.703326e+00    3.029002e+00
  4.719202e+00    3.042872e+00
  4.735077e+00    3.266464e+00
  4.750953e+00    3.234709e+00
  4.766828e+00    3.145213e+00
  4.782704e+00    3.141639e+00
  4.798580e+00    3.084880e+00
  4.814455e+00    3.112993e+00
  4.830331e+00    3.141882e+00
  4.846206e+00    3.022535e+00
  4.862082e+00    3.087858e+00
  4.877957e+00    3.084935e+00
  4.893833e+00    3.174237e+00
  4.909709e+00    3.166761e+00
  4.925584e+00    3.105599e+00
  4.941460e+00    3.132749e+00
  4.957335e+00    3.115769e+00
  4.973211e+00    3.083899e+00
  4.989086e+00    3.137427e+00
  5.004962e+00    3.113698e+00
  5.020838e+00    3.214134e+00
  5.036713e+00    3.222934e+00
  5.052589e+00    3.130464e+00
  5.068464e+00    3.143630e+00
  5.084340e+00    3.030107e+00
  5.100216e+00    3.060160e+00
  5.116091e+00    3.091080e+00
  5.131967e+00    3.123966e+00
  5.147842e+00    3.321824e+00
  5.163718e+00    3.300593e+00
  5.179593e+00    3.157682e+00
  5.195469e+00    3.204530e+00
  5.211345e+00    3.172952e+00
  5.227220e+00    3.143001e+00
  5.243096e+00    3.192660e+00
  5.258971e+00    3.178826e+00
  5.274847e+00    3.127196e+00
  5.290722e+00    3.167865e+00
  5.306598e+00    3.262291e+00
  5.322474e+00    3.216151e+00
  5.338349e+00    3.161751e+00
  5.354225e+00    3.158293e+00
  5.370100e+00    3.182620e+00
  5.385976e+00    3.128882e+00
  5.401851e+00    3.100652e+00
  5.417727e+00    3.099695e+00
  5.433603e+00    3.173993e+00
  5.449478e+00    3.103989e+00
  5.465354e+00    3.033775e+00
  5.481229e+00    3.052634e+00
  5.497105e+00    3.092424e+00
  5.512980e+00    3.048519e+00
  5.528856e+00    3.082995e+00
  5.544732e+00    3.041469e+00
  5.560607e+00    3.070276e+00
  5.576483e+00    3.114534e+00
  5.592358e+00    3.085848e+00
  5.608234e+00    3.073430e+00
  5.624109e+00    3.098632e+00
  5.639985e+00    3.122785e+00
  5.655861e+00    3.066028e+00
  5.671736e+00    3.050672e+00
  5.687612e+00    3.081810e+00
  5.703487e+00    3.077055e+00
  5.719363e+00    3.059734e+00
  5.735238e+00    3.113299e+00
  5.751114e+00    3.169745e+00
  5.766990e+00    3.156408e+00
  5.782865e+00    3.092833e+00
  5.798741e+00    3.027298e+00
  5.814616e+00    2.984360e+00
  5.830492e+00    2.986881e+00
  5.846367e+00    3.056938e+00
  5.862243e+00    3.046883e+00
  5.878119e+00    3.027905e+00
  5.893994e+00    2.990605e+00
  5.909870e+00    3.020813e+00
  5.925745e+00    2.989894e+00
  5.941621e+00    2.983978e+00
  5.957497e+00    3.010533e+00
  5.973372e+00    2.990899e+00
  5.989248e+00    3.004736e+00
  6.005123e+00    3.087378e+00
  6.020999e+00    2.996144e+00
  6.036874e+00    3.007745e+00
  6.052750e+00    3.054416e+00
  6.068626e+00    3.039114e+00
  6.084501e+00    3.033973e+00
  6.100377e+00    3.094444e+00
  6.116252e+00    3.134834e+00
  6.132128e+00    3.120703e+00
  6.148003e+00    3.026031e+00
  6.163879e+00    3.013979e+00
  6.179755e+00    3.073479e+00
  6.195630e+00    3.092268e+00
  6.211506e+00    3.105271e+00
  6.227381e+00    3.030317e+00
  6.243257e+00    3.020059e+00
  6.259132e+00    2.983498e+00
  6.275008e+00    3.019536e+00
  6.290884e+00    3.068678e+00
  6.306759e+00    3.121264e+00
  6.322635e+00    3.105040e+00
  6.338510e+00    3.117383e+00
  6.354386e+00    3.123744e+00
  6.370261e+00    3.170593e+00
  6.386137e+00    3.122371e+00
  6.402013e+00    3.092315e+00
  6.417888e+00    3.046345e+00
  6.433764e+00    3.053202e+00
  6.449639e+00    3.023966e+00
  6.465515e+00    3.084507e+00
  6.481390e+00    3.058252e+00
  6.497266e+00    2.982648e+00
  6.513142e+00    3.072033e+00
  6.529017e+00    3.048277e+00
  6.544893e+00    2.979890e+00
  6.560768e+00    3.039891e+00
  6.576644e+00    3.045501e+00
  6.592519e+00    3.027248e+00
  6.608395e+00    3.090999e+00
  6.624271e+00    3.040343e+00
  6.640146e+00    2.997224e+00
  6.656022e+00    3.028376e+00
  6.671897e+00    3.029506e+00
  6.687773e+00    3.027915e+00
  6.703648e+00    3.021713e+00
  6.719524e+00    2.967964e+00
  6.735400e+00    2.994826e+00
  6.751275e+00    3.027783e+00
  6.767151e+00    2.986810e+00
  6.783026e+00    3.057560e+00
  6.798902e+00    3.075449e+00
  6.814777e+00    3.068869e+00
  6.830653e+00    3.075403e+00
  6.846529e+00    3.041092e+00
  6.862404e+00    2.991577e+00
  6.878280e+00    3.069816e+00
  6.894155e+00    3.005912e+00
  6.910031e+00    3.003706e+00
  6.925907e+00    3.044151e+00
  6.941782e+00    3.048801e+00
  6.957658e+00    2.980683e+00
  6.973533e+00    2.953888e+00
  6.989409e+00    3.051429e+00
  7.005284e+00    3.073640e+00
  7.021160e+00    3.002414e+00
  7.037036e+00    3.023028e+00
  7.052911e+00    3.015174e+00
  7.068787e+00    3.017475e+00
  7.084662e+00    3.071378e+00
  7.100538e+00    3.031429e+00
  7.116413e+00    3.018469e+00
  7.132289e+00    3.004836e+00
  7.148165e+00    2.998628e+00
  7.164040e+00    2.993593e+00
  7.179916e+00    3.029597e+00
  7.195791e+00    3.039603e+00
  7.211667e+00    3.001322e+00
  7.227542e+00    3.008199e+00
  7.243418e+00    3.060722e+00
  7.259294e+00    3.051463e+00
  7.275169e+00    2.946368e+00
  7.291045e+00    2.926383e+00
  7.306920e+00    3.022641e+00
  7.322796e+00    3.027287e+00
  7.338671e+00    2.964800e+00
  7.354547e+00    2.911016e+00
  7.370423e+00    2.968657e+00
  7.386298e+00    3.035249e+00
  7.402174e+00    3.010751e+00
  7.418049e+00    3.079641e+00
  7.433925e+00    3.041766e+00
  7.449800e+00    3.001253e+00
  7.465676e+00    2.935130e+00
  7.481552e+00    3.002613e+00
  7.497427e+00    2.954090e+00
  7.513303e+00    2.975988e+00
  7.529178e+00    2.987451e+00
  7.545054e+00    3.038265e+00
  7.560929e+00    2.987814e+00
  7.576805e+00    2.926749e+00
  7.592681e+00    2.964783e+00
  7.608556e+00    2.949511e+00
  7.624432e+00    2.956638e+00
  7.640307e+00    2.991387e+00
  7.656183e+00    3.020641e+00
  7.672058e+00    2.936027e+00
  7.687934e+00    3.003003e+00
  7.703810e+00    2.934154e+00
  7.719685e+00    2.935041e+00
  7.735561e+00    3.001110e+00
  7.751436e+00    3.009637e+00
  7.767312e+00    2.968887e+00
  7.783187e+00    2.931851e+00
  7.799063e+00    2.883125e+00
  7.814939e+00    2.871127e+00
  7.830814e+00    2.986676e+00
  7.846690e+00    3.062138e+00
  7.862565e+00    2.941671e+00
  7.878441e+00    2.900787e+00
  7.894317e+00    2.947521e+00
  7.910192e+00    2.982402e+00
  7.926068e+00    2.903505e+00
  7.941943e+00    2.916012e+00
  7.957819e+00    2.933240e+00
  7.973694e+00    2.951976e+00
  7.989570e+00    3.016998e+00
  8.005446e+00    2.961497e+00
  8.021321e+00    2.943589e+00
  8.037197e+00    2.914625e+00
  8.053072e+00    2.915313e+00
  8.068948e+00    2.927993e+00
  8.084823e+00    2.949433e+00
  8.100699e+00    2.991151e+00
  8.116575e+00    3.002411e+00
  8.132450e+00    2.973234e+00
  8.148326e+00    2.974402e+00
  8.164201e+00    2.985250e+00
  8.180077e+00    3.029153e+00
  8.195952e+00    2.977077e+00
  8.211828e+00    2.921831e+00
  8.227704e+00    2.936909e+00
  8.243579e+00    2.987101e+00
  8.259455e+00    2.997867e+00
  8.275330e+00    3.006341e+00
  8.291206e+00    2.948985e+00
  8.307081e+00    2.909748e+00
  8.322957e+00    2.903225e+00
  8.338833e+00    2.952008e+00
  8.354708e+00    2.892350e+00
  8.370584e+00    2.906475e+00
  8.386459e+00    2.952011e+00
  8.402335e+00    2.962426e+00
  8.418210e+00    2.905603e+00
  8.434086e+00    2.899825e+00
  8.449962e+00    2.897918e+00
  8.465837e+00    2.879453e+00
  8.481713e+00    2.907758e+00
  8.497588e+00    2.957191e+00
  8.513464e+00    2.937796e+00
  8.529339e+00    2.918161e+00
  8.545215e+00    2.918683e+00
  8.561091e+00    2.852194e+00
  8.576966e+00    2.830275e+00
  8.592842e+00    2.848987e+00
  8.608717e+00    2.873184e+00
  8.624593e+00    2.860451e+00
  8.640468e+00    2.873728e+00
  8.656344e+00    2.891265e+00
  8.672220e+00    2.873299e+00
  8.688095e+00    2.861436e+00
  8.703971e+00    2.908320e+00
  8.719846e+00    2.876133e+00
  8.735722e+00    2.885507e+00
  8.751598e+00    2.905379e+00
  8.767473e+00    2.847581e+00
  8.783349e+00    2.935323e+00
  8.799224e+00    2.851559e+00
  8.815100e+00    2.841193e+00
  8.830975e+00    2.878620e+00
  8.846851e+00    2.812428e+00
  8.862727e+00    2.834991e+00
  8.878602e+00    2.814636e+00
  8.894478e+00    2.818713e+00
  8.910353e+00    2.873988e+00
  8.926229e+00    2.823560e+00
  8.942104e+00    2.826542e+00
  8.957980e+00    2.815210e+00
  8.973856e+00    2.818040e+00
  8.989731e+00    2.860871e+00
  9.005607e+00    2.811527e+00
  9.021482e+00    2.793290e+00
  9.037358e+00    2.783173e+00
  9.053233e+00    2.785316e+00
  9.069109e+00    2.812925e+00
  9.084985e+00    2.823450e+00
  9.100860e+00    2.776394e+00
  9.116736e+00    2.836186e+00
  9.132611e+00    2.924627e+00
  9.148487e+00    2.879515e+00
  9.164362e+00    2.869297e+00
  9.180238e+00    2.824365e+00
  9.196114e+00    2.841833e+00
  9.211989e+00    2.842460e+00
  9.227865e+00    2.792320e+00
  9.243740e+00    2.815315e+00
  9.259616e+00    2.828599e+00
  9.275491e+00    2.832020e+00
  9.291367e+00    2.804651e+00
  9.307243e+00    2.776811e+00
  9.323118e+00    2.798131e+00
  9.338994e+00    2.744327e+00
  9.354869e+00    2.751143e+00
  9.370745e+00    2.807106e+00
  9.386620e+00    2.814309e+00
  9.402496e+00    2.778983e+00
  9.418372e+00    2.776261e+00
  9.434247e+00    2.743059e+00
  9.450123e+00    2.754736e+00
  9.465998e+00    2.824911e+00
  9.481874e+00    2.827754e+00
  9.497749e+00    2.796936e+00
  9.513625e+00    2.789397e+00
  9.529501e+00    2.752253e+00
  9.545376e+00    2.749444e+00
  9.561252e+00    2.760870e+00
  9.577127e+00    2.728029e+00
  9.593003e+00    2.776412e+00
  9.608878e+00    2.766246e+00
  9.624754e+00    2.706281e+00
  9.640630e+00    2.786561e+00
  9.656505e+00    2.727472e+00
  9.672381e+00    2.750492e+00
  9.688256e+00    2.736599e+00
  9.704132e+00    2.689378e+00
  9.720008e+00    2.686908e+00
  9.735883e+00    2.688247e+00
  9.751759e+00    2.698227e+00
  9.767634e+00    2.742825e+00
  9.783510e+00    2.730868e+00
  9.799385e+00    2.737686e+00
  9.815261e+00    2.741370e+00
  9.831137e+00    2.695421e+00
  9.847012e+00    2.742831e+00
  9.862888e+00    2.679452e+00
  9.878763e+00    2.644393e+00
  9.894639e+00    2.728117e+00
  9.910514e+00    2.730028e+00
  9.926390e+00    2.713999e+00
  9.942266e+00    2.721637e+00
  9.958141e+00    2.714002e+00
  9.974017e+00    2.693681e+00
  9.989892e+00    2.693691e+00
  1.000577e+01    2.706176e+00
  1.002164e+01    2.697673e+00
  1.003752e+01    2.712371e+00
  1.005339e+01    2.687650e+00
  1.006927e+01    2.667695e+00
  1.008515e+01    2.653042e+00
  1.010102e+01    2.669823e+00
  1.011690e+01    2.646219e+00
  1.013277e+01    2.641784e+00
  1.014865e+01    2.668035e+00
  1.016452e+01    2.660273e+00
  1.018040e+01    2.675229e+00
  1.019627e+01    2.673228e+00
  1.021215e+01    2.689807e+00
  1.022803e+01    2.635802e+00
  1.024390e+01    2.624449e+00
  1.025978e+01    2.563256e+00
  1.027565e+01    2.601359e+00
  1.029153e+01    2.594804e+00
  1.030740e+01    2.613701e+00
  1.032328e+01    2.661014e+00
  1.033915e+01    2.647854e+00
  1.035503e+01    2.625002e+00
  1.037091e+01    2.609091e+00
  1.038678e+01    2.639795e+00
  1.040266e+01    2.599566e+00
  1.041853e+01    2.611532e+00
  1.043441e+01    2.533348e+00
  1.045028e+01    2.580550e+00
  1.046616e+01    2.596435e+00
  1.048204e+01    2.572422e+00
  1.049791e+01    2.606788e+00
  1.051379e+01    2.587664e+00
  1.052966e+01    2.612697e+00
  1.054554e+01    2.609863e+00
  1.056141e+01    2.568163e+00
  1.057729e+01    2.575363e+00
  1.059316e+01    2.535191e+00
  1.060904e+01    2.576823e+00
  1.062492e+01    2.557253e+00
  1.064079e+01    2.560362e+00
  1.065667e+01    2.575958e+00
  1.067254e+01    2.641690e+00
  1.068842e+01    2.609746e+00
  1.070429e+01    2.571139e+00
  1.072017e+01    2.557508e+00
  1.073604e+01    2.544425e+00
  1.075192e+01    2.525237e+00
  1.076780e+01    2.556338e+00
  1.078367e+01    2.485865e+00
  1.079955e+01    2.475242e+00
  1.081542e+01    2.515620e+00
  1.083130e+01    2.565614e+00
  1.084717e+01    2.605709e+00
  1.086305e+01    2.573271e+00
  1.087892e+01    2.534740e+00
  1.089480e+01    2.547184e+00
  1.091068e+01    2.526790e+00
  1.092655e+01    2.529942e+00
  1.094243e+01    2.507154e+00
  1.095830e+01    2.486166e+00
  1.097418e+01    2.531920e+00
  1.099005e+01    2.523731e+00
  1.100593e+01    2.499818e+00
  1.102180e+01    2.512856e+00
  1.103768e+01    2.511508e+00
  1.105356e+01    2.535490e+00
  1.106943e+01    2.526759e+00
  1.108531e+01    2.510111e+00
  1.110118e+01    2.524904e+00
  1.111706e+01    2.516143e+00
  1.113293e+01    2.501603e+00
  1.114881e+01    2.476595e+00
  1.116468e+01    2.494384e+00
  1.118056e+01    2.489741e+00
  1.119644e+01    2.472894e+00
  1.121231e+01    2.492006e+00
  1.122819e+01    2.497706e+00
  1.124406e+01    2.469543e+00
  1.125994e+01    2.449425e+00
  1.127581e+01    2.425395e+00
  1.129169e+01    2.412336e+00
  1.130756e+01    2.399855e+00
  1.132344e+01    2.446749e+00
  1.133932e+01    2.474360e+00
  1.135519e+01    2.430247e+00
  1.137107e+01    2.470587e+00
  1.138694e+01    2.501012e+00
  1.140282e+01    2.436945e+00
  1.141869e+01    2.372069e+00
  1.143457e+01    2.407017e+00
  1.145045e+01    2.436379e+00
  1.146632e+01    2.467228e+00
  1.148220e+01    2.425748e+00
  1.149807e+01    2.394085e+00
  1.151395e+01    2.398784e+00
  1.152982e+01    2.414997e+00
  1.154570e+01    2.459712e+00
  1.156157e+01    2.414997e+00
  1.157745e+01    2.409327e+00
  1.159333e+01    2.404719e+00
  1.160920e+01    2.425527e+00
  1.162508e+01    2.457893e+00
  1.164095e+01    2.422487e+00
  1.165683e+01    2.371519e+00
  1.167270e+01    2.364527e+00
  1.168858e+01    2.409916e+00
  1.170445e+01    2.402312e+00
  1.172033e+01    2.385403e+00
  1.173621e+01    2.354275e+00
  1.175208e+01    2.348113e+00
  1.176796e+01    2.349031e+00
  1.178383e+01    2.341425e+00
  1.179971e+01    2.381776e+00
  1.181558e+01    2.393877e+00
  1.183146e+01    2.412775e+00
  1.184733e+01    2.394362e+00
  1.186321e+01    2.394751e+00
  1.187909e+01    2.364604e+00
  1.189496e+01    2.331184e+00
  1.191084e+01    2.345140e+00
  1.192671e+01    2.377024e+00
  1.194259e+01    2.310118e+00
  1.195846e+01    2.283276e+00
  1.197434e+01    2.307279e+00
  1.199021e+01    2.313435e+00
  1.200609e+01    2.356320e+00
  1.202197e+01    2.318201e+00
  1.203784e+01    2.300597e+00
  1.205372e+01    2.326548e+00
  1.206959e+01    2.320056e+00
  1.208547e+01    2.323944e+00
  1.210134e+01    2.295039e+00
  1.211722e+01    2.294425e+00
  1.213309e+01    2.350356e+00
  1.214897e+01    2.339077e+00
  1.216485e+01    2.341234e+00
  1.218072e+01    2.338531e+00
  1.219660e+01    2.321234e+00
  1.221247e+01    2.323325e+00
  1.222835e+01    2.326256e+00
  1.224422e+01    2.321580e+00
  1.226010e+01    2.329036e+00
  1.227597e+01    2.316780e+00
  1.229185e+01    2.333214e+00
  1.230773e+01    2.329654e+00
  1.232360e+01    2.331650e+00
  1.233948e+01    2.319076e+00
  1.235535e+01    2.334918e+00
  1.237123e+01    2.328860e+00
  1.238710e+01    2.309540e+00
  1.240298e+01    2.315190e+00
  1.241886e+01    2.343491e+00
  1.243473e+01    2.351955e+00
  1.245061e+01    2.359444e+00
  1.246648e+01    2.368067e+00
  1.248236e+01    2.370169e+00
  1.249823e+01    2.349726e+00
  1.251411e+01    2.326996e+00
  1.252998e+01    2.357667e+00
  1.254586e+01    2.368675e+00
  1.256174e+01    2.370545e+00
  1.257761e+01    2.352379e+00
  1.259349e+01    2.391219e+00
  1.260936e+01    2.395641e+00
  1.262524e+01    2.374681e+00
  1.264111e+01    2.378357e+00
  1.265699e+01    2.438542e+00
  1.267286e+01    2.506780e+00
  1.268874e+01    2.469722e+00
  1.270462e+01    2.469660e+00
  1.272049e+01    2.491003e+00
  1.273637e+01    2.504190e+00
  1.275224e+01    2.530488e+00
  1.276812e+01    2.576866e+00
  1.278399e+01    2.648278e+00
  1.279987e+01    2.712414e+00
  1.281574e+01    2.726980e+00
  1.283162e+01    2.761785e+00
  1.284750e+01    2.812781e+00
  1.286337e+01    2.921841e+00
  1.287925e+01    3.037434e+00
  1.289512e+01    3.161284e+00
  1.291100e+01    3.296387e+00
  1.292687e+01    3.508198e+00
  1.294275e+01    3.721019e+00
  1.295862e+01    4.042722e+00
  1.297450e+01    4.406806e+00
  1.299038e+01    4.842861e+00
  1.300625e+01    5.490817e+00
  1.302213e+01    6.262770e+00
  1.303800e+01    7.218141e+00
  1.305388e+01    8.396559e+00
  1.306975e+01    9.696443e+00
  1.308563e+01    1.098199e+01
  1.310150e+01    1.218058e+01
  1.311738e+01    1.328522e+01
  1.313326e+01    1.443684e+01
  1.314913e+01    1.560003e+01
  1.316501e+01    1.619699e+01
  1.318088e+01    1.640284e+01
  1.319676e+01    1.598761e+01
  1.321263e+01    1.479150e+01
  1.322851e+01    1.295854e+01
  1.324438e+01    1.103705e+01
  1.326026e+01    9.242480e+00
  1.327614e+01    7.791996e+00
  1.329201e+01    6.687690e+00
  1.330789e+01    5.748869e+00
  1.332376e+01    5.099086e+00
  1.333964e+01    4.680063e+00
  1.335551e+01    4.225260e+00
  1.337139e+01    3.873146e+00
  1.338727e+01    3.598541e+00
  1.340314e+01    3.421589e+00
  1.341902e+01    3.195819e+00
  1.343489e+01    3.032059e+00
  1.345077e+01    2.932535e+00
  1.346664e+01    2.801385e+00
  1.348252e+01    2.723369e+00
  1.349839e+01    2.677858e+00
  1.351427e+01    2.627502e+00
  1.353015e+01    2.542340e+00
  1.354602e+01    2.502277e+00
  1.356190e+01    2.452880e+00
  1.357777e+01    2.443801e+00
  1.359365e+01    2.391025e+00
  1.360952e+01    2.388414e+00
  1.362540e+01    2.311692e+00
  1.364127e+01    2.310546e+00
  1.365715e+01    2.265116e+00
  1.367303e+01    2.262213e+00
  1.368890e+01    2.274453e+00
  1.370478e+01    2.238032e+00
  1.372065e+01    2.209902e+00
  1.373653e+01    2.191652e+00
  1.375240e+01    2.209647e+00
  1.376828e+01    2.205024e+00
  1.378415e+01    2.174098e+00
  1.380003e+01    2.173954e+00
  1.381591e+01    2.143528e+00
  1.383178e+01    2.106300e+00
  1.384766e+01    2.151601e+00
  1.386353e+01    2.143897e+00
  1.387941e+01    2.117586e+00
  1.389528e+01    2.092401e+00
  1.391116e+01    2.108138e+00
  1.392703e+01    2.095368e+00
  1.394291e+01    2.062336e+00
  1.395879e+01    2.086641e+00
  1.397466e+01    2.067927e+00
  1.399054e+01    2.015108e+00
  1.400641e+01    2.023814e+00
  1.402229e+01    2.014647e+00
  1.403816e+01    2.009680e+00
  1.405404e+01    2.031113e+00
  1.406991e+01    2.037611e+00
  1.408579e+01    2.020916e+00
  1.410167e+01    2.026145e+00
  1.411754e+01    2.052304e+00
  1.413342e+01    2.060071e+00
  1.414929e+01    2.026868e+00
  1.416517e+01    2.004358e+00
  1.418104e+01    1.995114e+00
  1.419692e+01    1.978004e+00
  1.421279e+01    2.016675e+00
  1.422867e+01    2.008093e+00
  1.424455e+01    2.006253e+00
  1.426042e+01    1.966249e+00
  1.427630e+01    1.988098e+00
  1.429217e+01    1.965396e+00
  1.430805e+01    1.966185e+00
  1.432392e+01    1.977080e+00
  1.433980e+01    1.987555e+00
  1.435568e+01    1.988610e+00
  1.437155e+01    1.962650e+00
  1.438743e+01    1.954976e+00
  1.440330e+01    1.970540e+00
  1.441918e+01    1.945354e+00
  1.443505e+01    1.974967e+00
  1.445093e+01    1.965632e+00
  1.446680e+01    1.906720e+00
  1.448268e+01    1.945574e+00
  1.449856e+01    1.944011e+00
  1.451443e+01    1.901590e+00
  1.453031e+01    1.930737e+00
  1.454618e+01    1.942330e+00
  1.456206e+01    1.915671e+00
  1.457793e+01    1.878412e+00
  1.459381e+01    1.882393e+00
  1.460968e+01    1.926607e+00
  1.462556e+01    1.918308e+00
  1.464144e+01    1.936284e+00
  1.465731e+01    1.952576e+00
  1.467319e+01    1.897960e+00
  1.468906e+01    1.872105e+00
  1.470494e+01    1.896669e+00
  1.472081e+01    1.930096e+00
  1.473669e+01    1.894418e+00
  1.475256e+01    1.897092e+00
  1.476844e+01    1.916999e+00
  1.478432e+01    1.914855e+00
  1.480019e+01    1.904550e+00
  1.481607e+01    1.890172e+00
  1.483194e+01    1.909054e+00
  1.484782e+01    1.922883e+00
  1.486369e+01    1.940515e+00
  1.487957e+01    1.949739e+00
  1.489544e+01    1.971374e+00
  1.491132e+01    2.002335e+00
  1.492720e+01    2.020631e+00
  1.494307e+01    2.032553e+00
  1.495895e+01    2.034636e+00
  1.497482e+01    2.083408e+00
  1.499070e+01    2.123749e+00
  1.500657e+01    2.160591e+00
  1.502245e+01    2.253972e+00
  1.503832e+01    2.302306e+00
  1.505420e+01    2.396035e+00
  1.507008e+01    2.547269e+00
  1.508595e+01    2.721191e+00
  1.510183e+01    2.901344e+00
  1.511770e+01    3.112042e+00
  1.513358e+01    3.439376e+00
  1.514945e+01    3.800272e+00
  1.516533e+01    4.194080e+00
  1.518120e+01    4.574339e+00
  1.519708e+01    4.897794e+00
  1.521296e+01    5.147318e+00
  1.522883e+01    5.368042e+00
  1.524471e+01    5.573786e+00
  1.526058e+01    5.728717e+00
  1.527646e+01    5.718159e+00
  1.529233e+01    5.444307e+00
  1.530821e+01    5.099039e+00
  1.532409e+01    4.613443e+00
  1.533996e+01    4.117642e+00
  1.535584e+01    3.655000e+00
  1.537171e+01    3.262597e+00
  1.538759e+01    2.941036e+00
  1.540346e+01    2.772280e+00
  1.541934e+01    2.593236e+00
  1.543521e+01    2.428123e+00
  1.545109e+01    2.246812e+00
  1.546697e+01    2.193120e+00
  1.548284e+01    2.110519e+00
  1.549872e+01    2.042604e+00
  1.551459e+01    2.007909e+00
  1.553047e+01    1.979122e+00
  1.554634e+01    1.922930e+00
  1.556222e+01    1.880513e+00
  1.557809e+01    1.893579e+00
  1.559397e+01    1.866788e+00
  1.560985e+01    1.826309e+00
  1.562572e+01    1.774784e+00
  1.564160e+01    1.763629e+00
  1.565747e+01    1.759439e+00
  1.567335e+01    1.741621e+00
  1.568922e+01    1.736741e+00
  1.570510e+01    1.737986e+00
  1.572097e+01    1.731738e+00
  1.573685e+01    1.727369e+00
  1.575273e+01    1.732836e+00
  1.576860e+01    1.721963e+00
  1.578448e+01    1.716622e+00
  1.580035e+01    1.650393e+00
  1.581623e+01    1.662717e+00
  1.583210e+01    1.682895e+00
  1.584798e+01    1.679782e+00
  1.586385e+01    1.676413e+00
  1.587973e+01    1.623562e+00
  1.589561e+01    1.636512e+00
  1.591148e+01    1.601341e+00
  1.592736e+01    1.632577e+00
  1.594323e+01    1.668653e+00
  1.595911e+01    1.632520e+00
  1.597498e+01    1.608064e+00
  1.599086e+01    1.619545e+00
  1.600673e+01    1.602967e+00
  1.602261e+01    1.577538e+00
  1.603849e+01    1.607366e+00
  1.605436e+01    1.635830e+00
  1.607024e+01    1.584776e+00
  1.608611e+01    1.573314e+00
  1.610199e+01    1.602410e+00
  1.611786e+01    1.597458e+00
  1.613374e+01    1.608966e+00
  1.614961e+01    1.610723e+00
  1.616549e+01    1.575368e+00
  1.618137e+01    1.551224e+00
  1.619724e+01    1.538980e+00
  1.621312e+01    1.536809e+00
  1.622899e+01    1.548376e+00
  1.624487e+01    1.586120e+00
  1.626074e+01    1.588725e+00
  1.627662e+01    1.554104e+00
  1.629250e+01    1.578008e+00
  1.630837e+01    1.589755e+00
  1.632425e+01    1.555148e+00
  1.634012e+01    1.519894e+00
  1.635600e+01    1.510806e+00
  1.637187e+01    1.537448e+00
  1.638775e+01    1.531859e+00
  1.640362e+01    1.523274e+00
  1.641950e+01    1.534171e+00
  1.643538e+01    1.517867e+00
  1.645125e+01    1.531629e+00
  1.646713e+01    1.526759e+00
  1.648300e+01    1.524980e+00
  1.649888e+01    1.545510e+00
  1.651475e+01    1.492515e+00
  1.653063e+01    1.519539e+00
  1.654650e+01    1.519535e+00
  1.656238e+01    1.497649e+00
  1.657826e+01    1.477353e+00
  1.659413e+01    1.520891e+00
  1.661001e+01    1.521542e+00
  1.662588e+01    1.507653e+00
  1.664176e+01    1.506145e+00
  1.665763e+01    1.487508e+00
  1.667351e+01    1.471991e+00
  1.668938e+01    1.458339e+00
  1.670526e+01    1.486094e+00
  1.672114e+01    1.495706e+00
  1.673701e+01    1.466929e+00
  1.675289e+01    1.484607e+00
  1.676876e+01    1.465841e+00
  1.678464e+01    1.458714e+00
  1.680051e+01    1.468962e+00
  1.681639e+01    1.454446e+00
  1.683226e+01    1.426565e+00
  1.684814e+01    1.427865e+00
  1.686402e+01    1.456291e+00
  1.687989e+01    1.465030e+00
  1.689577e+01    1.439893e+00
  1.691164e+01    1.434024e+00
  1.692752e+01    1.486732e+00
  1.694339e+01    1.471761e+00
  1.695927e+01    1.440277e+00
  1.697514e+01    1.473813e+00
  1.699102e+01    1.461348e+00
  1.700690e+01    1.426182e+00
  1.702277e+01    1.419640e+00
  1.703865e+01    1.442580e+00
  1.705452e+01    1.394544e+00
  1.707040e+01    1.425537e+00
  1.708627e+01    1.433007e+00
  1.710215e+01    1.449552e+00
  1.711802e+01    1.426113e+00
  1.713390e+01    1.405869e+00
  1.714978e+01    1.431022e+00
  1.716565e+01    1.394201e+00
  1.718153e+01    1.399204e+00
  1.719740e+01    1.386785e+00
  1.721328e+01    1.390081e+00
  1.722915e+01    1.406093e+00
  1.724503e+01    1.405919e+00
  1.726091e+01    1.407015e+00
  1.727678e+01    1.429995e+00
  1.729266e+01    1.443481e+00
  1.730853e+01    1.390374e+00
  1.732441e+01    1.383169e+00
  1.734028e+01    1.415467e+00
  1.735616e+01    1.405361e+00
  1.737203e+01    1.418001e+00
  1.738791e+01    1.417207e+00
  1.740379e+01    1.403193e+00
  1.741966e+01    1.398981e+00
  1.743554e+01    1.340360e+00
  1.745141e+01    1.390914e+00
  1.746729e+01    1.379806e+00
  1.748316e+01    1.334348e+00
  1.749904e+01    1.337989e+00
  1.751491e+01    1.351505e+00
  1.753079e+01    1.356881e+00
  1.754667e+01    1.344918e+00
  1.756254e+01    1.357883e+00
  1.757842e+01    1.341428e+00
  1.759429e+01    1.372266e+00
  1.761017e+01    1.369380e+00
  1.762604e+01    1.336923e+00
  1.764192e+01    1.348888e+00
  1.765779e+01    1.339847e+00
  1.767367e+01    1.337082e+00
  1.768955e+01    1.313830e+00
  1.770542e+01    1.331974e+00
  1.772130e+01    1.362709e+00
  1.773717e+01    1.350308e+00
  1.775305e+01    1.350432e+00
  1.776892e+01    1.356628e+00
  1.778480e+01    1.386889e+00
  1.780067e+01    1.349264e+00
  1.781655e+01    1.328450e+00
  1.783243e+01    1.328975e+00
  1.784830e+01    1.350269e+00
  1.786418e+01    1.336589e+00
  1.788005e+01    1.319184e+00
  1.789593e+01    1.320828e+00
  1.791180e+01    1.328850e+00
  1.792768e+01    1.311692e+00
  1.794355e+01    1.321006e+00
  1.795943e+01    1.319791e+00
  1.797531e+01    1.326977e+00
  1.799118e+01    1.306650e+00
  1.800706e+01    1.289067e+00
  1.802293e+01    1.296243e+00
  1.803881e+01    1.306898e+00
  1.805468e+01    1.307022e+00
  1.807056e+01    1.304070e+00
  1.808643e+01    1.296414e+00
  1.810231e+01    1.300413e+00
  1.811819e+01    1.291739e+00
  1.813406e+01    1.295151e+00
  1.814994e+01    1.282338e+00
  1.816581e+01    1.288026e+00
  1.818169e+01    1.283651e+00
  1.819756e+01    1.267117e+00
  1.821344e+01    1.293634e+00
  1.822932e+01    1.316615e+00
  1.824519e+01    1.277852e+00
  1.826107e+01    1.271879e+00
  1.827694e+01    1.256805e+00
  1.829282e+01    1.246453e+00
  1.830869e+01    1.264774e+00
  1.832457e+01    1.258386e+00
  1.834044e+01    1.278482e+00
  1.835632e+01    1.275854e+00
  1.837220e+01    1.245880e+00
  1.838807e+01    1.249048e+00
  1.840395e+01    1.268668e+00
  1.841982e+01    1.284661e+00
  1.843570e+01    1.255347e+00
  1.845157e+01    1.226054e+00
  1.846745e+01    1.244173e+00
  1.848332e+01    1.268386e+00
  1.849920e+01    1.229441e+00
  1.851508e+01    1.245821e+00
  1.853095e+01    1.271880e+00
  1.854683e+01    1.262529e+00
  1.856270e+01    1.253453e+00
  1.857858e+01    1.244382e+00
  1.859445e+01    1.249598e+00
  1.861033e+01    1.220650e+00
  1.862620e+01    1.220787e+00
  1.864208e+01    1.236156e+00
  1.865796e+01    1.239785e+00
  1.867383e+01    1.244991e+00
  1.868971e+01    1.241726e+00
  1.870558e+01    1.220492e+00
  1.872146e+01    1.231751e+00
  1.873733e+01    1.225830e+00
  1.875321e+01    1.222054e+00
  1.876908e+01    1.225910e+00
  1.878496e+01    1.229996e+00
  1.880084e+01    1.257866e+00
  1.881671e+01    1.239173e+00
  1.883259e+01    1.221580e+00
  1.884846e+01    1.197035e+00
  1.886434e+01    1.196999e+00
  1.888021e+01    1.230696e+00
  1.889609e+01    1.232128e+00
  1.891196e+01    1.197365e+00
  1.892784e+01    1.208385e+00
  1.894372e+01    1.194681e+00
  1.895959e+01    1.199670e+00
  1.897547e+01    1.216512e+00
  1.899134e+01    1.195162e+00
  1.900722e+01    1.188469e+00
  1.902309e+01    1.210068e+00
  1.903897e+01    1.206518e+00
  1.905484e+01    1.189157e+00
  1.907072e+01    1.177121e+00
  1.908660e+01    1.196023e+00
  1.910247e+01    1.180124e+00
  1.911835e+01    1.177913e+00
  1.913422e+01    1.173783e+00
  1.915010e+01    1.186588e+00
  1.916597e+01    1.202316e+00
  1.918185e+01    1.192928e+00
  1.919773e+01    1.201247e+00
  1.921360e+01    1.195106e+00
  1.922948e+01    1.168892e+00
  1.924535e+01    1.173653e+00
  1.926123e+01    1.184656e+00
  1.927710e+01    1.186727e+00
  1.929298e+01    1.181016e+00
  1.930885e+01    1.164212e+00
  1.932473e+01    1.180261e+00
  1.934061e+01    1.154262e+00
  1.935648e+01    1.140012e+00
  1.937236e+01    1.169402e+00
  1.938823e+01    1.192997e+00
  1.940411e+01    1.166095e+00
  1.941998e+01    1.185378e+00
  1.943586e+01    1.158141e+00
  1.945173e+01    1.173460e+00
  1.946761e+01    1.169334e+00
  1.948349e+01    1.163561e+00
  1.949936e+01    1.162785e+00
  1.951524e+01    1.163469e+00
  1.953111e+01    1.180889e+00
  1.954699e+01    1.163058e+00
  1.956286e+01    1.144387e+00
  1.957874e+01    1.163900e+00
  1.959461e+01    1.186588e+00
  1.961049e+01    1.153599e+00
  1.962637e+01    1.138129e+00
  1.964224e+01    1.145665e+00
  1.965812e+01    1.136542e+00
  1.967399e+01    1.175619e+00
  1.968987e+01    1.151821e+00
  1.970574e+01    1.139513e+00
  1.972162e+01    1.113941e+00
  1.973749e+01    1.134738e+00
  1.975337e+01    1.160016e+00
  1.976925e+01    1.144426e+00
  1.978512e+01    1.133219e+00
  1.980100e+01    1.121092e+00
  1.981687e+01    1.125814e+00
  1.983275e+01    1.148452e+00
  1.984862e+01    1.117288e+00
  1.986450e+01    1.135936e+00
  1.988037e+01    1.135930e+00
  1.989625e+01    1.116506e+00
  1.991213e+01    1.116669e+00
  1.992800e+01    1.120387e+00
  1.994388e+01    1.110890e+00
  1.995975e+01    1.116117e+00
  1.997563e+01    1.128995e+00
  1.999150e+01    1.152713e+00
  2.000738e+01    1.148600e+00
  2.002325e+01    1.116823e+00
  2.003913e+01    1.109299e+00
  2.005501e+01    1.126727e+00
  2.007088e+01    1.133584e+00
  2.008676e+01    1.113722e+00
  2.010263e+01    1.097294e+00
  2.011851e+01    1.133175e+00
  2.013438e+01    1.131155e+00
  2.015026e+01    1.119501e+00
  2.016614e+01    1.099467e+00
  2.018201e+01    1.101762e+00
  2.019789e+01    1.086416e+00
  2.021376e+01    1.094143e+00
  2.022964e+01    1.101953e+00
  2.024551e+01    1.092581e+00
  2.026139e+01    1.078672e+00
  2.027726e+01    1.089404e+00
  2.029314e+01    1.109058e+00
  2.030902e+01    1.117109e+00
  2.032489e+01    1.091812e+00
  2.034077e+01    1.087315e+00
  2.035664e+01    1.088122e+00
  2.037252e+01    1.076642e+00
  2.038839e+01    1.090973e+00
  2.040427e+01    1.116759e+00
  2.042014e+01    1.113588e+00
  2.043602e+01    1.085972e+00
  2.045190e+01    1.102678e+00
  2.046777e+01    1.103182e+00
  2.048365e+01    1.085005e+00
  2.049952e+01    1.086950e+00
  2.051540e+01    1.077707e+00
  2.053127e+01    1.100324e+00
  2.054715e+01    1.064530e+00
  2.056302e+01    1.076130e+00
  2.057890e+01    1.085694e+00
  2.059478e+01    1.077023e+00
  2.061065e+01    1.081421e+00
  2.062653e+01    1.075199e+00
  2.064240e+01    1.074268e+00
  2.065828e+01    1.050946e+00
  2.067415e+01    1.058606e+00
  2.069003e+01    1.091296e+00
  2.070590e+01    1.077073e+00
  2.072178e+01    1.053222e+00
  2.073766e+01    1.042074e+00
  2.075353e+01    1.052411e+00
  2.076941e+01    1.082204e+00
  2.078528e+01    1.098010e+00
  2.080116e+01    1.088622e+00
  2.081703e+01    1.085222e+00
  2.083291e+01    1.094278e+00
  2.084878e+01    1.093929e+00
  2.086466e+01    1.056669e+00
  2.088054e+01    1.075114e+00
  2.089641e+01    1.084257e+00
  2.091229e+01    1.079551e+00
  2.092816e+01    1.070973e+00
  2.094404e+01    1.069397e+00
  2.095991e+01    1.092139e+00
  2.097579e+01    1.092351e+00
  2.099166e+01    1.073279e+00
  2.100754e+01    1.070077e+00
  2.102342e+01    1.063000e+00
  2.103929e+01    1.071535e+00
  2.105517e+01    1.073657e+00
  2.107104e+01    1.097467e+00
  2.108692e+01    1.095570e+00
  2.110279e+01    1.106758e+00
  2.111867e+01    1.092461e+00
  2.113455e+01    1.073816e+00
  2.115042e+01    1.091646e+00
  2.116630e+01    1.091178e+00
  2.118217e+01    1.074591e+00
  2.119805e+01    1.086059e+00
  2.121392e+01    1.109582e+00
  2.122980e+01    1.119621e+00
  2.124567e+01    1.104601e+00
  2.126155e+01    1.106297e+00
  2.127743e+01    1.115041e+00
  2.129330e+01    1.112945e+00
  2.130918e+01    1.123120e+00
  2.132505e+01    1.127928e+00
  2.134093e+01    1.133650e+00
  2.135680e+01    1.149225e+00
  2.137268e+01    1.151739e+00
  2.138855e+01    1.140625e+00
  2.140443e+01    1.182054e+00
  2.142031e+01    1.170978e+00
  2.143618e+01    1.190116e+00
  2.145206e+01    1.219888e+00
  2.146793e+01    1.233867e+00
  2.148381e+01    1.254147e+00
  2.149968e+01    1.274984e+00
  2.151556e+01    1.303901e+00
  2.153143e+01    1.334703e+00
  2.154731e+01    1.396879e+00
  2.156319e+01    1.418491e+00
  2.157906e+01    1.487168e+00
  2.159494e+01    1.518872e+00
  2.161081e+01    1.599133e+00
  2.162669e+01    1.708675e+00
  2.164256e+01    1.848661e+00
  2.165844e+01    1.972020e+00
  2.167431e+01    2.174296e+00
  2.169019e+01    2.351576e+00
  2.170607e+01    2.608688e+00
  2.172194e+01    2.939553e+00
  2.173782e+01    3.336913e+00
  2.175369e+01    3.852894e+00
  2.176957e+01    4.444459e+00
  2.178544e+01    5.011561e+00
  2.180132e+01    5.591753e+00
  2.181719e+01    6.307539e+00
  2.183307e+01    7.003151e+00
  2.184895e+01    7.717095e+00
  2.186482e+01    8.368885e+00
  2.188070e+01    8.878313e+00
  2.189657e+01    9.109556e+00
  2.191245e+01    9.072638e+00
  2.192832e+01    8.538001e+00
  2.194420e+01    7.775846e+00
  2.196007e+01    6.847439e+00
  2.197595e+01    5.839671e+00
  2.199183e+01    4.912966e+00
  2.200770e+01    4.213867e+00
  2.202358e+01    3.557618e+00
  2.203945e+01    3.093023e+00
  2.205533e+01    2.794770e+00
  2.207120e+01    2.505753e+00
  2.208708e+01    2.230669e+00
  2.210296e+01    2.064562e+00
  2.211883e+01    1.882476e+00
  2.213471e+01    1.764044e+00
  2.215058e+01    1.666615e+00
  2.216646e+01    1.536533e+00
  2.218233e+01    1.478483e+00
  2.219821e+01    1.462778e+00
  2.221408e+01    1.396913e+00
  2.222996e+01    1.293566e+00
  2.224584e+01    1.246003e+00
  2.226171e+01    1.244458e+00
  2.227759e+01    1.200267e+00
  2.229346e+01    1.218544e+00
  2.230934e+01    1.190241e+00
  2.232521e+01    1.172297e+00
  2.234109e+01    1.127092e+00
  2.235696e+01    1.119041e+00
  2.237284e+01    1.088080e+00
  2.238872e+01    1.101932e+00
  2.240459e+01    1.098268e+00
  2.242047e+01    1.061355e+00
  2.243634e+01    1.056517e+00
  2.245222e+01    1.053056e+00
  2.246809e+01    1.048516e+00
  2.248397e+01    1.046813e+00
  2.249984e+01    1.017887e+00
  2.251572e+01    1.019911e+00
  2.253160e+01    1.032999e+00
  2.254747e+01    1.025110e+00
  2.256335e+01    9.891202e-01
  2.257922e+01    9.847859e-01
  2.259510e+01    9.750865e-01
  2.261097e+01    9.802484e-01
  2.262685e+01    9.988872e-01
  2.264272e+01    1.002488e+00
  2.265860e+01    9.745995e-01
  2.267448e+01    9.628402e-01
  2.269035e+01    9.622846e-01
  2.270623e+01    9.511530e-01
  2.272210e+01    9.505892e-01
  2.273798e+01    9.568533e-01
  2.275385e+01    9.456788e-01
  2.276973e+01    9.520999e-01
  2.278560e+01    9.481186e-01
  2.280148e+01    9.341580e-01
  2.281736e+01    9.222865e-01
  2.283323e+01    9.087197e-01
  2.284911e+01    9.372813e-01
  2.286498e+01    9.295599e-01
  2.288086e+01    9.339339e-01
  2.289673e+01    9.213605e-01
  2.291261e+01    8.982933e-01
  2.292848e+01    9.318883e-01
  2.294436e+01    9.118302e-01
  2.296024e+01    8.976952e-01
  2.297611e+01    8.885605e-01
  2.299199e+01    9.030777e-01
  2.300786e+01    9.052191e-01
  2.302374e+01    8.976029e-01
  2.303961e+01    8.924256e-01
  2.305549e+01    8.957113e-01
  2.307137e+01    8.971967e-01
  2.308724e+01    8.879378e-01
  2.310312e+01    8.918487e-01
  2.311899e+01    8.831323e-01
  2.313487e+01    8.934885e-01
  2.315074e+01    8.927156e-01
  2.316662e+01    8.699836e-01
  2.318249e+01    8.593423e-01
  2.319837e+01    8.923231e-01
  2.321425e+01    8.985527e-01
  2.323012e+01    8.714727e-01
  2.324600e+01    8.683565e-01
  2.326187e+01    8.967764e-01
  2.327775e+01    8.816690e-01
  2.329362e+01    8.794073e-01
  2.330950e+01    8.735117e-01
  2.332537e+01    8.725515e-01
  2.334125e+01    8.676392e-01
  2.335713e+01    8.523455e-01
  2.337300e+01    8.475184e-01
  2.338888e+01    8.426421e-01
  2.340475e+01    8.347310e-01
  2.342063e+01    8.487185e-01
  2.343650e+01    8.552466e-01
  2.345238e+01    8.790895e-01
  2.346825e+01    8.705336e-01
  2.348413e+01    8.630758e-01
  2.350001e+01    8.442658e-01
  2.351588e+01    8.416020e-01
  2.353176e+01    8.412738e-01
  2.354763e+01    8.382345e-01
  2.356351e+01    8.390703e-01
  2.357938e+01    8.474148e-01
  2.359526e+01    8.681291e-01
  2.361113e+01    8.661776e-01
  2.362701e+01    8.488432e-01
  2.364289e+01    8.488967e-01
  2.365876e+01    8.251301e-01
  2.367464e+01    8.286564e-01
  2.369051e+01    8.279831e-01
  2.370639e+01    8.261201e-01
  2.372226e+01    8.281658e-01
  2.373814e+01    8.308886e-01
  2.375401e+01    8.261546e-01
  2.376989e+01    8.207055e-01
  2.378577e+01    8.419169e-01
  2.380164e+01    8.344295e-01
  2.381752e+01    7.987597e-01
  2.383339e+01    8.088251e-01
  2.384927e+01    8.139949e-01
  2.386514e+01    8.005541e-01
  2.388102e+01    7.951726e-01
  2.389689e+01    8.078467e-01
  2.391277e+01    8.065062e-01
  2.392865e+01    8.153313e-01
  2.394452e+01    7.955338e-01
  2.396040e+01    7.996072e-01
  2.397627e+01    8.039631e-01
  2.399215e+01    7.882211e-01
  2.400802e+01    7.770600e-01
  2.402390e+01    8.085372e-01
  2.403978e+01    7.984717e-01
  2.405565e+01    7.854829e-01
  2.407153e+01    7.828969e-01
  2.408740e+01    7.905737e-01
  2.410328e+01    7.938244e-01
  2.411915e+01    7.687304e-01
  2.413503e+01    7.912426e-01
  2.415090e+01    7.972658e-01
  2.416678e+01    7.893695e-01
  2.418266e+01    7.915856e-01
  2.419853e+01    7.999429e-01
  2.421441e+01    7.874135e-01
  2.423028e+01    7.858015e-01
  2.424616e+01    7.673156e-01
  2.426203e+01    7.774995e-01
  2.427791e+01    7.818982e-01
  2.429378e+01    7.841375e-01
  2.430966e+01    7.989005e-01
  2.432554e+01    8.015108e-01
  2.434141e+01    7.917707e-01
  2.435729e+01    7.838645e-01
  2.437316e+01    7.798498e-01
  2.438904e+01    7.948735e-01
  2.440491e+01    8.030619e-01
  2.442079e+01    7.786244e-01
  2.443666e+01    7.853140e-01
  2.445254e+01    8.038225e-01
  2.446842e+01    7.970287e-01
  2.448429e+01    7.771604e-01
  2.450017e+01    7.943177e-01
  2.451604e+01    7.921463e-01
  2.453192e+01    8.004944e-01
  2.454779e+01    8.067641e-01
  2.456367e+01    8.021289e-01
  2.457954e+01    8.133399e-01
  2.459542e+01    7.983849e-01
  2.461130e+01    7.970919e-01
  2.462717e+01    7.897917e-01
  2.464305e+01    7.934957e-01
  2.465892e+01    8.077669e-01
  2.467480e+01    7.880500e-01
  2.469067e+01    7.728819e-01
  2.470655e+01    7.902259e-01
  2.472242e+01    8.036495e-01
  2.473830e+01    7.982970e-01
  2.475418e+01    7.742677e-01
  2.477005e+01    7.805017e-01
  2.478593e+01    7.904935e-01
  2.480180e+01    7.932674e-01
  2.481768e+01    7.893444e-01
  2.483355e+01    7.910624e-01
  2.484943e+01    8.001028e-01
  2.486530e+01    8.012158e-01
  2.488118e+01    8.011441e-01
  2.489706e+01    7.927583e-01
  2.491293e+01    7.765453e-01
  2.492881e+01    7.746037e-01
  2.494468e+01    7.930698e-01
  2.496056e+01    7.971908e-01
  2.497643e+01    8.098627e-01
  2.499231e+01    8.010132e-01
  2.500819e+01    8.270174e-01
  2.502406e+01    8.071988e-01
  2.503994e+01    8.039709e-01
  2.505581e+01    7.941892e-01
  2.507169e+01    8.204732e-01
  2.508756e+01    7.867323e-01
  2.510344e+01    8.117368e-01
  2.511931e+01    8.229367e-01
  2.513519e+01    8.230168e-01
  2.515107e+01    8.180224e-01
  2.516694e+01    8.186638e-01
  2.518282e+01    8.332284e-01
  2.519869e+01    8.452793e-01
  2.521457e+01    8.435441e-01
  2.523044e+01    8.226364e-01
  2.524632e+01    8.431716e-01
  2.526219e+01    8.587805e-01
  2.527807e+01    8.571056e-01
  2.529395e+01    8.493034e-01
  2.530982e+01    8.658808e-01
  2.532570e+01    8.710167e-01
  2.534157e+01    9.004361e-01
  2.535745e+01    8.826400e-01
  2.537332e+01    8.858150e-01
  2.538920e+01    8.986498e-01
  2.540507e+01    8.809285e-01
  2.542095e+01    9.102766e-01
  2.543683e+01    9.182901e-01
  2.545270e+01    9.360468e-01
  2.546858e+01    9.366555e-01
  2.548445e+01    9.521708e-01
  2.550033e+01    9.834207e-01
  2.551620e+01    9.916553e-01
  2.553208e+01    9.860480e-01
  2.554795e+01    1.004066e+00
  2.556383e+01    1.039588e+00
  2.557971e+01    1.071666e+00
  2.559558e+01    1.124823e+00
  2.561146e+01    1.147247e+00
  2.562733e+01    1.187842e+00
  2.564321e+01    1.221022e+00
  2.565908e+01    1.272995e+00
  2.567496e+01    1.320883e+00
  2.569083e+01    1.416395e+00
  2.570671e+01    1.526391e+00
  2.572259e+01    1.642300e+00
  2.573846e+01    1.755833e+00
  2.575434e+01    1.927257e+00
  2.577021e+01    2.142875e+00
  2.578609e+01    2.404701e+00
  2.580196e+01    2.718664e+00
  2.581784e+01    3.075238e+00
  2.583371e+01    3.516105e+00
  2.584959e+01    3.964197e+00
  2.586547e+01    4.510133e+00
  2.588134e+01    5.118772e+00
  2.589722e+01    5.725034e+00
  2.591309e+01    6.319192e+00
  2.592897e+01    6.899244e+00
  2.594484e+01    7.243392e+00
  2.596072e+01    7.353351e+00
  2.597660e+01    7.308012e+00
  2.599247e+01    6.965511e+00
  2.600835e+01    6.381584e+00
  2.602422e+01    5.629220e+00
  2.604010e+01    4.853649e+00
  2.605597e+01    4.135656e+00
  2.607185e+01    3.554379e+00
  2.608772e+01    3.098421e+00
  2.610360e+01    2.689477e+00
  2.611948e+01    2.362333e+00
  2.613535e+01    2.132678e+00
  2.615123e+01    1.903288e+00
  2.616710e+01    1.739208e+00
  2.618298e+01    1.640072e+00
  2.619885e+01    1.500955e+00
  2.621473e+01    1.430504e+00
  2.623060e+01    1.337239e+00
  2.624648e+01    1.281588e+00
  2.626236e+01    1.248677e+00
  2.627823e+01    1.167994e+00
  2.629411e+01    1.117961e+00
  2.630998e+01    1.105925e+00
  2.632586e+01    1.098034e+00
  2.634173e+01    1.049228e+00
  2.635761e+01    1.024829e+00
  2.637348e+01    9.882072e-01
  2.638936e+01    9.863896e-01
  2.640524e+01    9.749300e-01
  2.642111e+01    9.442917e-01
  2.643699e+01    9.360972e-01
  2.645286e+01    9.478949e-01
  2.646874e+01    9.571366e-01
  2.648461e+01    9.379167e-01
  2.650049e+01    9.248568e-01
  2.651636e+01    9.322799e-01
  2.653224e+01    9.176499e-01
  2.654812e+01    9.098790e-01
  2.656399e+01    8.967806e-01
  2.657987e+01    8.967183e-01
  2.659574e+01    9.013500e-01
  2.661162e+01    8.901491e-01
  2.662749e+01    9.031337e-01
  2.664337e+01    9.222437e-01
  2.665924e+01    8.951187e-01
  2.667512e+01    8.906173e-01
  2.669100e+01    8.966449e-01
  2.670687e+01    8.870007e-01
  2.672275e+01    8.931950e-01
  2.673862e+01    8.977305e-01
  2.675450e+01    8.769263e-01
  2.677037e+01    8.925859e-01
  2.678625e+01    8.992758e-01
  2.680212e+01    8.991614e-01
  2.681800e+01    8.869697e-01
  2.683388e+01    8.783783e-01
  2.684975e+01    8.998780e-01
  2.686563e+01    9.063098e-01
  2.688150e+01    9.162446e-01
  2.689738e+01    9.257270e-01
  2.691325e+01    9.211902e-01
  2.692913e+01    9.328386e-01
  2.694501e+01    9.362549e-01
  2.696088e+01    9.690061e-01
  2.697676e+01    9.993150e-01
  2.699263e+01    9.867964e-01
  2.700851e+01    1.015508e+00
  2.702438e+01    1.057675e+00
  2.704026e+01    1.135879e+00
  2.705613e+01    1.176576e+00
  2.707201e+01    1.239034e+00
  2.708789e+01    1.298014e+00
  2.710376e+01    1.397584e+00
  2.711964e+01    1.518683e+00
  2.713551e+01    1.643350e+00
  2.715139e+01    1.777839e+00
  2.716726e+01    1.921798e+00
  2.718314e+01    2.077140e+00
  2.719901e+01    2.178893e+00
  2.721489e+01    2.203899e+00
  2.723077e+01    2.252364e+00
  2.724664e+01    2.169293e+00
  2.726252e+01    2.035638e+00
  2.727839e+01    1.871646e+00
  2.729427e+01    1.716014e+00
  2.731014e+01    1.581524e+00
  2.732602e+01    1.418299e+00
  2.734189e+01    1.333219e+00
  2.735777e+01    1.260160e+00
  2.737365e+01    1.179508e+00
  2.738952e+01    1.118414e+00
  2.740540e+01    1.056058e+00
  2.742127e+01    1.012286e+00
  2.743715e+01    9.940196e-01
  2.745302e+01    9.967778e-01
  2.746890e+01    9.577088e-01
  2.748477e+01    9.050269e-01
  2.750065e+01    8.948593e-01
  2.751653e+01    8.913205e-01
  2.753240e+01    8.782697e-01
  2.754828e+01    8.840674e-01
  2.756415e+01    8.673611e-01
  2.758003e+01    8.642813e-01
  2.759590e+01    8.450544e-01
  2.761178e+01    8.209926e-01
  2.762765e+01    8.296932e-01
  2.764353e+01    8.386876e-01
  2.765941e+01    8.280152e-01
  2.767528e+01    8.172705e-01
  2.769116e+01    8.197925e-01
  2.770703e+01    8.354654e-01
  2.772291e+01    8.450873e-01
  2.773878e+01    8.311012e-01
  2.775466e+01    8.391494e-01
  2.777054e+01    8.310156e-01
  2.778641e+01    8.109512e-01
  2.780229e+01    8.009210e-01
  2.781816e+01    8.304484e-01
  2.783404e+01    8.055664e-01
  2.784991e+01    8.005562e-01
  2.786579e+01    8.029051e-01
  2.788166e+01    8.055226e-01
  2.789754e+01    7.953935e-01
  2.791342e+01    7.988478e-01
  2.792929e+01    8.016260e-01
  2.794517e+01    7.867392e-01
  2.796104e+01    7.957690e-01
  2.797692e+01    7.731276e-01
  2.799279e+01    7.890251e-01
  2.800867e+01    7.885327e-01
  2.802454e+01    7.970828e-01
  2.804042e+01    7.875800e-01
  2.805630e+01    7.712117e-01
  2.807217e+01    7.863615e-01
  2.808805e+01    8.014500e-01
  2.810392e+01    7.870930e-01
  2.811980e+01    7.901235e-01
  2.813567e+01    7.920870e-01
  2.815155e+01    7.758944e-01
  2.816742e+01    7.771142e-01
  2.818330e+01    7.512916e-01
  2.819918e+01    7.567130e-01
  2.821505e+01    7.553117e-01
  2.823093e+01    7.621226e-01
  2.824680e+01    7.624879e-01
  2.826268e+01    7.769588e-01
  2.827855e+01    7.931075e-01
  2.829443e+01    7.657716e-01
  2.831030e+01    7.729014e-01
  2.832618e+01    7.701709e-01
  2.834206e+01    7.585876e-01
  2.835793e+01    7.835676e-01
  2.837381e+01    7.806314e-01
  2.838968e+01    7.586783e-01
  2.840556e+01    7.708389e-01
  2.842143e+01    7.692029e-01
  2.843731e+01    7.518710e-01
  2.845318e+01    7.612105e-01
  2.846906e+01    7.722091e-01
  2.848494e+01    7.696744e-01
  2.850081e+01    7.574911e-01
  2.851669e+01    7.857859e-01
  2.853256e+01    7.704257e-01
  2.854844e+01    7.612942e-01
  2.856431e+01    7.548714e-01
  2.858019e+01    7.642221e-01
  2.859606e+01    7.719269e-01
  2.861194e+01    7.528927e-01
  2.862782e+01    7.476161e-01
  2.864369e+01    7.403629e-01
  2.865957e+01    7.754185e-01
  2.867544e+01    7.611998e-01
  2.869132e+01    7.679766e-01
  2.870719e+01    7.536910e-01
  2.872307e+01    7.564821e-01
  2.873895e+01    7.658033e-01
  2.875482e+01    7.414628e-01
  2.877070e+01    7.415166e-01
  2.878657e+01    7.463726e-01
  2.880245e+01    7.423703e-01
  2.881832e+01    7.591676e-01
  2.883420e+01    7.536808e-01
  2.885007e+01    7.324006e-01
  2.886595e+01    7.475916e-01
  2.888183e+01    7.478146e-01
  2.889770e+01    7.550724e-01
  2.891358e+01    7.499143e-01
  2.892945e+01    7.348886e-01
  2.894533e+01    7.399191e-01
  2.896120e+01    7.482728e-01
  2.897708e+01    7.520964e-01
  2.899295e+01    7.284356e-01
  2.900883e+01    7.437480e-01
  2.902471e+01    7.338148e-01
  2.904058e+01    7.588542e-01
  2.905646e+01    7.694328e-01
  2.907233e+01    7.441291e-01
  2.908821e+01    7.504651e-01
  2.910408e+01    7.382205e-01
  2.911996e+01    7.276277e-01
  2.913583e+01    7.041214e-01
  2.915171e+01    7.111968e-01
  2.916759e+01    7.237652e-01
  2.918346e+01    7.163630e-01
  2.919934e+01    7.333944e-01
  2.921521e+01    7.300132e-01
  2.923109e+01    7.286558e-01
  2.924696e+01    7.225905e-01
  2.926284e+01    7.176626e-01
  2.927871e+01    7.375002e-01
  2.929459e+01    7.327545e-01
  2.931047e+01    7.288564e-01
  2.932634e+01    7.206928e-01
  2.934222e+01    7.269567e-01
  2.935809e+01    7.362173e-01
  2.937397e+01    7.481120e-01
  2.938984e+01    7.401437e-01
  2.940572e+01    7.392910e-01
  2.942159e+01    7.434499e-01
  2.943747e+01    7.027068e-01
  2.945335e+01    7.120711e-01
  2.946922e+01    7.412713e-01
  2.948510e+01    7.347063e-01
  2.950097e+01    7.283989e-01
  2.951685e+01    7.246807e-01
  2.953272e+01    7.273332e-01
  2.954860e+01    7.315156e-01
  2.956447e+01    7.315119e-01
  2.958035e+01    7.223070e-01
  2.959623e+01    7.169893e-01
  2.961210e+01    7.341421e-01
  2.962798e+01    7.238756e-01
  2.964385e+01    7.104657e-01
  2.965973e+01    7.144465e-01
  2.967560e+01    7.079922e-01
  2.969148e+01    7.111544e-01
  2.970736e+01    7.171703e-01
  2.972323e+01    7.152589e-01
  2.973911e+01    7.034403e-01
  2.975498e+01    7.178985e-01
  2.977086e+01    7.250097e-01
  2.978673e+01    7.114973e-01
  2.980261e+01    7.170250e-01
  2.981848e+01    7.308939e-01
  2.983436e+01    7.343657e-01
  2.985024e+01    7.253826e-01
  2.986611e+01    7.131011e-01
  2.988199e+01    7.082709e-01
  2.989786e+01    7.219247e-01
  2.991374e+01    7.227436e-01
  2.992961e+01    7.383090e-01
  2.994549e+01    7.175327e-01
  2.996136e+01    7.086701e-01
  2.997724e+01    7.225202e-01
  2.999312e+01    7.298270e-01
  3.000899e+01    7.338573e-01
  3.002487e+01    7.330722e-01
  3.004074e+01    7.295887e-01
  3.005662e+01    7.333351e-01
  3.007249e+01    7.228601e-01
  3.008837e+01    7.212617e-01
  3.010424e+01    7.381639e-01
  3.012012e+01    7.318764e-01
  3.013600e+01    7.159057e-01
  3.015187e+01    7.220634e-01
  3.016775e+01    7.219065e-01
  3.018362e+01    7.057821e-01
  3.019950e+01    7.037139e-01
  3.021537e+01    7.064825e-01
  3.023125e+01    7.083572e-01
  3.024712e+01    7.032322e-01
  3.026300e+01    7.229682e-01
  3.027888e+01    7.097937e-01
  3.029475e+01    6.927178e-01
  3.031063e+01    7.118902e-01
  3.032650e+01    6.913396e-01
  3.034238e+01    7.025433e-01
  3.035825e+01    7.038054e-01
  3.037413e+01    7.102005e-01
  3.039000e+01    6.966188e-01
  3.040588e+01    7.034903e-01
  3.042176e+01    7.237813e-01
  3.043763e+01    7.045654e-01
  3.045351e+01    7.142102e-01
  3.046938e+01    7.089880e-01
  3.048526e+01    7.227942e-01
  3.050113e+01    7.145437e-01
  3.051701e+01    7.133465e-01
  3.053288e+01    7.130316e-01
  3.054876e+01    7.302501e-01
  3.056464e+01    7.267785e-01
  3.058051e+01    7.214170e-01
  3.059639e+01    6.989786e-01
  3.061226e+01    7.267248e-01
  3.062814e+01    7.298085e-01
  3.064401e+01    6.963837e-01
  3.065989e+01    7.069224e-01
  3.067577e+01    7.096921e-01
  3.069164e+01    6.997542e-01
  3.070752e+01    6.976942e-01
  3.072339e+01    7.003096e-01
  3.073927e+01    7.089714e-01
  3.075514e+01    7.166324e-01
  3.077102e+01    7.313524e-01
  3.078689e+01    7.175331e-01
  3.080277e+01    7.118062e-01
  3.081865e+01    6.791684e-01
  3.083452e+01    6.995876e-01
  3.085040e+01    7.025887e-01
  3.086627e+01    7.370268e-01
  3.088215e+01    7.070060e-01
  3.089802e+01    6.926720e-01
  3.091390e+01    7.155668e-01
  3.092977e+01    7.031530e-01
  3.094565e+01    7.114790e-01
  3.096153e+01    7.113777e-01
  3.097740e+01    7.060549e-01
  3.099328e+01    7.087709e-01
  3.100915e+01    7.284620e-01
  3.102503e+01    7.382349e-01
  3.104090e+01    7.115873e-01
  3.105678e+01    6.989430e-01
  3.107265e+01    7.111449e-01
  3.108853e+01    7.122926e-01
  3.110441e+01    7.254747e-01
  3.112028e+01    7.325417e-01
  3.113616e+01    7.439283e-01
  3.115203e+01    7.329299e-01
  3.116791e+01    7.253509e-01
  3.118378e+01    7.180761e-01
  3.119966e+01    7.342138e-01
  3.121553e+01    7.493532e-01
  3.123141e+01    7.189103e-01
  3.124729e+01    7.088447e-01
  3.126316e+01    7.384857e-01
  3.127904e+01    7.257605e-01
  3.129491e+01    7.362614e-01
  3.131079e+01    7.652516e-01
  3.132666e+01    7.448971e-01
  3.134254e+01    7.324567e-01
  3.135841e+01    7.204928e-01
  3.137429e+01    7.368594e-01
  3.139017e+01    7.328085e-01
  3.140604e+01    7.279442e-01
  3.142192e+01    7.404366e-01
  3.143779e+01    7.316635e-01
  3.145367e+01    7.401097e-01
  3.146954e+01    7.426865e-01
  3.148542e+01    7.586161e-01
  3.150129e+01    7.670991e-01
  3.151717e+01    7.831209e-01
  3.153305e+01    7.881329e-01
  3.154892e+01    7.830094e-01
  3.156480e+01    7.804313e-01
  3.158067e+01    7.984139e-01
  3.159655e+01    8.035286e-01
  3.161242e+01    8.178348e-01
  3.162830e+01    8.636946e-01
  3.164418e+01    8.450515e-01
  3.166005e+01    8.759491e-01
  3.167593e+01    8.891285e-01
  3.169180e+01    9.322675e-01
  3.170768e+01    9.814233e-01
  3.172355e+01    1.016935e+00
  3.173943e+01    1.080648e+00
  3.175530e+01    1.123079e+00
  3.177118e+01    1.174350e+00
  3.178706e+01    1.301438e+00
  3.180293e+01    1.434128e+00
  3.181881e+01    1.538585e+00
  3.183468e+01    1.699151e+00
  3.185056e+01    1.850338e+00
  3.186643e+01    1.948966e+00
  3.188231e+01    2.116943e+00
  3.189818e+01    2.156107e+00
  3.191406e+01    2.184772e+00
  3.192994e+01    2.139308e+00
  3.194581e+01    2.037029e+00
  3.196169e+01    1.910777e+00
  3.197756e+01    1.751792e+00
  3.199344e+01    1.598490e+00
  3.200931e+01    1.433252e+00
  3.202519e+01    1.327485e+00
  3.204106e+01    1.210577e+00
  3.205694e+01    1.102770e+00
  3.207282e+01    1.052961e+00
  3.208869e+01    1.007837e+00
  3.210457e+01    9.887120e-01
  3.212044e+01    9.402906e-01
  3.213632e+01    9.097906e-01
  3.215219e+01    8.581345e-01
  3.216807e+01    8.203101e-01
  3.218394e+01    8.260825e-01
  3.219982e+01    8.105345e-01
  3.221570e+01    8.159927e-01
  3.223157e+01    7.788113e-01
  3.224745e+01    7.752053e-01
  3.226332e+01    7.535428e-01
  3.227920e+01    7.338220e-01
  3.229507e+01    7.397826e-01
  3.231095e+01    7.432329e-01
  3.232682e+01    7.739393e-01
  3.234270e+01    7.633212e-01
  3.235858e+01    7.542591e-01
  3.237445e+01    7.606723e-01
  3.239033e+01    7.620890e-01
  3.240620e+01    7.504957e-01
  3.242208e+01    7.291069e-01
  3.243795e+01    7.214594e-01
  3.245383e+01    7.175534e-01
  3.246970e+01    7.283201e-01
  3.248558e+01    7.349435e-01
  3.250146e+01    7.214898e-01
  3.251733e+01    7.159813e-01
  3.253321e+01    7.207361e-01
  3.254908e+01    7.158752e-01
