# == pyFAI calibration ==
# Distance Sample to Detector: 0.3999999939076516 m
# PONI: 9.750e-02, 1.135e-01 m
# Rotations: -0.000175 0.000000 -0.000000 rad
# 
# == Fit2d calibration ==
# Distance Sample-beamCenter: 400.000 mm
# Center: x=1514.000, y=1300.000 pix
# Tilt: 0.010 deg  TiltPlanRot: 0.010 deg
# 
# Detector Detector	 Spline= None	 PixelSize= 7.500e-05, 7.500e-05 m
#    Detector has a mask: False 
#    Detector has a dark current: False 
#    detector has a flat field: False 
# 
# Wavelength: 6.888e-11 m
# Mask applied: user provided
# Dark current applied: False
# Flat field applied: False
# Polarization factor: 0.99
# Normalization factor: 1.0
# --> /home/myspot/data/2024_07_Rosario/Ru-CGO-ex/2024-07-27_002_Ru-CGO-ex_Activtation_ramp_000002_data_000051.dat
#       q_nm^-1             I 
  2.003187e-02    1.647358e-01
  3.590745e-02    1.261650e-01
  5.178302e-02    1.410979e-01
  6.765859e-02    1.953128e-01
  8.353417e-02    1.378339e-01
  9.940974e-02    6.542709e-02
  1.152853e-01    7.298946e-02
  1.311609e-01    7.384097e-02
  1.470365e-01    7.812933e-02
  1.629120e-01    1.377510e-01
  1.787876e-01    2.238120e-02
  1.946632e-01    1.647445e-02
  2.105388e-01    1.180838e-02
  2.264143e-01    0.000000e+00
  2.422899e-01    2.733039e-02
  2.581655e-01    3.673464e-02
  2.740411e-01    2.489663e-02
  2.899166e-01    5.450028e-03
  3.057922e-01    1.376922e-02
  3.216678e-01    5.008515e-04
  3.375433e-01    1.170573e-02
  3.534189e-01    1.350637e-02
  3.692945e-01    5.733496e-02
  3.851701e-01    5.533424e-02
  4.010456e-01    3.345161e-02
  4.169212e-01    2.468766e-02
  4.327968e-01    5.829272e-02
  4.486724e-01    6.699871e-02
  4.645479e-01    5.557971e-02
  4.804235e-01    4.157035e-02
  4.962991e-01    4.778662e-02
  5.121747e-01    4.275929e-02
  5.280502e-01    1.218858e-02
  5.439258e-01    1.840817e-02
  5.598014e-01    4.092792e-02
  5.756770e-01    6.145094e-02
  5.915525e-01    6.803512e-02
  6.074281e-01    5.398691e-02
  6.233037e-01    2.335853e-02
  6.391793e-01    3.174348e-02
  6.550548e-01    6.466477e-02
  6.709304e-01    5.987212e-02
  6.868060e-01    4.869859e-02
  7.026815e-01    5.873365e-02
  7.185571e-01    6.985049e-02
  7.344327e-01    7.198595e-02
  7.503083e-01    7.358783e-02
  7.661838e-01    6.540851e-02
  7.820594e-01    1.333493e-01
  7.979350e-01    1.437307e-01
  8.138106e-01    1.741303e-01
  8.296861e-01    2.286068e-01
  8.455617e-01    2.396712e-01
  8.614373e-01    3.962087e-01
  8.773129e-01    4.641663e-01
  8.931884e-01    5.091565e-01
  9.090640e-01    5.592756e-01
  9.249396e-01    6.744033e-01
  9.408152e-01    7.164174e-01
  9.566907e-01    7.828910e-01
  9.725663e-01    8.620686e-01
  9.884419e-01    1.030839e+00
  1.004317e+00    1.155328e+00
  1.020193e+00    1.176499e+00
  1.036069e+00    1.178507e+00
  1.051944e+00    1.250480e+00
  1.067820e+00    1.322949e+00
  1.083695e+00    1.372687e+00
  1.099571e+00    1.385290e+00
  1.115446e+00    1.375400e+00
  1.131322e+00    1.444013e+00
  1.147198e+00    1.577713e+00
  1.163073e+00    1.508793e+00
  1.178949e+00    1.571216e+00
  1.194824e+00    1.703703e+00
  1.210700e+00    1.857533e+00
  1.226575e+00    1.967618e+00
  1.242451e+00    2.235976e+00
  1.258327e+00    2.434298e+00
  1.274202e+00    2.577827e+00
  1.290078e+00    2.546242e+00
  1.305953e+00    2.536779e+00
  1.321829e+00    2.511726e+00
  1.337705e+00    2.577108e+00
  1.353580e+00    2.698526e+00
  1.369456e+00    2.680909e+00
  1.385331e+00    2.568195e+00
  1.401207e+00    2.539196e+00
  1.417082e+00    2.661765e+00
  1.432958e+00    2.833410e+00
  1.448834e+00    2.731025e+00
  1.464709e+00    2.826173e+00
  1.480585e+00    2.834448e+00
  1.496460e+00    2.954671e+00
  1.512336e+00    2.844972e+00
  1.528211e+00    2.955968e+00
  1.544087e+00    3.081391e+00
  1.559963e+00    3.083452e+00
  1.575838e+00    2.979130e+00
  1.591714e+00    3.043130e+00
  1.607589e+00    3.063269e+00
  1.623465e+00    2.942668e+00
  1.639340e+00    2.866943e+00
  1.655216e+00    2.859554e+00
  1.671092e+00    2.967807e+00
  1.686967e+00    2.981529e+00
  1.702843e+00    2.849512e+00
  1.718718e+00    2.836079e+00
  1.734594e+00    2.813306e+00
  1.750469e+00    2.807522e+00
  1.766345e+00    2.931813e+00
  1.782221e+00    2.810913e+00
  1.798096e+00    2.908432e+00
  1.813972e+00    2.869875e+00
  1.829847e+00    2.887375e+00
  1.845723e+00    2.818163e+00
  1.861598e+00    2.794758e+00
  1.877474e+00    2.824939e+00
  1.893350e+00    2.822647e+00
  1.909225e+00    2.760299e+00
  1.925101e+00    2.839116e+00
  1.940976e+00    2.810454e+00
  1.956852e+00    2.804044e+00
  1.972727e+00    2.835188e+00
  1.988603e+00    2.868190e+00
  2.004479e+00    2.843368e+00
  2.020354e+00    2.858206e+00
  2.036230e+00    2.886643e+00
  2.052105e+00    2.679947e+00
  2.067981e+00    2.660073e+00
  2.083856e+00    2.708646e+00
  2.099732e+00    2.803107e+00
  2.115608e+00    2.721010e+00
  2.131483e+00    2.769648e+00
  2.147359e+00    2.850491e+00
  2.163234e+00    2.804672e+00
  2.179110e+00    2.763660e+00
  2.194985e+00    2.692226e+00
  2.210861e+00    2.723253e+00
  2.226737e+00    2.784358e+00
  2.242612e+00    2.815341e+00
  2.258488e+00    2.817249e+00
  2.274363e+00    2.870398e+00
  2.290239e+00    2.841171e+00
  2.306115e+00    2.792056e+00
  2.321990e+00    2.715069e+00
  2.337866e+00    2.888598e+00
  2.353741e+00    2.898316e+00
  2.369617e+00    2.765783e+00
  2.385492e+00    2.707067e+00
  2.401368e+00    2.674953e+00
  2.417244e+00    2.797633e+00
  2.433119e+00    2.820010e+00
  2.448995e+00    2.866014e+00
  2.464870e+00    2.828113e+00
  2.480746e+00    2.773585e+00
  2.496621e+00    2.786251e+00
  2.512497e+00    2.803995e+00
  2.528373e+00    2.797653e+00
  2.544248e+00    2.751312e+00
  2.560124e+00    2.793252e+00
  2.575999e+00    2.852154e+00
  2.591875e+00    2.829284e+00
  2.607750e+00    2.762571e+00
  2.623626e+00    2.745316e+00
  2.639502e+00    2.706407e+00
  2.655377e+00    2.817222e+00
  2.671253e+00    2.813653e+00
  2.687128e+00    2.803226e+00
  2.703004e+00    2.787693e+00
  2.718879e+00    2.785473e+00
  2.734755e+00    2.746449e+00
  2.750631e+00    2.882706e+00
  2.766506e+00    2.896688e+00
  2.782382e+00    2.734145e+00
  2.798257e+00    2.733156e+00
  2.814133e+00    2.802937e+00
  2.830008e+00    2.870314e+00
  2.845884e+00    2.895747e+00
  2.861760e+00    2.847486e+00
  2.877635e+00    2.858049e+00
  2.893511e+00    2.778284e+00
  2.909386e+00    2.818493e+00
  2.925262e+00    2.854026e+00
  2.941137e+00    2.929018e+00
  2.957013e+00    2.951718e+00
  2.972889e+00    2.926118e+00
  2.988764e+00    3.055715e+00
  3.004640e+00    2.977917e+00
  3.020515e+00    2.872698e+00
  3.036391e+00    2.889699e+00
  3.052266e+00    2.902454e+00
  3.068142e+00    2.999168e+00
  3.084018e+00    2.982753e+00
  3.099893e+00    2.920373e+00
  3.115769e+00    2.916662e+00
  3.131644e+00    2.947923e+00
  3.147520e+00    2.912006e+00
  3.163395e+00    2.909074e+00
  3.179271e+00    2.925853e+00
  3.195147e+00    2.941133e+00
  3.211022e+00    2.946986e+00
  3.226898e+00    2.974422e+00
  3.242773e+00    2.899247e+00
  3.258649e+00    2.834991e+00
  3.274525e+00    2.882627e+00
  3.290400e+00    2.958602e+00
  3.306276e+00    2.908547e+00
  3.322151e+00    2.913963e+00
  3.338027e+00    3.001043e+00
  3.353902e+00    3.014202e+00
  3.369778e+00    2.920983e+00
  3.385654e+00    2.893358e+00
  3.401529e+00    2.876360e+00
  3.417405e+00    2.940227e+00
  3.433280e+00    3.030883e+00
  3.449156e+00    2.991883e+00
  3.465031e+00    3.033646e+00
  3.480907e+00    2.921185e+00
  3.496783e+00    2.920018e+00
  3.512658e+00    2.968948e+00
  3.528534e+00    2.934291e+00
  3.544409e+00    2.952058e+00
  3.560285e+00    2.904205e+00
  3.576160e+00    2.902720e+00
  3.592036e+00    2.880124e+00
  3.607912e+00    2.953547e+00
  3.623787e+00    3.030488e+00
  3.639663e+00    3.053027e+00
  3.655538e+00    2.980011e+00
  3.671414e+00    3.062606e+00
  3.687289e+00    3.049832e+00
  3.703165e+00    2.962363e+00
  3.719041e+00    2.872461e+00
  3.734916e+00    2.973145e+00
  3.750792e+00    3.048408e+00
  3.766667e+00    3.042321e+00
  3.782543e+00    3.074331e+00
  3.798418e+00    3.048480e+00
  3.814294e+00    2.968302e+00
  3.830170e+00    2.956094e+00
  3.846045e+00    2.934015e+00
  3.861921e+00    3.012427e+00
  3.877796e+00    3.070853e+00
  3.893672e+00    3.069584e+00
  3.909547e+00    3.048909e+00
  3.925423e+00    3.033134e+00
  3.941299e+00    3.013123e+00
  3.957174e+00    2.967872e+00
  3.973050e+00    3.040723e+00
  3.988925e+00    2.994798e+00
  4.004801e+00    2.968398e+00
  4.020676e+00    2.927327e+00
  4.036552e+00    3.049668e+00
  4.052428e+00    3.142194e+00
  4.068303e+00    3.049889e+00
  4.084179e+00    3.065418e+00
  4.100054e+00    3.056867e+00
  4.115930e+00    3.034902e+00
  4.131806e+00    3.020665e+00
  4.147681e+00    3.057813e+00
  4.163557e+00    3.084825e+00
  4.179432e+00    3.061589e+00
  4.195308e+00    3.086057e+00
  4.211183e+00    3.074554e+00
  4.227059e+00    3.029774e+00
  4.242935e+00    3.033283e+00
  4.258810e+00    3.076642e+00
  4.274686e+00    3.072207e+00
  4.290561e+00    3.000433e+00
  4.306437e+00    3.025951e+00
  4.322312e+00    3.098908e+00
  4.338188e+00    3.067284e+00
  4.354064e+00    3.056751e+00
  4.369939e+00    3.025588e+00
  4.385815e+00    3.067070e+00
  4.401690e+00    3.123511e+00
  4.417566e+00    3.055443e+00
  4.433441e+00    3.041202e+00
  4.449317e+00    3.024893e+00
  4.465193e+00    3.021418e+00
  4.481068e+00    3.059641e+00
  4.496944e+00    3.057148e+00
  4.512819e+00    3.066000e+00
  4.528695e+00    3.049707e+00
  4.544570e+00    3.095538e+00
  4.560446e+00    3.008675e+00
  4.576322e+00    2.970350e+00
  4.592197e+00    3.018129e+00
  4.608073e+00    3.067904e+00
  4.623948e+00    3.049729e+00
  4.639824e+00    3.118556e+00
  4.655699e+00    3.078544e+00
  4.671575e+00    3.095375e+00
  4.687451e+00    3.069351e+00
  4.703326e+00    3.007369e+00
  4.719202e+00    3.010041e+00
  4.735077e+00    3.055138e+00
  4.750953e+00    3.157114e+00
  4.766828e+00    3.126614e+00
  4.782704e+00    3.125375e+00
  4.798580e+00    3.100451e+00
  4.814455e+00    3.140893e+00
  4.830331e+00    3.190402e+00
  4.846206e+00    3.125621e+00
  4.862082e+00    3.072423e+00
  4.877957e+00    3.150127e+00
  4.893833e+00    3.116904e+00
  4.909709e+00    3.112463e+00
  4.925584e+00    3.204511e+00
  4.941460e+00    3.172534e+00
  4.957335e+00    3.054387e+00
  4.973211e+00    3.137827e+00
  4.989086e+00    3.147366e+00
  5.004962e+00    3.095261e+00
  5.020838e+00    3.160413e+00
  5.036713e+00    3.123872e+00
  5.052589e+00    3.102993e+00
  5.068464e+00    3.108257e+00
  5.084340e+00    3.085078e+00
  5.100216e+00    3.138546e+00
  5.116091e+00    3.214381e+00
  5.131967e+00    3.104335e+00
  5.147842e+00    3.095524e+00
  5.163718e+00    3.083492e+00
  5.179593e+00    3.081771e+00
  5.195469e+00    3.036787e+00
  5.211345e+00    3.013113e+00
  5.227220e+00    3.054279e+00
  5.243096e+00    3.089541e+00
  5.258971e+00    3.154041e+00
  5.274847e+00    3.169315e+00
  5.290722e+00    3.139304e+00
  5.306598e+00    3.087554e+00
  5.322474e+00    3.094738e+00
  5.338349e+00    3.095960e+00
  5.354225e+00    3.188968e+00
  5.370100e+00    3.175435e+00
  5.385976e+00    3.112526e+00
  5.401851e+00    3.026434e+00
  5.417727e+00    3.047672e+00
  5.433603e+00    3.119291e+00
  5.449478e+00    3.122519e+00
  5.465354e+00    3.082064e+00
  5.481229e+00    3.089014e+00
  5.497105e+00    3.064624e+00
  5.512980e+00    2.940858e+00
  5.528856e+00    2.997726e+00
  5.544732e+00    3.055573e+00
  5.560607e+00    3.095546e+00
  5.576483e+00    3.104034e+00
  5.592358e+00    3.020674e+00
  5.608234e+00    3.081833e+00
  5.624109e+00    3.078848e+00
  5.639985e+00    3.067414e+00
  5.655861e+00    3.039824e+00
  5.671736e+00    3.063695e+00
  5.687612e+00    2.999789e+00
  5.703487e+00    3.055378e+00
  5.719363e+00    3.164363e+00
  5.735238e+00    3.137568e+00
  5.751114e+00    3.104859e+00
  5.766990e+00    3.057193e+00
  5.782865e+00    3.014149e+00
  5.798741e+00    2.994971e+00
  5.814616e+00    2.959986e+00
  5.830492e+00    2.966615e+00
  5.846367e+00    3.057611e+00
  5.862243e+00    3.031397e+00
  5.878119e+00    2.978834e+00
  5.893994e+00    3.017653e+00
  5.909870e+00    3.054048e+00
  5.925745e+00    3.052002e+00
  5.941621e+00    3.093297e+00
  5.957497e+00    3.023897e+00
  5.973372e+00    2.986331e+00
  5.989248e+00    3.052812e+00
  6.005123e+00    2.983217e+00
  6.020999e+00    2.991788e+00
  6.036874e+00    3.061247e+00
  6.052750e+00    3.067954e+00
  6.068626e+00    2.997733e+00
  6.084501e+00    3.067936e+00
  6.100377e+00    3.005869e+00
  6.116252e+00    2.971959e+00
  6.132128e+00    3.058550e+00
  6.148003e+00    3.098734e+00
  6.163879e+00    3.074098e+00
  6.179755e+00    3.102808e+00
  6.195630e+00    3.075581e+00
  6.211506e+00    3.064406e+00
  6.227381e+00    3.034248e+00
  6.243257e+00    2.959025e+00
  6.259132e+00    2.964963e+00
  6.275008e+00    2.980891e+00
  6.290884e+00    3.047907e+00
  6.306759e+00    3.027498e+00
  6.322635e+00    3.043131e+00
  6.338510e+00    3.070784e+00
  6.354386e+00    3.026914e+00
  6.370261e+00    3.012000e+00
  6.386137e+00    3.010310e+00
  6.402013e+00    3.061913e+00
  6.417888e+00    3.043797e+00
  6.433764e+00    3.040802e+00
  6.449639e+00    3.081085e+00
  6.465515e+00    3.039922e+00
  6.481390e+00    3.077042e+00
  6.497266e+00    3.051994e+00
  6.513142e+00    3.005958e+00
  6.529017e+00    3.030805e+00
  6.544893e+00    2.965421e+00
  6.560768e+00    2.984993e+00
  6.576644e+00    3.069234e+00
  6.592519e+00    3.097772e+00
  6.608395e+00    3.057633e+00
  6.624271e+00    3.055827e+00
  6.640146e+00    3.023570e+00
  6.656022e+00    3.000519e+00
  6.671897e+00    3.015733e+00
  6.687773e+00    2.965333e+00
  6.703648e+00    3.034813e+00
  6.719524e+00    3.049224e+00
  6.735400e+00    3.077291e+00
  6.751275e+00    3.103102e+00
  6.767151e+00    3.080085e+00
  6.783026e+00    2.992641e+00
  6.798902e+00    2.957898e+00
  6.814777e+00    3.036586e+00
  6.830653e+00    3.075704e+00
  6.846529e+00    3.035129e+00
  6.862404e+00    3.026830e+00
  6.878280e+00    2.962610e+00
  6.894155e+00    2.935888e+00
  6.910031e+00    2.926759e+00
  6.925907e+00    3.003193e+00
  6.941782e+00    2.975986e+00
  6.957658e+00    3.001518e+00
  6.973533e+00    3.002932e+00
  6.989409e+00    2.947802e+00
  7.005284e+00    3.012915e+00
  7.021160e+00    3.064038e+00
  7.037036e+00    2.964816e+00
  7.052911e+00    2.940914e+00
  7.068787e+00    2.994916e+00
  7.084662e+00    2.979688e+00
  7.100538e+00    3.023015e+00
  7.116413e+00    3.038224e+00
  7.132289e+00    3.010602e+00
  7.148165e+00    2.956043e+00
  7.164040e+00    2.988594e+00
  7.179916e+00    3.008211e+00
  7.195791e+00    2.980012e+00
  7.211667e+00    3.033869e+00
  7.227542e+00    3.057716e+00
  7.243418e+00    2.988886e+00
  7.259294e+00    2.970313e+00
  7.275169e+00    2.998727e+00
  7.291045e+00    3.043169e+00
  7.306920e+00    3.039819e+00
  7.322796e+00    3.079871e+00
  7.338671e+00    3.037710e+00
  7.354547e+00    2.967369e+00
  7.370423e+00    2.954223e+00
  7.386298e+00    2.998505e+00
  7.402174e+00    2.967464e+00
  7.418049e+00    2.986391e+00
  7.433925e+00    3.009137e+00
  7.449800e+00    2.992774e+00
  7.465676e+00    2.996105e+00
  7.481552e+00    2.950448e+00
  7.497427e+00    3.002746e+00
  7.513303e+00    2.986041e+00
  7.529178e+00    2.941956e+00
  7.545054e+00    2.924812e+00
  7.560929e+00    2.981598e+00
  7.576805e+00    2.932074e+00
  7.592681e+00    2.947583e+00
  7.608556e+00    2.982383e+00
  7.624432e+00    2.916992e+00
  7.640307e+00    2.938190e+00
  7.656183e+00    2.990642e+00
  7.672058e+00    2.983022e+00
  7.687934e+00    2.933041e+00
  7.703810e+00    2.957228e+00
  7.719685e+00    2.943799e+00
  7.735561e+00    2.924441e+00
  7.751436e+00    2.924740e+00
  7.767312e+00    2.944891e+00
  7.783187e+00    2.927182e+00
  7.799063e+00    2.927425e+00
  7.814939e+00    2.934105e+00
  7.830814e+00    2.920431e+00
  7.846690e+00    2.936857e+00
  7.862565e+00    2.962815e+00
  7.878441e+00    2.940081e+00
  7.894317e+00    2.874950e+00
  7.910192e+00    2.877945e+00
  7.926068e+00    2.878397e+00
  7.941943e+00    2.880745e+00
  7.957819e+00    2.948281e+00
  7.973694e+00    2.985687e+00
  7.989570e+00    2.910390e+00
  8.005446e+00    2.923608e+00
  8.021321e+00    2.933301e+00
  8.037197e+00    2.926690e+00
  8.053072e+00    2.931195e+00
  8.068948e+00    2.910503e+00
  8.084823e+00    2.900136e+00
  8.100699e+00    2.947979e+00
  8.116575e+00    2.925554e+00
  8.132450e+00    2.936647e+00
  8.148326e+00    2.919106e+00
  8.164201e+00    2.974883e+00
  8.180077e+00    2.944463e+00
  8.195952e+00    2.945091e+00
  8.211828e+00    3.040455e+00
  8.227704e+00    3.016298e+00
  8.243579e+00    3.050713e+00
  8.259455e+00    3.019639e+00
  8.275330e+00    2.929545e+00
  8.291206e+00    2.942764e+00
  8.307081e+00    2.899124e+00
  8.322957e+00    2.892607e+00
  8.338833e+00    2.869433e+00
  8.354708e+00    2.865730e+00
  8.370584e+00    2.834836e+00
  8.386459e+00    2.838702e+00
  8.402335e+00    2.945519e+00
  8.418210e+00    2.909352e+00
  8.434086e+00    2.957036e+00
  8.449962e+00    2.970852e+00
  8.465837e+00    2.890473e+00
  8.481713e+00    2.909234e+00
  8.497588e+00    2.889583e+00
  8.513464e+00    2.864620e+00
  8.529339e+00    2.838250e+00
  8.545215e+00    2.880050e+00
  8.561091e+00    2.870530e+00
  8.576966e+00    2.875449e+00
  8.592842e+00    2.860302e+00
  8.608717e+00    2.871431e+00
  8.624593e+00    2.891062e+00
  8.640468e+00    2.867695e+00
  8.656344e+00    2.822460e+00
  8.672220e+00    2.827935e+00
  8.688095e+00    2.853105e+00
  8.703971e+00    2.900134e+00
  8.719846e+00    2.830396e+00
  8.735722e+00    2.848663e+00
  8.751598e+00    2.874475e+00
  8.767473e+00    2.877593e+00
  8.783349e+00    2.793636e+00
  8.799224e+00    2.842090e+00
  8.815100e+00    2.860831e+00
  8.830975e+00    2.817459e+00
  8.846851e+00    2.791964e+00
  8.862727e+00    2.837006e+00
  8.878602e+00    2.799239e+00
  8.894478e+00    2.768563e+00
  8.910353e+00    2.803460e+00
  8.926229e+00    2.793565e+00
  8.942104e+00    2.833486e+00
  8.957980e+00    2.843415e+00
  8.973856e+00    2.798094e+00
  8.989731e+00    2.806656e+00
  9.005607e+00    2.848199e+00
  9.021482e+00    2.857280e+00
  9.037358e+00    2.852478e+00
  9.053233e+00    2.860460e+00
  9.069109e+00    2.846679e+00
  9.084985e+00    2.805415e+00
  9.100860e+00    2.839404e+00
  9.116736e+00    2.816399e+00
  9.132611e+00    2.819555e+00
  9.148487e+00    2.826789e+00
  9.164362e+00    2.818269e+00
  9.180238e+00    2.763686e+00
  9.196114e+00    2.770176e+00
  9.211989e+00    2.812744e+00
  9.227865e+00    2.812174e+00
  9.243740e+00    2.760978e+00
  9.259616e+00    2.774654e+00
  9.275491e+00    2.816500e+00
  9.291367e+00    2.806597e+00
  9.307243e+00    2.776487e+00
  9.323118e+00    2.825471e+00
  9.338994e+00    2.741349e+00
  9.354869e+00    2.760859e+00
  9.370745e+00    2.755362e+00
  9.386620e+00    2.808957e+00
  9.402496e+00    2.760327e+00
  9.418372e+00    2.739916e+00
  9.434247e+00    2.717453e+00
  9.450123e+00    2.799667e+00
  9.465998e+00    2.790740e+00
  9.481874e+00    2.733339e+00
  9.497749e+00    2.743814e+00
  9.513625e+00    2.809203e+00
  9.529501e+00    2.764312e+00
  9.545376e+00    2.780920e+00
  9.561252e+00    2.800423e+00
  9.577127e+00    2.771582e+00
  9.593003e+00    2.756139e+00
  9.608878e+00    2.795629e+00
  9.624754e+00    2.810753e+00
  9.640630e+00    2.788265e+00
  9.656505e+00    2.721308e+00
  9.672381e+00    2.735954e+00
  9.688256e+00    2.727745e+00
  9.704132e+00    2.702909e+00
  9.720008e+00    2.671980e+00
  9.735883e+00    2.759746e+00
  9.751759e+00    2.711617e+00
  9.767634e+00    2.710344e+00
  9.783510e+00    2.729160e+00
  9.799385e+00    2.711424e+00
  9.815261e+00    2.655462e+00
  9.831137e+00    2.655846e+00
  9.847012e+00    2.708658e+00
  9.862888e+00    2.717521e+00
  9.878763e+00    2.670717e+00
  9.894639e+00    2.644077e+00
  9.910514e+00    2.654931e+00
  9.926390e+00    2.637936e+00
  9.942266e+00    2.662533e+00
  9.958141e+00    2.674839e+00
  9.974017e+00    2.659565e+00
  9.989892e+00    2.663466e+00
  1.000577e+01    2.683322e+00
  1.002164e+01    2.673981e+00
  1.003752e+01    2.699136e+00
  1.005339e+01    2.648198e+00
  1.006927e+01    2.631213e+00
  1.008515e+01    2.661861e+00
  1.010102e+01    2.619375e+00
  1.011690e+01    2.668730e+00
  1.013277e+01    2.652181e+00
  1.014865e+01    2.634373e+00
  1.016452e+01    2.685735e+00
  1.018040e+01    2.609248e+00
  1.019627e+01    2.615874e+00
  1.021215e+01    2.640768e+00
  1.022803e+01    2.622020e+00
  1.024390e+01    2.640229e+00
  1.025978e+01    2.616035e+00
  1.027565e+01    2.585502e+00
  1.029153e+01    2.669140e+00
  1.030740e+01    2.690866e+00
  1.032328e+01    2.625358e+00
  1.033915e+01    2.666311e+00
  1.035503e+01    2.685110e+00
  1.037091e+01    2.636469e+00
  1.038678e+01    2.577629e+00
  1.040266e+01    2.593069e+00
  1.041853e+01    2.644770e+00
  1.043441e+01    2.636489e+00
  1.045028e+01    2.571782e+00
  1.046616e+01    2.592635e+00
  1.048204e+01    2.564806e+00
  1.049791e+01    2.580485e+00
  1.051379e+01    2.547957e+00
  1.052966e+01    2.529637e+00
  1.054554e+01    2.547203e+00
  1.056141e+01    2.580446e+00
  1.057729e+01    2.584277e+00
  1.059316e+01    2.559343e+00
  1.060904e+01    2.571121e+00
  1.062492e+01    2.582835e+00
  1.064079e+01    2.626834e+00
  1.065667e+01    2.572441e+00
  1.067254e+01    2.523555e+00
  1.068842e+01    2.576967e+00
  1.070429e+01    2.600496e+00
  1.072017e+01    2.594298e+00
  1.073604e+01    2.500854e+00
  1.075192e+01    2.513178e+00
  1.076780e+01    2.539747e+00
  1.078367e+01    2.522413e+00
  1.079955e+01    2.542253e+00
  1.081542e+01    2.544650e+00
  1.083130e+01    2.560943e+00
  1.084717e+01    2.542490e+00
  1.086305e+01    2.518290e+00
  1.087892e+01    2.499252e+00
  1.089480e+01    2.479908e+00
  1.091068e+01    2.497546e+00
  1.092655e+01    2.477199e+00
  1.094243e+01    2.514141e+00
  1.095830e+01    2.516635e+00
  1.097418e+01    2.491670e+00
  1.099005e+01    2.485738e+00
  1.100593e+01    2.478008e+00
  1.102180e+01    2.441163e+00
  1.103768e+01    2.410591e+00
  1.105356e+01    2.444303e+00
  1.106943e+01    2.486810e+00
  1.108531e+01    2.497221e+00
  1.110118e+01    2.487006e+00
  1.111706e+01    2.493329e+00
  1.113293e+01    2.487689e+00
  1.114881e+01    2.479796e+00
  1.116468e+01    2.468036e+00
  1.118056e+01    2.469023e+00
  1.119644e+01    2.484846e+00
  1.121231e+01    2.451038e+00
  1.122819e+01    2.464207e+00
  1.124406e+01    2.443827e+00
  1.125994e+01    2.455598e+00
  1.127581e+01    2.456619e+00
  1.129169e+01    2.425738e+00
  1.130756e+01    2.438162e+00
  1.132344e+01    2.469619e+00
  1.133932e+01    2.452529e+00
  1.135519e+01    2.436945e+00
  1.137107e+01    2.410906e+00
  1.138694e+01    2.366751e+00
  1.140282e+01    2.423501e+00
  1.141869e+01    2.416991e+00
  1.143457e+01    2.416207e+00
  1.145045e+01    2.437174e+00
  1.146632e+01    2.446815e+00
  1.148220e+01    2.443051e+00
  1.149807e+01    2.441977e+00
  1.151395e+01    2.396037e+00
  1.152982e+01    2.378544e+00
  1.154570e+01    2.371774e+00
  1.156157e+01    2.352711e+00
  1.157745e+01    2.387805e+00
  1.159333e+01    2.394944e+00
  1.160920e+01    2.379801e+00
  1.162508e+01    2.326213e+00
  1.164095e+01    2.356748e+00
  1.165683e+01    2.345798e+00
  1.167270e+01    2.386222e+00
  1.168858e+01    2.396492e+00
  1.170445e+01    2.369836e+00
  1.172033e+01    2.351373e+00
  1.173621e+01    2.391513e+00
  1.175208e+01    2.416144e+00
  1.176796e+01    2.362743e+00
  1.178383e+01    2.357203e+00
  1.179971e+01    2.394228e+00
  1.181558e+01    2.409380e+00
  1.183146e+01    2.308597e+00
  1.184733e+01    2.349248e+00
  1.186321e+01    2.403938e+00
  1.187909e+01    2.383328e+00
  1.189496e+01    2.351652e+00
  1.191084e+01    2.345142e+00
  1.192671e+01    2.336145e+00
  1.194259e+01    2.350458e+00
  1.195846e+01    2.373239e+00
  1.197434e+01    2.300892e+00
  1.199021e+01    2.313535e+00
  1.200609e+01    2.330568e+00
  1.202197e+01    2.314964e+00
  1.203784e+01    2.340738e+00
  1.205372e+01    2.334625e+00
  1.206959e+01    2.338625e+00
  1.208547e+01    2.353588e+00
  1.210134e+01    2.354420e+00
  1.211722e+01    2.361937e+00
  1.213309e+01    2.343075e+00
  1.214897e+01    2.325097e+00
  1.216485e+01    2.288373e+00
  1.218072e+01    2.291119e+00
  1.219660e+01    2.344268e+00
  1.221247e+01    2.345940e+00
  1.222835e+01    2.307067e+00
  1.224422e+01    2.340968e+00
  1.226010e+01    2.322141e+00
  1.227597e+01    2.284499e+00
  1.229185e+01    2.299424e+00
  1.230773e+01    2.340665e+00
  1.232360e+01    2.300418e+00
  1.233948e+01    2.324293e+00
  1.235535e+01    2.349693e+00
  1.237123e+01    2.338643e+00
  1.238710e+01    2.276990e+00
  1.240298e+01    2.292227e+00
  1.241886e+01    2.322691e+00
  1.243473e+01    2.350040e+00
  1.245061e+01    2.350574e+00
  1.246648e+01    2.352818e+00
  1.248236e+01    2.343351e+00
  1.249823e+01    2.357546e+00
  1.251411e+01    2.373426e+00
  1.252998e+01    2.383246e+00
  1.254586e+01    2.369394e+00
  1.256174e+01    2.355878e+00
  1.257761e+01    2.379100e+00
  1.259349e+01    2.408894e+00
  1.260936e+01    2.458594e+00
  1.262524e+01    2.437010e+00
  1.264111e+01    2.443182e+00
  1.265699e+01    2.421634e+00
  1.267286e+01    2.461304e+00
  1.268874e+01    2.451996e+00
  1.270462e+01    2.492821e+00
  1.272049e+01    2.524807e+00
  1.273637e+01    2.542711e+00
  1.275224e+01    2.592664e+00
  1.276812e+01    2.626111e+00
  1.278399e+01    2.649420e+00
  1.279987e+01    2.709894e+00
  1.281574e+01    2.731356e+00
  1.283162e+01    2.774564e+00
  1.284750e+01    2.830976e+00
  1.286337e+01    2.892002e+00
  1.287925e+01    3.038635e+00
  1.289512e+01    3.130827e+00
  1.291100e+01    3.246240e+00
  1.292687e+01    3.495869e+00
  1.294275e+01    3.688704e+00
  1.295862e+01    4.016737e+00
  1.297450e+01    4.282276e+00
  1.299038e+01    4.740115e+00
  1.300625e+01    5.280479e+00
  1.302213e+01    5.950254e+00
  1.303800e+01    6.825217e+00
  1.305388e+01    7.932136e+00
  1.306975e+01    9.204153e+00
  1.308563e+01    1.070926e+01
  1.310150e+01    1.221978e+01
  1.311738e+01    1.373960e+01
  1.313326e+01    1.502406e+01
  1.314913e+01    1.636974e+01
  1.316501e+01    1.774249e+01
  1.318088e+01    1.880285e+01
  1.319676e+01    1.902862e+01
  1.321263e+01    1.849506e+01
  1.322851e+01    1.698543e+01
  1.324438e+01    1.504345e+01
  1.326026e+01    1.276992e+01
  1.327614e+01    1.065786e+01
  1.329201e+01    8.978456e+00
  1.330789e+01    7.603454e+00
  1.332376e+01    6.583768e+00
  1.333964e+01    5.709954e+00
  1.335551e+01    5.020460e+00
  1.337139e+01    4.545356e+00
  1.338727e+01    4.223055e+00
  1.340314e+01    3.941026e+00
  1.341902e+01    3.642676e+00
  1.343489e+01    3.392745e+00
  1.345077e+01    3.217563e+00
  1.346664e+01    3.142563e+00
  1.348252e+01    2.919392e+00
  1.349839e+01    2.875689e+00
  1.351427e+01    2.787151e+00
  1.353015e+01    2.678261e+00
  1.354602e+01    2.605513e+00
  1.356190e+01    2.592964e+00
  1.357777e+01    2.472002e+00
  1.359365e+01    2.478172e+00
  1.360952e+01    2.457448e+00
  1.362540e+01    2.416752e+00
  1.364127e+01    2.400845e+00
  1.365715e+01    2.365365e+00
  1.367303e+01    2.349014e+00
  1.368890e+01    2.304155e+00
  1.370478e+01    2.326996e+00
  1.372065e+01    2.294566e+00
  1.373653e+01    2.255784e+00
  1.375240e+01    2.234532e+00
  1.376828e+01    2.188702e+00
  1.378415e+01    2.191225e+00
  1.380003e+01    2.178734e+00
  1.381591e+01    2.210536e+00
  1.383178e+01    2.159177e+00
  1.384766e+01    2.111206e+00
  1.386353e+01    2.130533e+00
  1.387941e+01    2.148274e+00
  1.389528e+01    2.130145e+00
  1.391116e+01    2.043472e+00
  1.392703e+01    2.060294e+00
  1.394291e+01    2.080095e+00
  1.395879e+01    2.076798e+00
  1.397466e+01    2.042157e+00
  1.399054e+01    2.049003e+00
  1.400641e+01    2.068077e+00
  1.402229e+01    2.079492e+00
  1.403816e+01    2.046074e+00
  1.405404e+01    2.025955e+00
  1.406991e+01    2.045659e+00
  1.408579e+01    2.068401e+00
  1.410167e+01    2.047506e+00
  1.411754e+01    2.025107e+00
  1.413342e+01    2.029806e+00
  1.414929e+01    1.984034e+00
  1.416517e+01    1.976019e+00
  1.418104e+01    2.016087e+00
  1.419692e+01    2.065950e+00
  1.421279e+01    2.034987e+00
  1.422867e+01    1.993423e+00
  1.424455e+01    1.967255e+00
  1.426042e+01    1.967651e+00
  1.427630e+01    1.966439e+00
  1.429217e+01    2.002535e+00
  1.430805e+01    2.021586e+00
  1.432392e+01    1.988479e+00
  1.433980e+01    1.953758e+00
  1.435568e+01    1.904127e+00
  1.437155e+01    1.955925e+00
  1.438743e+01    1.937428e+00
  1.440330e+01    1.922582e+00
  1.441918e+01    1.932544e+00
  1.443505e+01    1.920477e+00
  1.445093e+01    1.951905e+00
  1.446680e+01    1.936788e+00
  1.448268e+01    1.932110e+00
  1.449856e+01    1.954643e+00
  1.451443e+01    1.949201e+00
  1.453031e+01    1.957570e+00
  1.454618e+01    1.956378e+00
  1.456206e+01    1.919127e+00
  1.457793e+01    1.905252e+00
  1.459381e+01    1.914671e+00
  1.460968e+01    1.921388e+00
  1.462556e+01    1.923446e+00
  1.464144e+01    1.920188e+00
  1.465731e+01    1.914512e+00
  1.467319e+01    1.928428e+00
  1.468906e+01    1.948584e+00
  1.470494e+01    1.890201e+00
  1.472081e+01    1.909321e+00
  1.473669e+01    1.947635e+00
  1.475256e+01    1.911978e+00
  1.476844e+01    1.906691e+00
  1.478432e+01    1.939941e+00
  1.480019e+01    1.882315e+00
  1.481607e+01    1.929328e+00
  1.483194e+01    1.951864e+00
  1.484782e+01    1.894873e+00
  1.486369e+01    1.921653e+00
  1.487957e+01    1.952282e+00
  1.489544e+01    1.978410e+00
  1.491132e+01    1.983119e+00
  1.492720e+01    1.980304e+00
  1.494307e+01    1.974451e+00
  1.495895e+01    2.043342e+00
  1.497482e+01    2.097363e+00
  1.499070e+01    2.106781e+00
  1.500657e+01    2.128302e+00
  1.502245e+01    2.192769e+00
  1.503832e+01    2.273723e+00
  1.505420e+01    2.323009e+00
  1.507008e+01    2.424759e+00
  1.508595e+01    2.573544e+00
  1.510183e+01    2.797586e+00
  1.511770e+01    2.980986e+00
  1.513358e+01    3.259533e+00
  1.514945e+01    3.706484e+00
  1.516533e+01    4.058532e+00
  1.518120e+01    4.520431e+00
  1.519708e+01    4.916790e+00
  1.521296e+01    5.270727e+00
  1.522883e+01    5.648188e+00
  1.524471e+01    5.993400e+00
  1.526058e+01    6.196537e+00
  1.527646e+01    6.279474e+00
  1.529233e+01    6.362325e+00
  1.530821e+01    6.161744e+00
  1.532409e+01    5.850661e+00
  1.533996e+01    5.302555e+00
  1.535584e+01    4.627761e+00
  1.537171e+01    4.086626e+00
  1.538759e+01    3.648591e+00
  1.540346e+01    3.223763e+00
  1.541934e+01    2.948348e+00
  1.543521e+01    2.711969e+00
  1.545109e+01    2.544372e+00
  1.546697e+01    2.376207e+00
  1.548284e+01    2.331533e+00
  1.549872e+01    2.234208e+00
  1.551459e+01    2.125228e+00
  1.553047e+01    2.084481e+00
  1.554634e+01    2.054235e+00
  1.556222e+01    1.974365e+00
  1.557809e+01    1.934775e+00
  1.559397e+01    1.913139e+00
  1.560985e+01    1.875197e+00
  1.562572e+01    1.807244e+00
  1.564160e+01    1.825370e+00
  1.565747e+01    1.796306e+00
  1.567335e+01    1.779233e+00
  1.568922e+01    1.783929e+00
  1.570510e+01    1.761070e+00
  1.572097e+01    1.739885e+00
  1.573685e+01    1.730741e+00
  1.575273e+01    1.732857e+00
  1.576860e+01    1.727974e+00
  1.578448e+01    1.721439e+00
  1.580035e+01    1.691533e+00
  1.581623e+01    1.691240e+00
  1.583210e+01    1.647790e+00
  1.584798e+01    1.671057e+00
  1.586385e+01    1.699433e+00
  1.587973e+01    1.644715e+00
  1.589561e+01    1.622797e+00
  1.591148e+01    1.647770e+00
  1.592736e+01    1.656773e+00
  1.594323e+01    1.655632e+00
  1.595911e+01    1.620439e+00
  1.597498e+01    1.593709e+00
  1.599086e+01    1.615261e+00
  1.600673e+01    1.625057e+00
  1.602261e+01    1.608361e+00
  1.603849e+01    1.637437e+00
  1.605436e+01    1.615573e+00
  1.607024e+01    1.601632e+00
  1.608611e+01    1.615047e+00
  1.610199e+01    1.596703e+00
  1.611786e+01    1.590312e+00
  1.613374e+01    1.595186e+00
  1.614961e+01    1.590620e+00
  1.616549e+01    1.586194e+00
  1.618137e+01    1.578588e+00
  1.619724e+01    1.586536e+00
  1.621312e+01    1.613593e+00
  1.622899e+01    1.578113e+00
  1.624487e+01    1.534558e+00
  1.626074e+01    1.517815e+00
  1.627662e+01    1.559590e+00
  1.629250e+01    1.567580e+00
  1.630837e+01    1.526428e+00
  1.632425e+01    1.550402e+00
  1.634012e+01    1.525187e+00
  1.635600e+01    1.533789e+00
  1.637187e+01    1.568941e+00
  1.638775e+01    1.573072e+00
  1.640362e+01    1.559333e+00
  1.641950e+01    1.525983e+00
  1.643538e+01    1.496169e+00
  1.645125e+01    1.502503e+00
  1.646713e+01    1.509202e+00
  1.648300e+01    1.521954e+00
  1.649888e+01    1.556379e+00
  1.651475e+01    1.526655e+00
  1.653063e+01    1.512382e+00
  1.654650e+01    1.494652e+00
  1.656238e+01    1.497613e+00
  1.657826e+01    1.501589e+00
  1.659413e+01    1.520130e+00
  1.661001e+01    1.527455e+00
  1.662588e+01    1.481434e+00
  1.664176e+01    1.492764e+00
  1.665763e+01    1.506060e+00
  1.667351e+01    1.452122e+00
  1.668938e+01    1.453694e+00
  1.670526e+01    1.448975e+00
  1.672114e+01    1.446445e+00
  1.673701e+01    1.480089e+00
  1.675289e+01    1.451524e+00
  1.676876e+01    1.464471e+00
  1.678464e+01    1.469618e+00
  1.680051e+01    1.470076e+00
  1.681639e+01    1.456942e+00
  1.683226e+01    1.473158e+00
  1.684814e+01    1.480917e+00
  1.686402e+01    1.465108e+00
  1.687989e+01    1.459235e+00
  1.689577e+01    1.481534e+00
  1.691164e+01    1.476335e+00
  1.692752e+01    1.467371e+00
  1.694339e+01    1.451713e+00
  1.695927e+01    1.424466e+00
  1.697514e+01    1.413585e+00
  1.699102e+01    1.454664e+00
  1.700690e+01    1.450698e+00
  1.702277e+01    1.425285e+00
  1.703865e+01    1.439202e+00
  1.705452e+01    1.427673e+00
  1.707040e+01    1.422454e+00
  1.708627e+01    1.430032e+00
  1.710215e+01    1.434720e+00
  1.711802e+01    1.400810e+00
  1.713390e+01    1.436298e+00
  1.714978e+01    1.440849e+00
  1.716565e+01    1.407837e+00
  1.718153e+01    1.369331e+00
  1.719740e+01    1.390985e+00
  1.721328e+01    1.376440e+00
  1.722915e+01    1.361409e+00
  1.724503e+01    1.400603e+00
  1.726091e+01    1.404961e+00
  1.727678e+01    1.410270e+00
  1.729266e+01    1.385835e+00
  1.730853e+01    1.381980e+00
  1.732441e+01    1.400152e+00
  1.734028e+01    1.379607e+00
  1.735616e+01    1.386194e+00
  1.737203e+01    1.398131e+00
  1.738791e+01    1.386529e+00
  1.740379e+01    1.353568e+00
  1.741966e+01    1.376067e+00
  1.743554e+01    1.366645e+00
  1.745141e+01    1.366418e+00
  1.746729e+01    1.364835e+00
  1.748316e+01    1.353866e+00
  1.749904e+01    1.354881e+00
  1.751491e+01    1.382801e+00
  1.753079e+01    1.390667e+00
  1.754667e+01    1.344917e+00
  1.756254e+01    1.352875e+00
  1.757842e+01    1.371222e+00
  1.759429e+01    1.369381e+00
  1.761017e+01    1.355878e+00
  1.762604e+01    1.355668e+00
  1.764192e+01    1.349312e+00
  1.765779e+01    1.331947e+00
  1.767367e+01    1.339647e+00
  1.768955e+01    1.355245e+00
  1.770542e+01    1.315900e+00
  1.772130e+01    1.333398e+00
  1.773717e+01    1.333037e+00
  1.775305e+01    1.347784e+00
  1.776892e+01    1.346938e+00
  1.778480e+01    1.331553e+00
  1.780067e+01    1.360410e+00
  1.781655e+01    1.346414e+00
  1.783243e+01    1.314214e+00
  1.784830e+01    1.325457e+00
  1.786418e+01    1.329999e+00
  1.788005e+01    1.342510e+00
  1.789593e+01    1.293177e+00
  1.791180e+01    1.295803e+00
  1.792768e+01    1.283236e+00
  1.794355e+01    1.300555e+00
  1.795943e+01    1.312396e+00
  1.797531e+01    1.337503e+00
  1.799118e+01    1.325195e+00
  1.800706e+01    1.296314e+00
  1.802293e+01    1.283019e+00
  1.803881e+01    1.313837e+00
  1.805468e+01    1.309585e+00
  1.807056e+01    1.311609e+00
  1.808643e+01    1.280288e+00
  1.810231e+01    1.318213e+00
  1.811819e+01    1.302220e+00
  1.813406e+01    1.287513e+00
  1.814994e+01    1.286362e+00
  1.816581e+01    1.267625e+00
  1.818169e+01    1.250213e+00
  1.819756e+01    1.264335e+00
  1.821344e+01    1.254570e+00
  1.822932e+01    1.276691e+00
  1.824519e+01    1.286415e+00
  1.826107e+01    1.263237e+00
  1.827694e+01    1.281168e+00
  1.829282e+01    1.276042e+00
  1.830869e+01    1.296596e+00
  1.832457e+01    1.287589e+00
  1.834044e+01    1.275132e+00
  1.835632e+01    1.263888e+00
  1.837220e+01    1.264861e+00
  1.838807e+01    1.272307e+00
  1.840395e+01    1.267347e+00
  1.841982e+01    1.267101e+00
  1.843570e+01    1.276701e+00
  1.845157e+01    1.249621e+00
  1.846745e+01    1.259375e+00
  1.848332e+01    1.217218e+00
  1.849920e+01    1.265549e+00
  1.851508e+01    1.283021e+00
  1.853095e+01    1.236399e+00
  1.854683e+01    1.236140e+00
  1.856270e+01    1.263415e+00
  1.857858e+01    1.245432e+00
  1.859445e+01    1.255245e+00
  1.861033e+01    1.247731e+00
  1.862620e+01    1.213877e+00
  1.864208e+01    1.241168e+00
  1.865796e+01    1.245132e+00
  1.867383e+01    1.219844e+00
  1.868971e+01    1.246518e+00
  1.870558e+01    1.234838e+00
  1.872146e+01    1.231708e+00
  1.873733e+01    1.251565e+00
  1.875321e+01    1.239026e+00
  1.876908e+01    1.225909e+00
  1.878496e+01    1.245910e+00
  1.880084e+01    1.242951e+00
  1.881671e+01    1.218653e+00
  1.883259e+01    1.194624e+00
  1.884846e+01    1.200305e+00
  1.886434e+01    1.205729e+00
  1.888021e+01    1.216803e+00
  1.889609e+01    1.220379e+00
  1.891196e+01    1.227911e+00
  1.892784e+01    1.229572e+00
  1.894372e+01    1.182536e+00
  1.895959e+01    1.182171e+00
  1.897547e+01    1.205169e+00
  1.899134e+01    1.210531e+00
  1.900722e+01    1.200962e+00
  1.902309e+01    1.222155e+00
  1.903897e+01    1.217247e+00
  1.905484e+01    1.218811e+00
  1.907072e+01    1.183032e+00
  1.908660e+01    1.192927e+00
  1.910247e+01    1.185985e+00
  1.911835e+01    1.192247e+00
  1.913422e+01    1.203038e+00
  1.915010e+01    1.208632e+00
  1.916597e+01    1.195617e+00
  1.918185e+01    1.169178e+00
  1.919773e+01    1.168655e+00
  1.921360e+01    1.192250e+00
  1.922948e+01    1.207174e+00
  1.924535e+01    1.187907e+00
  1.926123e+01    1.174787e+00
  1.927710e+01    1.172998e+00
  1.929298e+01    1.150848e+00
  1.930885e+01    1.136049e+00
  1.932473e+01    1.169047e+00
  1.934061e+01    1.164472e+00
  1.935648e+01    1.156061e+00
  1.937236e+01    1.208974e+00
  1.938823e+01    1.201557e+00
  1.940411e+01    1.193607e+00
  1.941998e+01    1.169315e+00
  1.943586e+01    1.175899e+00
  1.945173e+01    1.177473e+00
  1.946761e+01    1.155456e+00
  1.948349e+01    1.166572e+00
  1.949936e+01    1.145267e+00
  1.951524e+01    1.146033e+00
  1.953111e+01    1.153026e+00
  1.954699e+01    1.167378e+00
  1.956286e+01    1.173271e+00
  1.957874e+01    1.177084e+00
  1.959461e+01    1.169808e+00
  1.961049e+01    1.177465e+00
  1.962637e+01    1.169683e+00
  1.964224e+01    1.173616e+00
  1.965812e+01    1.149669e+00
  1.967399e+01    1.163469e+00
  1.968987e+01    1.164462e+00
  1.970574e+01    1.149492e+00
  1.972162e+01    1.159639e+00
  1.973749e+01    1.148024e+00
  1.975337e+01    1.134725e+00
  1.976925e+01    1.154296e+00
  1.978512e+01    1.158401e+00
  1.980100e+01    1.170773e+00
  1.981687e+01    1.153393e+00
  1.983275e+01    1.146818e+00
  1.984862e+01    1.121321e+00
  1.986450e+01    1.132786e+00
  1.988037e+01    1.143920e+00
  1.989625e+01    1.150456e+00
  1.991213e+01    1.095615e+00
  1.992800e+01    1.128998e+00
  1.994388e+01    1.135722e+00
  1.995975e+01    1.131354e+00
  1.997563e+01    1.111457e+00
  1.999150e+01    1.103609e+00
  2.000738e+01    1.110387e+00
  2.002325e+01    1.110907e+00
  2.003913e+01    1.111832e+00
  2.005501e+01    1.130389e+00
  2.007088e+01    1.120039e+00
  2.008676e+01    1.097772e+00
  2.010263e+01    1.123225e+00
  2.011851e+01    1.117913e+00
  2.013438e+01    1.124227e+00
  2.015026e+01    1.111903e+00
  2.016614e+01    1.135163e+00
  2.018201e+01    1.138108e+00
  2.019789e+01    1.099171e+00
  2.021376e+01    1.113563e+00
  2.022964e+01    1.116528e+00
  2.024551e+01    1.111453e+00
  2.026139e+01    1.112954e+00
  2.027726e+01    1.097913e+00
  2.029314e+01    1.124617e+00
  2.030902e+01    1.129508e+00
  2.032489e+01    1.107738e+00
  2.034077e+01    1.106226e+00
  2.035664e+01    1.113277e+00
  2.037252e+01    1.103573e+00
  2.038839e+01    1.104968e+00
  2.040427e+01    1.112321e+00
  2.042014e+01    1.098685e+00
  2.043602e+01    1.080332e+00
  2.045190e+01    1.091156e+00
  2.046777e+01    1.070463e+00
  2.048365e+01    1.077726e+00
  2.049952e+01    1.078166e+00
  2.051540e+01    1.094529e+00
  2.053127e+01    1.097232e+00
  2.054715e+01    1.086846e+00
  2.056302e+01    1.067093e+00
  2.057890e+01    1.077398e+00
  2.059478e+01    1.099913e+00
  2.061065e+01    1.107432e+00
  2.062653e+01    1.078605e+00
  2.064240e+01    1.093105e+00
  2.065828e+01    1.093501e+00
  2.067415e+01    1.081096e+00
  2.069003e+01    1.082120e+00
  2.070590e+01    1.088605e+00
  2.072178e+01    1.072536e+00
  2.073766e+01    1.062629e+00
  2.075353e+01    1.067924e+00
  2.076941e+01    1.077331e+00
  2.078528e+01    1.079139e+00
  2.080116e+01    1.086077e+00
  2.081703e+01    1.095248e+00
  2.083291e+01    1.091586e+00
  2.084878e+01    1.081193e+00
  2.086466e+01    1.071518e+00
  2.088054e+01    1.073776e+00
  2.089641e+01    1.121777e+00
  2.091229e+01    1.111339e+00
  2.092816e+01    1.092941e+00
  2.094404e+01    1.089703e+00
  2.095991e+01    1.094611e+00
  2.097579e+01    1.092493e+00
  2.099166e+01    1.084774e+00
  2.100754e+01    1.071035e+00
  2.102342e+01    1.076053e+00
  2.103929e+01    1.103885e+00
  2.105517e+01    1.087164e+00
  2.107104e+01    1.085744e+00
  2.108692e+01    1.059330e+00
  2.110279e+01    1.089963e+00
  2.111867e+01    1.099401e+00
  2.113455e+01    1.102026e+00
  2.115042e+01    1.105187e+00
  2.116630e+01    1.099663e+00
  2.118217e+01    1.091245e+00
  2.119805e+01    1.127652e+00
  2.121392e+01    1.135227e+00
  2.122980e+01    1.121244e+00
  2.124567e+01    1.112514e+00
  2.126155e+01    1.136640e+00
  2.127743e+01    1.147237e+00
  2.129330e+01    1.138842e+00
  2.130918e+01    1.166402e+00
  2.132505e+01    1.145906e+00
  2.134093e+01    1.129005e+00
  2.135680e+01    1.130543e+00
  2.137268e+01    1.151729e+00
  2.138855e+01    1.164803e+00
  2.140443e+01    1.184891e+00
  2.142031e+01    1.190126e+00
  2.143618e+01    1.178746e+00
  2.145206e+01    1.197934e+00
  2.146793e+01    1.229065e+00
  2.148381e+01    1.257371e+00
  2.149968e+01    1.286060e+00
  2.151556e+01    1.335407e+00
  2.153143e+01    1.359427e+00
  2.154731e+01    1.386332e+00
  2.156319e+01    1.420794e+00
  2.157906e+01    1.442014e+00
  2.159494e+01    1.503881e+00
  2.161081e+01    1.563950e+00
  2.162669e+01    1.650366e+00
  2.164256e+01    1.708143e+00
  2.165844e+01    1.857973e+00
  2.167431e+01    1.972794e+00
  2.169019e+01    2.182684e+00
  2.170607e+01    2.389097e+00
  2.172194e+01    2.644438e+00
  2.173782e+01    2.953020e+00
  2.175369e+01    3.302189e+00
  2.176957e+01    3.776256e+00
  2.178544e+01    4.380659e+00
  2.180132e+01    5.006725e+00
  2.181719e+01    5.796967e+00
  2.183307e+01    6.590315e+00
  2.184895e+01    7.417498e+00
  2.186482e+01    8.225774e+00
  2.188070e+01    9.097397e+00
  2.189657e+01    9.865792e+00
  2.191245e+01    1.044855e+01
  2.192832e+01    1.059016e+01
  2.194420e+01    1.033805e+01
  2.196007e+01    9.670182e+00
  2.197595e+01    8.573789e+00
  2.199183e+01    7.433656e+00
  2.200770e+01    6.331522e+00
  2.202358e+01    5.325548e+00
  2.203945e+01    4.514079e+00
  2.205533e+01    3.895424e+00
  2.207120e+01    3.388016e+00
  2.208708e+01    2.941929e+00
  2.210296e+01    2.618991e+00
  2.211883e+01    2.369009e+00
  2.213471e+01    2.169667e+00
  2.215058e+01    2.018980e+00
  2.216646e+01    1.863136e+00
  2.218233e+01    1.737171e+00
  2.219821e+01    1.654852e+00
  2.221408e+01    1.557906e+00
  2.222996e+01    1.494456e+00
  2.224584e+01    1.447626e+00
  2.226171e+01    1.390742e+00
  2.227759e+01    1.334559e+00
  2.229346e+01    1.288222e+00
  2.230934e+01    1.261681e+00
  2.232521e+01    1.232924e+00
  2.234109e+01    1.180318e+00
  2.235696e+01    1.169524e+00
  2.237284e+01    1.158715e+00
  2.238872e+01    1.123225e+00
  2.240459e+01    1.121656e+00
  2.242047e+01    1.116707e+00
  2.243634e+01    1.098125e+00
  2.245222e+01    1.094182e+00
  2.246809e+01    1.068336e+00
  2.248397e+01    1.057513e+00
  2.249984e+01    1.063269e+00
  2.251572e+01    1.058832e+00
  2.253160e+01    1.042382e+00
  2.254747e+01    1.011674e+00
  2.256335e+01    1.004918e+00
  2.257922e+01    1.000082e+00
  2.259510e+01    1.025306e+00
  2.261097e+01    1.032742e+00
  2.262685e+01    1.010593e+00
  2.264272e+01    9.932272e-01
  2.265860e+01    9.874105e-01
  2.267448e+01    9.675796e-01
  2.269035e+01    9.573089e-01
  2.270623e+01    9.685397e-01
  2.272210e+01    9.895973e-01
  2.273798e+01    9.893414e-01
  2.275385e+01    9.869401e-01
  2.276973e+01    9.535836e-01
  2.278560e+01    9.290591e-01
  2.280148e+01    9.441383e-01
  2.281736e+01    9.291384e-01
  2.283323e+01    9.382423e-01
  2.284911e+01    9.242796e-01
  2.286498e+01    9.342878e-01
  2.288086e+01    9.268781e-01
  2.289673e+01    9.117702e-01
  2.291261e+01    9.084746e-01
  2.292848e+01    9.278035e-01
  2.294436e+01    9.197738e-01
  2.296024e+01    9.112136e-01
  2.297611e+01    9.076657e-01
  2.299199e+01    8.922287e-01
  2.300786e+01    8.918547e-01
  2.302374e+01    9.058166e-01
  2.303961e+01    9.012030e-01
  2.305549e+01    9.093313e-01
  2.307137e+01    9.200181e-01
  2.308724e+01    9.066061e-01
  2.310312e+01    8.946794e-01
  2.311899e+01    9.084058e-01
  2.313487e+01    9.046341e-01
  2.315074e+01    8.841487e-01
  2.316662e+01    8.826482e-01
  2.318249e+01    8.821502e-01
  2.319837e+01    8.700507e-01
  2.321425e+01    8.588888e-01
  2.323012e+01    8.865834e-01
  2.324600e+01    8.826186e-01
  2.326187e+01    8.837901e-01
  2.327775e+01    8.916149e-01
  2.329362e+01    8.609130e-01
  2.330950e+01    8.820983e-01
  2.332537e+01    8.951332e-01
  2.334125e+01    8.640431e-01
  2.335713e+01    8.643616e-01
  2.337300e+01    8.916354e-01
  2.338888e+01    8.673921e-01
  2.340475e+01    8.565685e-01
  2.342063e+01    8.781818e-01
  2.343650e+01    8.717492e-01
  2.345238e+01    8.551108e-01
  2.346825e+01    8.681007e-01
  2.348413e+01    8.407615e-01
  2.350001e+01    8.589624e-01
  2.351588e+01    8.576097e-01
  2.353176e+01    8.449526e-01
  2.354763e+01    8.506392e-01
  2.356351e+01    8.519503e-01
  2.357938e+01    8.613318e-01
  2.359526e+01    8.555335e-01
  2.361113e+01    8.604773e-01
  2.362701e+01    8.443293e-01
  2.364289e+01    8.351717e-01
  2.365876e+01    8.325868e-01
  2.367464e+01    8.456218e-01
  2.369051e+01    8.494570e-01
  2.370639e+01    8.392439e-01
  2.372226e+01    8.324873e-01
  2.373814e+01    8.132676e-01
  2.375401e+01    8.113495e-01
  2.376989e+01    8.052615e-01
  2.378577e+01    8.219814e-01
  2.380164e+01    8.195803e-01
  2.381752e+01    8.081303e-01
  2.383339e+01    8.252499e-01
  2.384927e+01    8.306100e-01
  2.386514e+01    8.231447e-01
  2.388102e+01    8.211823e-01
  2.389689e+01    8.142730e-01
  2.391277e+01    7.894847e-01
  2.392865e+01    8.120733e-01
  2.394452e+01    8.148916e-01
  2.396040e+01    7.972952e-01
  2.397627e+01    7.930587e-01
  2.399215e+01    7.771149e-01
  2.400802e+01    7.935259e-01
  2.402390e+01    7.887273e-01
  2.403978e+01    7.882342e-01
  2.405565e+01    7.944633e-01
  2.407153e+01    7.920189e-01
  2.408740e+01    7.846168e-01
  2.410328e+01    8.010362e-01
  2.411915e+01    7.939451e-01
  2.413503e+01    7.768031e-01
  2.415090e+01    7.752834e-01
  2.416678e+01    7.990494e-01
  2.418266e+01    8.083885e-01
  2.419853e+01    7.975101e-01
  2.421441e+01    7.981315e-01
  2.423028e+01    7.909735e-01
  2.424616e+01    7.822948e-01
  2.426203e+01    7.871361e-01
  2.427791e+01    7.877296e-01
  2.429378e+01    7.999977e-01
  2.430966e+01    7.996593e-01
  2.432554e+01    7.880931e-01
  2.434141e+01    8.016537e-01
  2.435729e+01    7.961242e-01
  2.437316e+01    8.103458e-01
  2.438904e+01    7.901554e-01
  2.440491e+01    7.889387e-01
  2.442079e+01    7.948694e-01
  2.443666e+01    7.797257e-01
  2.445254e+01    7.975662e-01
  2.446842e+01    8.012824e-01
  2.448429e+01    8.020049e-01
  2.450017e+01    7.942564e-01
  2.451604e+01    8.013645e-01
  2.453192e+01    7.899554e-01
  2.454779e+01    7.942944e-01
  2.456367e+01    8.115287e-01
  2.457954e+01    7.975301e-01
  2.459542e+01    7.974182e-01
  2.461130e+01    8.001766e-01
  2.462717e+01    8.090721e-01
  2.464305e+01    7.859687e-01
  2.465892e+01    7.869459e-01
  2.467480e+01    8.024927e-01
  2.469067e+01    8.193453e-01
  2.470655e+01    8.064285e-01
  2.472242e+01    7.927395e-01
  2.473830e+01    7.950209e-01
  2.475418e+01    8.173108e-01
  2.477005e+01    8.055451e-01
  2.478593e+01    8.025268e-01
  2.480180e+01    7.926667e-01
  2.481768e+01    7.898921e-01
  2.483355e+01    7.908301e-01
  2.484943e+01    7.838869e-01
  2.486530e+01    8.253750e-01
  2.488118e+01    8.060957e-01
  2.489706e+01    8.132405e-01
  2.491293e+01    8.067506e-01
  2.492881e+01    7.903309e-01
  2.494468e+01    7.804943e-01
  2.496056e+01    7.895244e-01
  2.497643e+01    8.004214e-01
  2.499231e+01    8.227618e-01
  2.500819e+01    8.218263e-01
  2.502406e+01    8.112044e-01
  2.503994e+01    8.190134e-01
  2.505581e+01    7.986741e-01
  2.507169e+01    8.043287e-01
  2.508756e+01    8.394837e-01
  2.510344e+01    8.372561e-01
  2.511931e+01    8.138449e-01
  2.513519e+01    8.205105e-01
  2.515107e+01    8.203772e-01
  2.516694e+01    8.347167e-01
  2.518282e+01    8.367637e-01
  2.519869e+01    8.378544e-01
  2.521457e+01    8.410367e-01
  2.523044e+01    8.521701e-01
  2.524632e+01    8.505158e-01
  2.526219e+01    8.571211e-01
  2.527807e+01    8.542634e-01
  2.529395e+01    8.706599e-01
  2.530982e+01    8.872947e-01
  2.532570e+01    9.009586e-01
  2.534157e+01    8.868755e-01
  2.535745e+01    8.877972e-01
  2.537332e+01    9.040943e-01
  2.538920e+01    8.935022e-01
  2.540507e+01    8.986930e-01
  2.542095e+01    9.071805e-01
  2.543683e+01    9.311942e-01
  2.545270e+01    9.505854e-01
  2.546858e+01    9.436674e-01
  2.548445e+01    9.506321e-01
  2.550033e+01    9.561967e-01
  2.551620e+01    9.919719e-01
  2.553208e+01    1.006778e+00
  2.554795e+01    1.002400e+00
  2.556383e+01    1.038596e+00
  2.557971e+01    1.081748e+00
  2.559558e+01    1.084317e+00
  2.561146e+01    1.102461e+00
  2.562733e+01    1.150643e+00
  2.564321e+01    1.198284e+00
  2.565908e+01    1.251979e+00
  2.567496e+01    1.297479e+00
  2.569083e+01    1.351115e+00
  2.570671e+01    1.411022e+00
  2.572259e+01    1.485886e+00
  2.573846e+01    1.616873e+00
  2.575434e+01    1.736071e+00
  2.577021e+01    1.919930e+00
  2.578609e+01    2.072291e+00
  2.580196e+01    2.316325e+00
  2.581784e+01    2.616839e+00
  2.583371e+01    2.980019e+00
  2.584959e+01    3.342749e+00
  2.586547e+01    3.860459e+00
  2.588134e+01    4.417457e+00
  2.589722e+01    5.076142e+00
  2.591309e+01    5.832933e+00
  2.592897e+01    6.574548e+00
  2.594484e+01    7.327071e+00
  2.596072e+01    7.996738e+00
  2.597660e+01    8.544607e+00
  2.599247e+01    8.739617e+00
  2.600835e+01    8.685405e+00
  2.602422e+01    8.209719e+00
  2.604010e+01    7.563821e+00
  2.605597e+01    6.723482e+00
  2.607185e+01    5.786290e+00
  2.608772e+01    4.948220e+00
  2.610360e+01    4.244095e+00
  2.611948e+01    3.590542e+00
  2.613535e+01    3.106789e+00
  2.615123e+01    2.727774e+00
  2.616710e+01    2.424064e+00
  2.618298e+01    2.177629e+00
  2.619885e+01    2.008491e+00
  2.621473e+01    1.833309e+00
  2.623060e+01    1.696932e+00
  2.624648e+01    1.568580e+00
  2.626236e+01    1.492093e+00
  2.627823e+01    1.385039e+00
  2.629411e+01    1.310449e+00
  2.630998e+01    1.268647e+00
  2.632586e+01    1.220993e+00
  2.634173e+01    1.188688e+00
  2.635761e+01    1.148519e+00
  2.637348e+01    1.107047e+00
  2.638936e+01    1.059989e+00
  2.640524e+01    1.051764e+00
  2.642111e+01    1.058087e+00
  2.643699e+01    1.037811e+00
  2.645286e+01    1.012162e+00
  2.646874e+01    1.002439e+00
  2.648461e+01    9.918453e-01
  2.650049e+01    9.805521e-01
  2.651636e+01    9.707849e-01
  2.653224e+01    9.593079e-01
  2.654812e+01    9.778383e-01
  2.656399e+01    9.478067e-01
  2.657987e+01    9.379857e-01
  2.659574e+01    9.354414e-01
  2.661162e+01    9.377379e-01
  2.662749e+01    9.374574e-01
  2.664337e+01    9.276110e-01
  2.665924e+01    9.315886e-01
  2.667512e+01    9.032295e-01
  2.669100e+01    9.071814e-01
  2.670687e+01    9.220936e-01
  2.672275e+01    9.416147e-01
  2.673862e+01    9.402136e-01
  2.675450e+01    9.293149e-01
  2.677037e+01    8.965490e-01
  2.678625e+01    9.176630e-01
  2.680212e+01    9.203752e-01
  2.681800e+01    9.127515e-01
  2.683388e+01    8.935466e-01
  2.684975e+01    9.262906e-01
  2.686563e+01    9.503883e-01
  2.688150e+01    9.262244e-01
  2.689738e+01    9.261287e-01
  2.691325e+01    9.200568e-01
  2.692913e+01    9.404854e-01
  2.694501e+01    9.794065e-01
  2.696088e+01    9.820105e-01
  2.697676e+01    9.808422e-01
  2.699263e+01    9.974098e-01
  2.700851e+01    1.010053e+00
  2.702438e+01    1.017226e+00
  2.704026e+01    1.050600e+00
  2.705613e+01    1.112059e+00
  2.707201e+01    1.176798e+00
  2.708789e+01    1.200662e+00
  2.710376e+01    1.271927e+00
  2.711964e+01    1.358524e+00
  2.713551e+01    1.462495e+00
  2.715139e+01    1.563402e+00
  2.716726e+01    1.756098e+00
  2.718314e+01    1.918271e+00
  2.719901e+01    2.122327e+00
  2.721489e+01    2.279061e+00
  2.723077e+01    2.396119e+00
  2.724664e+01    2.511341e+00
  2.726252e+01    2.499862e+00
  2.727839e+01    2.432684e+00
  2.729427e+01    2.309746e+00
  2.731014e+01    2.162508e+00
  2.732602e+01    1.976910e+00
  2.734189e+01    1.771049e+00
  2.735777e+01    1.595970e+00
  2.737365e+01    1.457798e+00
  2.738952e+01    1.381467e+00
  2.740540e+01    1.266330e+00
  2.742127e+01    1.188133e+00
  2.743715e+01    1.162747e+00
  2.745302e+01    1.104941e+00
  2.746890e+01    1.064066e+00
  2.748477e+01    1.028062e+00
  2.750065e+01    1.014457e+00
  2.751653e+01    9.939781e-01
  2.753240e+01    9.648381e-01
  2.754828e+01    9.401064e-01
  2.756415e+01    9.039595e-01
  2.758003e+01    8.848752e-01
  2.759590e+01    8.935556e-01
  2.761178e+01    8.848420e-01
  2.762765e+01    8.953634e-01
  2.764353e+01    8.861858e-01
  2.765941e+01    8.697853e-01
  2.767528e+01    8.733080e-01
  2.769116e+01    8.449731e-01
  2.770703e+01    8.458642e-01
  2.772291e+01    8.456176e-01
  2.773878e+01    8.317329e-01
  2.775466e+01    8.181067e-01
  2.777054e+01    8.427877e-01
  2.778641e+01    8.113491e-01
  2.780229e+01    8.155457e-01
  2.781816e+01    8.127035e-01
  2.783404e+01    8.162758e-01
  2.784991e+01    8.135360e-01
  2.786579e+01    8.021448e-01
  2.788166e+01    8.142155e-01
  2.789754e+01    8.225844e-01
  2.791342e+01    8.225393e-01
  2.792929e+01    8.133591e-01
  2.794517e+01    8.165798e-01
  2.796104e+01    8.171301e-01
  2.797692e+01    8.094351e-01
  2.799279e+01    8.071111e-01
  2.800867e+01    8.096137e-01
  2.802454e+01    8.175540e-01
  2.804042e+01    7.878622e-01
  2.805630e+01    7.943826e-01
  2.807217e+01    8.041967e-01
  2.808805e+01    7.837722e-01
  2.810392e+01    7.918168e-01
  2.811980e+01    7.775028e-01
  2.813567e+01    7.819681e-01
  2.815155e+01    7.860990e-01
  2.816742e+01    7.723699e-01
  2.818330e+01    7.819759e-01
  2.819918e+01    7.829621e-01
  2.821505e+01    7.828183e-01
  2.823093e+01    7.989792e-01
  2.824680e+01    8.052433e-01
  2.826268e+01    7.783515e-01
  2.827855e+01    7.774174e-01
  2.829443e+01    7.840224e-01
  2.831030e+01    7.792222e-01
  2.832618e+01    7.602168e-01
  2.834206e+01    7.562960e-01
  2.835793e+01    7.672499e-01
  2.837381e+01    7.681144e-01
  2.838968e+01    7.608405e-01
  2.840556e+01    7.582515e-01
  2.842143e+01    7.591001e-01
  2.843731e+01    7.645267e-01
  2.845318e+01    7.638690e-01
  2.846906e+01    7.629948e-01
  2.848494e+01    7.811711e-01
  2.850081e+01    7.720898e-01
  2.851669e+01    7.839430e-01
  2.853256e+01    7.746520e-01
  2.854844e+01    7.974599e-01
  2.856431e+01    7.824365e-01
  2.858019e+01    7.745173e-01
  2.859606e+01    7.734419e-01
  2.861194e+01    7.806662e-01
  2.862782e+01    7.583466e-01
  2.864369e+01    7.543818e-01
  2.865957e+01    7.547246e-01
  2.867544e+01    7.471098e-01
  2.869132e+01    7.433783e-01
  2.870719e+01    7.534723e-01
  2.872307e+01    7.482353e-01
  2.873895e+01    7.459908e-01
  2.875482e+01    7.420515e-01
  2.877070e+01    7.670756e-01
  2.878657e+01    7.632267e-01
  2.880245e+01    7.732417e-01
  2.881832e+01    7.677742e-01
  2.883420e+01    7.389428e-01
  2.885007e+01    7.426749e-01
  2.886595e+01    7.417641e-01
  2.888183e+01    7.431113e-01
  2.889770e+01    7.593859e-01
  2.891358e+01    7.573876e-01
  2.892945e+01    7.380795e-01
  2.894533e+01    7.392300e-01
  2.896120e+01    7.397220e-01
  2.897708e+01    7.507665e-01
  2.899295e+01    7.339998e-01
  2.900883e+01    7.270963e-01
  2.902471e+01    7.643349e-01
  2.904058e+01    7.549762e-01
  2.905646e+01    7.704560e-01
  2.907233e+01    7.536730e-01
  2.908821e+01    7.404566e-01
  2.910408e+01    7.584291e-01
  2.911996e+01    7.626760e-01
  2.913583e+01    7.598619e-01
  2.915171e+01    7.428408e-01
  2.916759e+01    7.298026e-01
  2.918346e+01    7.401952e-01
  2.919934e+01    7.512304e-01
  2.921521e+01    7.521762e-01
  2.923109e+01    7.527218e-01
  2.924696e+01    7.505223e-01
  2.926284e+01    7.265351e-01
  2.927871e+01    7.280306e-01
  2.929459e+01    7.365986e-01
  2.931047e+01    7.561896e-01
  2.932634e+01    7.227561e-01
  2.934222e+01    7.423889e-01
  2.935809e+01    7.487043e-01
  2.937397e+01    7.458727e-01
  2.938984e+01    7.397198e-01
  2.940572e+01    7.344567e-01
  2.942159e+01    7.399918e-01
  2.943747e+01    7.333549e-01
  2.945335e+01    7.198542e-01
  2.946922e+01    7.342018e-01
  2.948510e+01    7.103155e-01
  2.950097e+01    7.139291e-01
  2.951685e+01    7.340407e-01
  2.953272e+01    7.199528e-01
  2.954860e+01    6.985919e-01
  2.956447e+01    7.138159e-01
  2.958035e+01    7.369538e-01
  2.959623e+01    7.222187e-01
  2.961210e+01    7.316626e-01
  2.962798e+01    7.313147e-01
  2.964385e+01    7.234983e-01
  2.965973e+01    7.214013e-01
  2.967560e+01    7.196406e-01
  2.969148e+01    7.116658e-01
  2.970736e+01    7.235656e-01
  2.972323e+01    7.120244e-01
  2.973911e+01    7.158958e-01
  2.975498e+01    7.327284e-01
  2.977086e+01    7.321660e-01
  2.978673e+01    7.224626e-01
  2.980261e+01    7.273847e-01
  2.981848e+01    7.416521e-01
  2.983436e+01    7.249337e-01
  2.985024e+01    7.123139e-01
  2.986611e+01    7.228950e-01
  2.988199e+01    7.073920e-01
  2.989786e+01    7.065010e-01
  2.991374e+01    7.142280e-01
  2.992961e+01    7.310405e-01
  2.994549e+01    7.385092e-01
  2.996136e+01    7.422873e-01
  2.997724e+01    7.306236e-01
  2.999312e+01    7.473252e-01
  3.000899e+01    7.453543e-01
  3.002487e+01    7.348173e-01
  3.004074e+01    7.366215e-01
  3.005662e+01    7.301794e-01
  3.007249e+01    7.649436e-01
  3.008837e+01    7.587793e-01
  3.010424e+01    7.575861e-01
  3.012012e+01    7.588394e-01
  3.013600e+01    7.370840e-01
  3.015187e+01    7.155320e-01
  3.016775e+01    7.298155e-01
  3.018362e+01    7.270497e-01
  3.019950e+01    7.060934e-01
  3.021537e+01    7.001558e-01
  3.023125e+01    7.011730e-01
  3.024712e+01    7.038154e-01
  3.026300e+01    7.239317e-01
  3.027888e+01    7.145424e-01
  3.029475e+01    6.945636e-01
  3.031063e+01    7.218001e-01
  3.032650e+01    7.208412e-01
  3.034238e+01    7.347046e-01
  3.035825e+01    7.285743e-01
  3.037413e+01    7.269507e-01
  3.039000e+01    7.239887e-01
  3.040588e+01    7.189974e-01
  3.042176e+01    7.339031e-01
  3.043763e+01    7.227178e-01
  3.045351e+01    7.242171e-01
  3.046938e+01    7.264988e-01
  3.048526e+01    7.176781e-01
  3.050113e+01    7.232534e-01
  3.051701e+01    7.202609e-01
  3.053288e+01    7.283862e-01
  3.054876e+01    7.134584e-01
  3.056464e+01    7.071826e-01
  3.058051e+01    7.005336e-01
  3.059639e+01    7.319282e-01
  3.061226e+01    7.101948e-01
  3.062814e+01    7.140481e-01
  3.064401e+01    6.966313e-01
  3.065989e+01    7.035156e-01
  3.067577e+01    7.282933e-01
  3.069164e+01    7.149898e-01
  3.070752e+01    7.093707e-01
  3.072339e+01    7.467390e-01
  3.073927e+01    7.293442e-01
  3.075514e+01    7.180601e-01
  3.077102e+01    6.998619e-01
  3.078689e+01    7.049302e-01
  3.080277e+01    7.280490e-01
  3.081865e+01    7.424501e-01
  3.083452e+01    7.332337e-01
  3.085040e+01    7.357821e-01
  3.086627e+01    7.407129e-01
  3.088215e+01    7.330438e-01
  3.089802e+01    7.120312e-01
  3.091390e+01    7.372959e-01
  3.092977e+01    7.295319e-01
  3.094565e+01    7.070931e-01
  3.096153e+01    7.278628e-01
  3.097740e+01    7.279384e-01
  3.099328e+01    7.048014e-01
  3.100915e+01    7.507643e-01
  3.102503e+01    7.487315e-01
  3.104090e+01    7.225819e-01
  3.105678e+01    7.068806e-01
  3.107265e+01    7.093936e-01
  3.108853e+01    7.002133e-01
  3.110441e+01    7.095935e-01
  3.112028e+01    7.498247e-01
  3.113616e+01    7.506307e-01
  3.115203e+01    7.219523e-01
  3.116791e+01    7.298272e-01
  3.118378e+01    7.310614e-01
  3.119966e+01    7.173492e-01
  3.121553e+01    7.463105e-01
  3.123141e+01    7.395739e-01
  3.124729e+01    7.536396e-01
  3.126316e+01    7.487283e-01
  3.127904e+01    7.153846e-01
  3.129491e+01    7.284656e-01
  3.131079e+01    7.393346e-01
  3.132666e+01    7.318281e-01
  3.134254e+01    7.460546e-01
  3.135841e+01    7.545834e-01
  3.137429e+01    7.412205e-01
  3.139017e+01    7.598496e-01
  3.140604e+01    7.473415e-01
  3.142192e+01    7.478787e-01
  3.143779e+01    7.422511e-01
  3.145367e+01    7.673551e-01
  3.146954e+01    7.819492e-01
  3.148542e+01    7.700149e-01
  3.150129e+01    7.750980e-01
  3.151717e+01    7.780021e-01
  3.153305e+01    8.049823e-01
  3.154892e+01    7.809195e-01
  3.156480e+01    8.078326e-01
  3.158067e+01    8.160114e-01
  3.159655e+01    8.185801e-01
  3.161242e+01    8.179306e-01
  3.162830e+01    8.320605e-01
  3.164418e+01    8.294026e-01
  3.166005e+01    8.829247e-01
  3.167593e+01    8.940958e-01
  3.169180e+01    8.962838e-01
  3.170768e+01    9.372578e-01
  3.172355e+01    9.533749e-01
  3.173943e+01    1.001320e+00
  3.175530e+01    1.038235e+00
  3.177118e+01    1.099284e+00
  3.178706e+01    1.189776e+00
  3.180293e+01    1.257641e+00
  3.181881e+01    1.343422e+00
  3.183468e+01    1.462669e+00
  3.185056e+01    1.620042e+00
  3.186643e+01    1.776007e+00
  3.188231e+01    1.947644e+00
  3.189818e+01    2.129359e+00
  3.191406e+01    2.288046e+00
  3.192994e+01    2.392742e+00
  3.194581e+01    2.445520e+00
  3.196169e+01    2.481127e+00
  3.197756e+01    2.419219e+00
  3.199344e+01    2.274860e+00
  3.200931e+01    2.094646e+00
  3.202519e+01    1.913001e+00
  3.204106e+01    1.711259e+00
  3.205694e+01    1.568205e+00
  3.207282e+01    1.377150e+00
  3.208869e+01    1.256489e+00
  3.210457e+01    1.172653e+00
  3.212044e+01    1.122032e+00
  3.213632e+01    1.064945e+00
  3.215219e+01    1.001914e+00
  3.216807e+01    9.687099e-01
  3.218394e+01    9.288313e-01
  3.219982e+01    9.082093e-01
  3.221570e+01    8.663778e-01
  3.223157e+01    8.518887e-01
  3.224745e+01    8.289323e-01
  3.226332e+01    8.204713e-01
  3.227920e+01    8.108495e-01
  3.229507e+01    8.150656e-01
  3.231095e+01    8.190237e-01
  3.232682e+01    7.988157e-01
  3.234270e+01    7.611159e-01
  3.235858e+01    7.777468e-01
  3.237445e+01    7.788403e-01
  3.239033e+01    7.627053e-01
  3.240620e+01    7.740489e-01
  3.242208e+01    7.488681e-01
  3.243795e+01    7.801627e-01
  3.245383e+01    7.462900e-01
  3.246970e+01    7.266071e-01
  3.248558e+01    7.421351e-01
  3.250146e+01    7.473697e-01
  3.251733e+01    7.495275e-01
  3.253321e+01    7.469180e-01
  3.254908e+01    7.266783e-01
