# == pyFAI calibration ==
# Distance Sample to Detector: 0.3999999939076516 m
# PONI: 9.750e-02, 1.135e-01 m
# Rotations: -0.000175 0.000000 -0.000000 rad
# 
# == Fit2d calibration ==
# Distance Sample-beamCenter: 400.000 mm
# Center: x=1514.000, y=1300.000 pix
# Tilt: 0.010 deg  TiltPlanRot: 0.010 deg
# 
# Detector Detector	 Spline= None	 PixelSize= 7.500e-05, 7.500e-05 m
#    Detector has a mask: False 
#    Detector has a dark current: False 
#    detector has a flat field: False 
# 
# Wavelength: 6.888e-11 m
# Mask applied: user provided
# Dark current applied: False
# Flat field applied: False
# Polarization factor: 0.99
# Normalization factor: 1.0
# --> /home/myspot/data/2024_07_Rosario/2024-07-27_001_Ru-CGO-ex_Pristine_Rt_000057_data_000001.dat
#       q_nm^-1             I 
  2.003187e-02    7.711873e-02
  3.590745e-02    6.421851e-02
  5.178302e-02    0.000000e+00
  6.765859e-02    5.020016e-02
  8.353417e-02    3.147850e-01
  9.940974e-02    7.926304e-01
  1.152853e-01    1.454895e+00
  1.311609e-01    1.396692e+00
  1.470365e-01    8.888176e-01
  1.629120e-01    2.988141e-01
  1.787876e-01    7.419528e-02
  1.946632e-01    3.200392e-02
  2.105388e-01    5.003254e-03
  2.264143e-01    4.439333e-03
  2.422899e-01    1.553512e-02
  2.581655e-01    3.712704e-03
  2.740411e-01    0.000000e+00
  2.899166e-01    0.000000e+00
  3.057922e-01    0.000000e+00
  3.216678e-01    0.000000e+00
  3.375433e-01    0.000000e+00
  3.534189e-01    0.000000e+00
  3.692945e-01    0.000000e+00
  3.851701e-01    0.000000e+00
  4.010456e-01    1.288542e-02
  4.169212e-01    1.290817e-02
  4.327968e-01    2.330014e-03
  4.486724e-01    4.785954e-03
  4.645479e-01    2.084605e-02
  4.804235e-01    1.155767e-02
  4.962991e-01    0.000000e+00
  5.121747e-01    0.000000e+00
  5.280502e-01    0.000000e+00
  5.439258e-01    0.000000e+00
  5.598014e-01    3.309387e-03
  5.756770e-01    7.921163e-03
  5.915525e-01    8.770457e-03
  6.074281e-01    5.546463e-05
  6.233037e-01    0.000000e+00
  6.391793e-01    0.000000e+00
  6.550548e-01    2.992483e-03
  6.709304e-01    5.703013e-03
  6.868060e-01    3.793276e-03
  7.026815e-01    6.443623e-03
  7.185571e-01    1.533968e-02
  7.344327e-01    1.727658e-02
  7.503083e-01    1.152211e-02
  7.661838e-01    7.111817e-03
  7.820594e-01    2.922924e-03
  7.979350e-01    4.876135e-03
  8.138106e-01    1.626640e-03
  8.296861e-01    0.000000e+00
  8.455617e-01    9.657198e-03
  8.614373e-01    1.692007e-02
  8.773129e-01    1.916892e-02
  8.931884e-01    2.004547e-02
  9.090640e-01    2.140129e-02
  9.249396e-01    3.164275e-02
  9.408152e-01    1.445852e-02
  9.566907e-01    1.027296e-02
  9.725663e-01    1.974000e-02
  9.884419e-01    2.902394e-02
  1.004317e+00    1.986558e-02
  1.020193e+00    2.044570e-02
  1.036069e+00    2.886375e-02
  1.051944e+00    3.737304e-02
  1.067820e+00    3.247555e-02
  1.083695e+00    1.600468e-02
  1.099571e+00    2.342897e-02
  1.115446e+00    3.446261e-02
  1.131322e+00    3.728853e-02
  1.147198e+00    2.888162e-02
  1.163073e+00    2.772941e-02
  1.178949e+00    3.874501e-02
  1.194824e+00    2.889006e-02
  1.210700e+00    4.157536e-02
  1.226575e+00    6.039274e-02
  1.242451e+00    5.689029e-02
  1.258327e+00    7.381363e-02
  1.274202e+00    7.736370e-02
  1.290078e+00    8.003266e-02
  1.305953e+00    8.353923e-02
  1.321829e+00    1.011665e-01
  1.337705e+00    8.205816e-02
  1.353580e+00    8.829772e-02
  1.369456e+00    8.392496e-02
  1.385331e+00    8.021147e-02
  1.401207e+00    8.607016e-02
  1.417082e+00    1.044902e-01
  1.432958e+00    1.171002e-01
  1.448834e+00    1.191076e-01
  1.464709e+00    1.210816e-01
  1.480585e+00    7.554232e-02
  1.496460e+00    7.722737e-02
  1.512336e+00    1.049273e-01
  1.528211e+00    1.036326e-01
  1.544087e+00    1.131197e-01
  1.559963e+00    1.202421e-01
  1.575838e+00    1.259099e-01
  1.591714e+00    1.052651e-01
  1.607589e+00    8.271103e-02
  1.623465e+00    1.015608e-01
  1.639340e+00    9.587739e-02
  1.655216e+00    8.611314e-02
  1.671092e+00    9.398227e-02
  1.686967e+00    1.254891e-01
  1.702843e+00    9.712746e-02
  1.718718e+00    8.114513e-02
  1.734594e+00    1.011192e-01
  1.750469e+00    8.398999e-02
  1.766345e+00    7.526535e-02
  1.782221e+00    8.707480e-02
  1.798096e+00    9.021073e-02
  1.813972e+00    7.343444e-02
  1.829847e+00    1.076059e-01
  1.845723e+00    9.296495e-02
  1.861598e+00    7.236330e-02
  1.877474e+00    1.005237e-01
  1.893350e+00    9.357866e-02
  1.909225e+00    8.666711e-02
  1.925101e+00    8.865858e-02
  1.940976e+00    9.482108e-02
  1.956852e+00    1.085783e-01
  1.972727e+00    1.147486e-01
  1.988603e+00    9.566014e-02
  2.004479e+00    9.640341e-02
  2.020354e+00    8.541679e-02
  2.036230e+00    8.933025e-02
  2.052105e+00    9.253016e-02
  2.067981e+00    9.384143e-02
  2.083856e+00    8.526363e-02
  2.099732e+00    8.458464e-02
  2.115608e+00    7.902004e-02
  2.131483e+00    8.677915e-02
  2.147359e+00    9.186811e-02
  2.163234e+00    8.780855e-02
  2.179110e+00    9.479570e-02
  2.194985e+00    7.630730e-02
  2.210861e+00    8.886354e-02
  2.226737e+00    1.029206e-01
  2.242612e+00    9.423996e-02
  2.258488e+00    1.073873e-01
  2.274363e+00    9.325203e-02
  2.290239e+00    7.981335e-02
  2.306115e+00    8.440971e-02
  2.321990e+00    9.803396e-02
  2.337866e+00    1.014081e-01
  2.353741e+00    9.951635e-02
  2.369617e+00    9.606408e-02
  2.385492e+00    8.698087e-02
  2.401368e+00    1.001133e-01
  2.417244e+00    1.077589e-01
  2.433119e+00    9.500702e-02
  2.448995e+00    8.306077e-02
  2.464870e+00    7.003488e-02
  2.480746e+00    7.356595e-02
  2.496621e+00    9.228237e-02
  2.512497e+00    9.547365e-02
  2.528373e+00    7.306462e-02
  2.544248e+00    7.048012e-02
  2.560124e+00    7.142343e-02
  2.575999e+00    7.711558e-02
  2.591875e+00    8.165285e-02
  2.607750e+00    8.479667e-02
  2.623626e+00    8.399948e-02
  2.639502e+00    7.779481e-02
  2.655377e+00    7.828619e-02
  2.671253e+00    7.228665e-02
  2.687128e+00    8.726401e-02
  2.703004e+00    8.953410e-02
  2.718879e+00    9.770915e-02
  2.734755e+00    9.125493e-02
  2.750631e+00    7.052341e-02
  2.766506e+00    9.457496e-02
  2.782382e+00    9.799328e-02
  2.798257e+00    7.741150e-02
  2.814133e+00    9.062400e-02
  2.830008e+00    1.121871e-01
  2.845884e+00    1.184638e-01
  2.861760e+00    9.410728e-02
  2.877635e+00    8.646519e-02
  2.893511e+00    8.996051e-02
  2.909386e+00    8.224121e-02
  2.925262e+00    6.958108e-02
  2.941137e+00    8.469622e-02
  2.957013e+00    9.932517e-02
  2.972889e+00    9.612714e-02
  2.988764e+00    8.377862e-02
  3.004640e+00    7.784741e-02
  3.020515e+00    7.572956e-02
  3.036391e+00    8.122037e-02
  3.052266e+00    7.784381e-02
  3.068142e+00    7.859325e-02
  3.084018e+00    7.508513e-02
  3.099893e+00    7.450070e-02
  3.115769e+00    7.715558e-02
  3.131644e+00    9.109222e-02
  3.147520e+00    7.679889e-02
  3.163395e+00    7.749626e-02
  3.179271e+00    9.210041e-02
  3.195147e+00    9.819938e-02
  3.211022e+00    7.748217e-02
  3.226898e+00    7.028595e-02
  3.242773e+00    8.175188e-02
  3.258649e+00    7.500740e-02
  3.274525e+00    8.096865e-02
  3.290400e+00    8.649431e-02
  3.306276e+00    7.175382e-02
  3.322151e+00    7.568727e-02
  3.338027e+00    8.451106e-02
  3.353902e+00    8.672760e-02
  3.369778e+00    8.423558e-02
  3.385654e+00    7.223962e-02
  3.401529e+00    7.615664e-02
  3.417405e+00    8.919186e-02
  3.433280e+00    8.915109e-02
  3.449156e+00    9.945912e-02
  3.465031e+00    9.013233e-02
  3.480907e+00    7.503060e-02
  3.496783e+00    6.955881e-02
  3.512658e+00    8.892252e-02
  3.528534e+00    7.043511e-02
  3.544409e+00    7.122130e-02
  3.560285e+00    7.873056e-02
  3.576160e+00    1.006405e-01
  3.592036e+00    9.680077e-02
  3.607912e+00    7.862464e-02
  3.623787e+00    7.782933e-02
  3.639663e+00    8.626401e-02
  3.655538e+00    8.954085e-02
  3.671414e+00    7.681350e-02
  3.687289e+00    7.309374e-02
  3.703165e+00    8.268520e-02
  3.719041e+00    7.580277e-02
  3.734916e+00    7.782273e-02
  3.750792e+00    8.225289e-02
  3.766667e+00    9.138392e-02
  3.782543e+00    9.334153e-02
  3.798418e+00    7.930386e-02
  3.814294e+00    7.928800e-02
  3.830170e+00    8.956326e-02
  3.846045e+00    9.232031e-02
  3.861921e+00    9.074268e-02
  3.877796e+00    9.588776e-02
  3.893672e+00    7.523731e-02
  3.909547e+00    8.046130e-02
  3.925423e+00    7.731030e-02
  3.941299e+00    8.072212e-02
  3.957174e+00    9.524788e-02
  3.973050e+00    8.527172e-02
  3.988925e+00    8.050735e-02
  4.004801e+00    9.338298e-02
  4.020676e+00    7.723138e-02
  4.036552e+00    7.985921e-02
  4.052428e+00    8.519727e-02
  4.068303e+00    8.051819e-02
  4.084179e+00    8.979408e-02
  4.100054e+00    8.424565e-02
  4.115930e+00    7.249207e-02
  4.131806e+00    8.277025e-02
  4.147681e+00    9.551646e-02
  4.163557e+00    8.846137e-02
  4.179432e+00    8.345924e-02
  4.195308e+00    9.624693e-02
  4.211183e+00    7.829142e-02
  4.227059e+00    7.741123e-02
  4.242935e+00    8.052428e-02
  4.258810e+00    9.134258e-02
  4.274686e+00    9.577591e-02
  4.290561e+00    9.079923e-02
  4.306437e+00    7.816303e-02
  4.322312e+00    7.568741e-02
  4.338188e+00    8.791170e-02
  4.354064e+00    9.908807e-02
  4.369939e+00    8.413858e-02
  4.385815e+00    8.165094e-02
  4.401690e+00    7.801278e-02
  4.417566e+00    9.073101e-02
  4.433441e+00    1.036570e-01
  4.449317e+00    1.005160e-01
  4.465193e+00    9.291974e-02
  4.481068e+00    9.506313e-02
  4.496944e+00    9.520756e-02
  4.512819e+00    9.096018e-02
  4.528695e+00    8.918621e-02
  4.544570e+00    8.764045e-02
  4.560446e+00    8.413240e-02
  4.576322e+00    7.628176e-02
  4.592197e+00    7.471970e-02
  4.608073e+00    8.150550e-02
  4.623948e+00    8.662790e-02
  4.639824e+00    8.292104e-02
  4.655699e+00    9.836493e-02
  4.671575e+00    9.092023e-02
  4.687451e+00    7.887918e-02
  4.703326e+00    7.786088e-02
  4.719202e+00    8.704247e-02
  4.735077e+00    8.181502e-02
  4.750953e+00    8.754338e-02
  4.766828e+00    7.350830e-02
  4.782704e+00    8.270667e-02
  4.798580e+00    8.543332e-02
  4.814455e+00    8.156162e-02
  4.830331e+00    9.117664e-02
  4.846206e+00    9.235186e-02
  4.862082e+00    7.825018e-02
  4.877957e+00    8.826195e-02
  4.893833e+00    8.875900e-02
  4.909709e+00    8.973472e-02
  4.925584e+00    9.550509e-02
  4.941460e+00    9.692812e-02
  4.957335e+00    8.625273e-02
  4.973211e+00    9.056021e-02
  4.989086e+00    9.130128e-02
  5.004962e+00    8.738045e-02
  5.020838e+00    9.415828e-02
  5.036713e+00    8.602024e-02
  5.052589e+00    9.137050e-02
  5.068464e+00    9.191696e-02
  5.084340e+00    9.301821e-02
  5.100216e+00    1.030424e-01
  5.116091e+00    9.444225e-02
  5.131967e+00    8.166663e-02
  5.147842e+00    8.460683e-02
  5.163718e+00    7.702080e-02
  5.179593e+00    7.667112e-02
  5.195469e+00    7.883416e-02
  5.211345e+00    7.957503e-02
  5.227220e+00    8.444822e-02
  5.243096e+00    9.238025e-02
  5.258971e+00    8.732486e-02
  5.274847e+00    8.838214e-02
  5.290722e+00    7.334454e-02
  5.306598e+00    8.588079e-02
  5.322474e+00    8.907209e-02
  5.338349e+00    9.420445e-02
  5.354225e+00    8.214811e-02
  5.370100e+00    8.072347e-02
  5.385976e+00    8.709118e-02
  5.401851e+00    9.277266e-02
  5.417727e+00    9.662013e-02
  5.433603e+00    1.009859e-01
  5.449478e+00    1.001902e-01
  5.465354e+00    9.634545e-02
  5.481229e+00    9.315060e-02
  5.497105e+00    9.437655e-02
  5.512980e+00    9.351637e-02
  5.528856e+00    7.502185e-02
  5.544732e+00    8.578231e-02
  5.560607e+00    9.428541e-02
  5.576483e+00    9.455933e-02
  5.592358e+00    8.747683e-02
  5.608234e+00    8.794580e-02
  5.624109e+00    8.474295e-02
  5.639985e+00    8.740741e-02
  5.655861e+00    9.861494e-02
  5.671736e+00    9.459350e-02
  5.687612e+00    8.901791e-02
  5.703487e+00    7.742703e-02
  5.719363e+00    8.943097e-02
  5.735238e+00    1.067764e-01
  5.751114e+00    9.254106e-02
  5.766990e+00    9.014796e-02
  5.782865e+00    9.852608e-02
  5.798741e+00    8.956880e-02
  5.814616e+00    8.039615e-02
  5.830492e+00    7.778554e-02
  5.846367e+00    8.561958e-02
  5.862243e+00    9.763369e-02
  5.878119e+00    8.506147e-02
  5.893994e+00    7.411498e-02
  5.909870e+00    7.002480e-02
  5.925745e+00    7.931030e-02
  5.941621e+00    8.580135e-02
  5.957497e+00    9.441355e-02
  5.973372e+00    9.422401e-02
  5.989248e+00    9.552726e-02
  6.005123e+00    7.850381e-02
  6.020999e+00    8.575286e-02
  6.036874e+00    9.676922e-02
  6.052750e+00    9.819077e-02
  6.068626e+00    8.167695e-02
  6.084501e+00    9.423589e-02
  6.100377e+00    9.643494e-02
  6.116252e+00    9.238243e-02
  6.132128e+00    8.268341e-02
  6.148003e+00    7.346863e-02
  6.163879e+00    7.243270e-02
  6.179755e+00    9.107629e-02
  6.195630e+00    9.265431e-02
  6.211506e+00    8.455010e-02
  6.227381e+00    8.798961e-02
  6.243257e+00    9.274627e-02
  6.259132e+00    9.025748e-02
  6.275008e+00    8.225071e-02
  6.290884e+00    9.140023e-02
  6.306759e+00    8.342876e-02
  6.322635e+00    8.191872e-02
  6.338510e+00    9.379115e-02
  6.354386e+00    8.796985e-02
  6.370261e+00    8.909685e-02
  6.386137e+00    8.609423e-02
  6.402013e+00    7.535016e-02
  6.417888e+00    8.259711e-02
  6.433764e+00    7.578522e-02
  6.449639e+00    8.328417e-02
  6.465515e+00    8.294819e-02
  6.481390e+00    8.684882e-02
  6.497266e+00    9.472891e-02
  6.513142e+00    7.693709e-02
  6.529017e+00    7.248623e-02
  6.544893e+00    7.471283e-02
  6.560768e+00    8.392514e-02
  6.576644e+00    8.311497e-02
  6.592519e+00    8.771956e-02
  6.608395e+00    8.010447e-02
  6.624271e+00    8.695269e-02
  6.640146e+00    9.332034e-02
  6.656022e+00    8.007765e-02
  6.671897e+00    8.005282e-02
  6.687773e+00    8.313419e-02
  6.703648e+00    8.423538e-02
  6.719524e+00    8.106487e-02
  6.735400e+00    8.045637e-02
  6.751275e+00    8.576105e-02
  6.767151e+00    8.925697e-02
  6.783026e+00    9.428812e-02
  6.798902e+00    9.165726e-02
  6.814777e+00    7.999820e-02
  6.830653e+00    7.041896e-02
  6.846529e+00    7.741766e-02
  6.862404e+00    7.443655e-02
  6.878280e+00    7.854679e-02
  6.894155e+00    8.310574e-02
  6.910031e+00    8.492097e-02
  6.925907e+00    8.692707e-02
  6.941782e+00    8.424401e-02
  6.957658e+00    9.286799e-02
  6.973533e+00    8.915232e-02
  6.989409e+00    8.253520e-02
  7.005284e+00    8.582702e-02
  7.021160e+00    9.148808e-02
  7.037036e+00    9.584586e-02
  7.052911e+00    9.611753e-02
  7.068787e+00    9.633209e-02
  7.084662e+00    9.034445e-02
  7.100538e+00    8.545350e-02
  7.116413e+00    9.630360e-02
  7.132289e+00    9.363753e-02
  7.148165e+00    9.939407e-02
  7.164040e+00    9.185935e-02
  7.179916e+00    8.633392e-02
  7.195791e+00    9.184111e-02
  7.211667e+00    9.516508e-02
  7.227542e+00    8.808827e-02
  7.243418e+00    8.161989e-02
  7.259294e+00    7.884545e-02
  7.275169e+00    8.190544e-02
  7.291045e+00    8.212014e-02
  7.306920e+00    8.213628e-02
  7.322796e+00    8.586762e-02
  7.338671e+00    9.836907e-02
  7.354547e+00    8.284899e-02
  7.370423e+00    7.700121e-02
  7.386298e+00    9.146620e-02
  7.402174e+00    8.250222e-02
  7.418049e+00    8.776503e-02
  7.433925e+00    8.734266e-02
  7.449800e+00    9.498248e-02
  7.465676e+00    9.381729e-02
  7.481552e+00    9.001862e-02
  7.497427e+00    9.000488e-02
  7.513303e+00    8.986816e-02
  7.529178e+00    8.328301e-02
  7.545054e+00    8.884196e-02
  7.560929e+00    8.488017e-02
  7.576805e+00    8.847023e-02
  7.592681e+00    8.484641e-02
  7.608556e+00    8.548839e-02
  7.624432e+00    7.309090e-02
  7.640307e+00    7.333364e-02
  7.656183e+00    8.345155e-02
  7.672058e+00    9.247545e-02
  7.687934e+00    9.746507e-02
  7.703810e+00    8.383793e-02
  7.719685e+00    7.885499e-02
  7.735561e+00    8.124487e-02
  7.751436e+00    8.801090e-02
  7.767312e+00    9.583298e-02
  7.783187e+00    9.395479e-02
  7.799063e+00    8.557817e-02
  7.814939e+00    8.636054e-02
  7.830814e+00    9.725461e-02
  7.846690e+00    9.464244e-02
  7.862565e+00    8.722824e-02
  7.878441e+00    9.061586e-02
  7.894317e+00    8.423077e-02
  7.910192e+00    8.281120e-02
  7.926068e+00    7.651781e-02
  7.941943e+00    7.816314e-02
  7.957819e+00    8.877469e-02
  7.973694e+00    1.009504e-01
  7.989570e+00    8.996905e-02
  8.005446e+00    8.283529e-02
  8.021321e+00    8.843624e-02
  8.037197e+00    8.728361e-02
  8.053072e+00    8.225167e-02
  8.068948e+00    9.210586e-02
  8.084823e+00    8.681308e-02
  8.100699e+00    8.563878e-02
  8.116575e+00    9.358953e-02
  8.132450e+00    9.111855e-02
  8.148326e+00    8.757239e-02
  8.164201e+00    8.427511e-02
  8.180077e+00    8.419374e-02
  8.195952e+00    7.964266e-02
  8.211828e+00    8.755863e-02
  8.227704e+00    9.648430e-02
  8.243579e+00    1.016714e-01
  8.259455e+00    9.937314e-02
  8.275330e+00    8.871590e-02
  8.291206e+00    8.756667e-02
  8.307081e+00    8.607540e-02
  8.322957e+00    8.175506e-02
  8.338833e+00    8.823922e-02
  8.354708e+00    7.718021e-02
  8.370584e+00    8.174463e-02
  8.386459e+00    8.599046e-02
  8.402335e+00    7.815415e-02
  8.418210e+00    6.952341e-02
  8.434086e+00    8.441420e-02
  8.449962e+00    9.090712e-02
  8.465837e+00    8.457821e-02
  8.481713e+00    9.147096e-02
  8.497588e+00    8.785881e-02
  8.513464e+00    9.401502e-02
  8.529339e+00    8.621918e-02
  8.545215e+00    7.820081e-02
  8.561091e+00    8.422700e-02
  8.576966e+00    8.719109e-02
  8.592842e+00    8.075272e-02
  8.608717e+00    7.840713e-02
  8.624593e+00    8.804315e-02
  8.640468e+00    9.238446e-02
  8.656344e+00    8.379477e-02
  8.672220e+00    7.678521e-02
  8.688095e+00    7.904746e-02
  8.703971e+00    8.981294e-02
  8.719846e+00    7.677167e-02
  8.735722e+00    8.435088e-02
  8.751598e+00    8.987955e-02
  8.767473e+00    8.395264e-02
  8.783349e+00    8.283716e-02
  8.799224e+00    8.951806e-02
  8.815100e+00    7.586677e-02
  8.830975e+00    8.407738e-02
  8.846851e+00    7.885015e-02
  8.862727e+00    7.840738e-02
  8.878602e+00    7.882017e-02
  8.894478e+00    7.173098e-02
  8.910353e+00    7.749793e-02
  8.926229e+00    8.566299e-02
  8.942104e+00    8.791761e-02
  8.957980e+00    7.167855e-02
  8.973856e+00    8.563856e-02
  8.989731e+00    8.050200e-02
  9.005607e+00    7.370135e-02
  9.021482e+00    7.631675e-02
  9.037358e+00    8.167667e-02
  9.053233e+00    8.547134e-02
  9.069109e+00    8.050515e-02
  9.084985e+00    7.692478e-02
  9.100860e+00    7.490627e-02
  9.116736e+00    7.949682e-02
  9.132611e+00    7.673663e-02
  9.148487e+00    8.316191e-02
  9.164362e+00    8.866125e-02
  9.180238e+00    8.056720e-02
  9.196114e+00    8.297148e-02
  9.211989e+00    7.237091e-02
  9.227865e+00    7.432663e-02
  9.243740e+00    8.548184e-02
  9.259616e+00    7.761928e-02
  9.275491e+00    7.110001e-02
  9.291367e+00    7.176855e-02
  9.307243e+00    7.059664e-02
  9.323118e+00    8.568779e-02
  9.338994e+00    7.645289e-02
  9.354869e+00    5.988155e-02
  9.370745e+00    6.499559e-02
  9.386620e+00    7.757598e-02
  9.402496e+00    8.522660e-02
  9.418372e+00    8.258569e-02
  9.434247e+00    7.236440e-02
  9.450123e+00    7.598240e-02
  9.465998e+00    8.307081e-02
  9.481874e+00    8.259127e-02
  9.497749e+00    7.427353e-02
  9.513625e+00    8.281463e-02
  9.529501e+00    8.928760e-02
  9.545376e+00    8.162328e-02
  9.561252e+00    8.328105e-02
  9.577127e+00    8.456887e-02
  9.593003e+00    7.699187e-02
  9.608878e+00    7.507779e-02
  9.624754e+00    8.107585e-02
  9.640630e+00    8.477116e-02
  9.656505e+00    8.567844e-02
  9.672381e+00    8.375457e-02
  9.688256e+00    7.829899e-02
  9.704132e+00    7.815857e-02
  9.720008e+00    8.464742e-02
  9.735883e+00    8.709496e-02
  9.751759e+00    8.342457e-02
  9.767634e+00    8.292559e-02
  9.783510e+00    8.015232e-02
  9.799385e+00    7.761119e-02
  9.815261e+00    8.793283e-02
  9.831137e+00    9.074776e-02
  9.847012e+00    9.072705e-02
  9.862888e+00    8.945360e-02
  9.878763e+00    8.229872e-02
  9.894639e+00    7.688823e-02
  9.910514e+00    7.137869e-02
  9.926390e+00    8.103245e-02
  9.942266e+00    8.166848e-02
  9.958141e+00    8.959876e-02
  9.974017e+00    8.287206e-02
  9.989892e+00    8.860085e-02
  1.000577e+01    9.196292e-02
  1.002164e+01    8.334661e-02
  1.003752e+01    7.709056e-02
  1.005339e+01    9.029900e-02
  1.006927e+01    9.466435e-02
  1.008515e+01    8.212224e-02
  1.010102e+01    8.146425e-02
  1.011690e+01    8.342361e-02
  1.013277e+01    8.895537e-02
  1.014865e+01    8.648640e-02
  1.016452e+01    8.042718e-02
  1.018040e+01    9.096301e-02
  1.019627e+01    1.059435e-01
  1.021215e+01    1.036787e-01
  1.022803e+01    1.021372e-01
  1.024390e+01    1.135360e-01
  1.025978e+01    1.059251e-01
  1.027565e+01    1.097566e-01
  1.029153e+01    1.084872e-01
  1.030740e+01    1.215643e-01
  1.032328e+01    1.186347e-01
  1.033915e+01    1.207080e-01
  1.035503e+01    1.324462e-01
  1.037091e+01    1.383183e-01
  1.038678e+01    1.466807e-01
  1.040266e+01    1.537807e-01
  1.041853e+01    1.607696e-01
  1.043441e+01    1.639345e-01
  1.045028e+01    2.065585e-01
  1.046616e+01    2.259816e-01
  1.048204e+01    2.531788e-01
  1.049791e+01    2.987577e-01
  1.051379e+01    3.680173e-01
  1.052966e+01    4.610383e-01
  1.054554e+01    5.942452e-01
  1.056141e+01    7.012889e-01
  1.057729e+01    8.879892e-01
  1.059316e+01    9.944947e-01
  1.060904e+01    1.121637e+00
  1.062492e+01    1.202467e+00
  1.064079e+01    1.326183e+00
  1.065667e+01    1.395139e+00
  1.067254e+01    1.491286e+00
  1.068842e+01    1.545691e+00
  1.070429e+01    1.538821e+00
  1.072017e+01    1.437725e+00
  1.073604e+01    1.261570e+00
  1.075192e+01    1.064373e+00
  1.076780e+01    8.051755e-01
  1.078367e+01    6.270212e-01
  1.079955e+01    5.442478e-01
  1.081542e+01    4.285146e-01
  1.083130e+01    3.424483e-01
  1.084717e+01    3.009655e-01
  1.086305e+01    2.751844e-01
  1.087892e+01    2.495986e-01
  1.089480e+01    2.250064e-01
  1.091068e+01    2.087540e-01
  1.092655e+01    1.641903e-01
  1.094243e+01    1.649841e-01
  1.095830e+01    1.610317e-01
  1.097418e+01    1.367273e-01
  1.099005e+01    1.338299e-01
  1.100593e+01    1.310716e-01
  1.102180e+01    1.308426e-01
  1.103768e+01    1.179776e-01
  1.105356e+01    1.166169e-01
  1.106943e+01    1.161340e-01
  1.108531e+01    1.187590e-01
  1.110118e+01    1.061922e-01
  1.111706e+01    1.027949e-01
  1.113293e+01    1.085173e-01
  1.114881e+01    1.158617e-01
  1.116468e+01    9.760263e-02
  1.118056e+01    9.547694e-02
  1.119644e+01    9.138671e-02
  1.121231e+01    8.747957e-02
  1.122819e+01    8.526603e-02
  1.124406e+01    9.422906e-02
  1.125994e+01    9.551440e-02
  1.127581e+01    8.779519e-02
  1.129169e+01    8.170059e-02
  1.130756e+01    8.327269e-02
  1.132344e+01    8.643942e-02
  1.133932e+01    8.608190e-02
  1.135519e+01    8.333858e-02
  1.137107e+01    8.528383e-02
  1.138694e+01    8.364417e-02
  1.140282e+01    8.419440e-02
  1.141869e+01    9.065282e-02
  1.143457e+01    8.713143e-02
  1.145045e+01    8.910875e-02
  1.146632e+01    8.747398e-02
  1.148220e+01    8.392509e-02
  1.149807e+01    8.636652e-02
  1.151395e+01    8.378226e-02
  1.152982e+01    8.220896e-02
  1.154570e+01    8.497249e-02
  1.156157e+01    8.602271e-02
  1.157745e+01    9.014386e-02
  1.159333e+01    8.432725e-02
  1.160920e+01    8.315930e-02
  1.162508e+01    7.392346e-02
  1.164095e+01    7.946966e-02
  1.165683e+01    8.542880e-02
  1.167270e+01    8.542258e-02
  1.168858e+01    7.977635e-02
  1.170445e+01    7.879057e-02
  1.172033e+01    7.824659e-02
  1.173621e+01    7.572187e-02
  1.175208e+01    8.255351e-02
  1.176796e+01    7.101534e-02
  1.178383e+01    7.115477e-02
  1.179971e+01    7.118104e-02
  1.181558e+01    7.167653e-02
  1.183146e+01    7.348840e-02
  1.184733e+01    8.703961e-02
  1.186321e+01    8.288334e-02
  1.187909e+01    8.101027e-02
  1.189496e+01    7.788413e-02
  1.191084e+01    9.269984e-02
  1.192671e+01    8.367622e-02
  1.194259e+01    7.328948e-02
  1.195846e+01    7.695103e-02
  1.197434e+01    8.623990e-02
  1.199021e+01    8.007871e-02
  1.200609e+01    8.619641e-02
  1.202197e+01    7.643536e-02
  1.203784e+01    8.042547e-02
  1.205372e+01    8.358455e-02
  1.206959e+01    8.514026e-02
  1.208547e+01    8.912162e-02
  1.210134e+01    9.584307e-02
  1.211722e+01    1.048655e-01
  1.213309e+01    1.088080e-01
  1.214897e+01    1.104379e-01
  1.216485e+01    1.238593e-01
  1.218072e+01    1.387412e-01
  1.219660e+01    1.641200e-01
  1.221247e+01    1.993588e-01
  1.222835e+01    2.204911e-01
  1.224422e+01    2.476939e-01
  1.226010e+01    3.035684e-01
  1.227597e+01    3.319273e-01
  1.229185e+01    3.680101e-01
  1.230773e+01    4.142929e-01
  1.232360e+01    4.316753e-01
  1.233948e+01    4.622878e-01
  1.235535e+01    4.843884e-01
  1.237123e+01    4.897577e-01
  1.238710e+01    4.749255e-01
  1.240298e+01    4.522995e-01
  1.241886e+01    3.996231e-01
  1.243473e+01    3.394850e-01
  1.245061e+01    2.609009e-01
  1.246648e+01    2.267274e-01
  1.248236e+01    1.849327e-01
  1.249823e+01    1.645829e-01
  1.251411e+01    1.539279e-01
  1.252998e+01    1.360818e-01
  1.254586e+01    1.238594e-01
  1.256174e+01    1.063346e-01
  1.257761e+01    1.077194e-01
  1.259349e+01    1.061207e-01
  1.260936e+01    9.544802e-02
  1.262524e+01    8.511811e-02
  1.264111e+01    8.417599e-02
  1.265699e+01    8.444192e-02
  1.267286e+01    8.452186e-02
  1.268874e+01    7.394551e-02
  1.270462e+01    8.015798e-02
  1.272049e+01    8.336363e-02
  1.273637e+01    7.569863e-02
  1.275224e+01    8.480211e-02
  1.276812e+01    8.800217e-02
  1.278399e+01    7.964640e-02
  1.279987e+01    7.291345e-02
  1.281574e+01    7.146969e-02
  1.283162e+01    7.430334e-02
  1.284750e+01    6.936698e-02
  1.286337e+01    7.620031e-02
  1.287925e+01    7.451095e-02
  1.289512e+01    6.956719e-02
  1.291100e+01    6.880489e-02
  1.292687e+01    6.795928e-02
  1.294275e+01    7.438280e-02
  1.295862e+01    7.638145e-02
  1.297450e+01    6.670319e-02
  1.299038e+01    6.282912e-02
  1.300625e+01    6.712984e-02
  1.302213e+01    7.340929e-02
  1.303800e+01    6.852823e-02
  1.305388e+01    6.796636e-02
  1.306975e+01    7.523283e-02
  1.308563e+01    7.082821e-02
  1.310150e+01    6.990615e-02
  1.311738e+01    6.956861e-02
  1.313326e+01    7.042881e-02
  1.314913e+01    6.909784e-02
  1.316501e+01    6.718478e-02
  1.318088e+01    6.702337e-02
  1.319676e+01    6.483543e-02
  1.321263e+01    6.539596e-02
  1.322851e+01    6.898584e-02
  1.324438e+01    6.640630e-02
  1.326026e+01    5.958529e-02
  1.327614e+01    6.554361e-02
  1.329201e+01    6.905308e-02
  1.330789e+01    7.283404e-02
  1.332376e+01    6.863179e-02
  1.333964e+01    6.527009e-02
  1.335551e+01    6.787753e-02
  1.337139e+01    6.862612e-02
  1.338727e+01    6.277258e-02
  1.340314e+01    6.170624e-02
  1.341902e+01    5.849585e-02
  1.343489e+01    6.898785e-02
  1.345077e+01    6.783970e-02
  1.346664e+01    6.079184e-02
  1.348252e+01    5.979054e-02
  1.349839e+01    6.278060e-02
  1.351427e+01    6.381575e-02
  1.353015e+01    6.329727e-02
  1.354602e+01    6.527247e-02
  1.356190e+01    6.233578e-02
  1.357777e+01    5.638016e-02
  1.359365e+01    6.178649e-02
  1.360952e+01    6.035337e-02
  1.362540e+01    5.433438e-02
  1.364127e+01    6.194273e-02
  1.365715e+01    6.449762e-02
  1.367303e+01    6.461929e-02
  1.368890e+01    6.329617e-02
  1.370478e+01    6.789814e-02
  1.372065e+01    6.832919e-02
  1.373653e+01    6.252801e-02
  1.375240e+01    6.274194e-02
  1.376828e+01    6.890377e-02
  1.378415e+01    6.140937e-02
  1.380003e+01    6.816228e-02
  1.381591e+01    6.663904e-02
  1.383178e+01    5.777417e-02
  1.384766e+01    5.425387e-02
  1.386353e+01    5.766989e-02
  1.387941e+01    5.712483e-02
  1.389528e+01    5.163831e-02
  1.391116e+01    5.891729e-02
  1.392703e+01    6.065166e-02
  1.394291e+01    6.050900e-02
  1.395879e+01    5.904575e-02
  1.397466e+01    6.077988e-02
  1.399054e+01    6.006872e-02
  1.400641e+01    5.470842e-02
  1.402229e+01    5.273056e-02
  1.403816e+01    5.508051e-02
  1.405404e+01    5.957511e-02
  1.406991e+01    6.006382e-02
  1.408579e+01    5.991649e-02
  1.410167e+01    5.714646e-02
  1.411754e+01    6.520731e-02
  1.413342e+01    6.396282e-02
  1.414929e+01    5.731919e-02
  1.416517e+01    6.027704e-02
  1.418104e+01    5.997720e-02
  1.419692e+01    6.069276e-02
  1.421279e+01    6.245488e-02
  1.422867e+01    5.763969e-02
  1.424455e+01    6.559389e-02
  1.426042e+01    5.785462e-02
  1.427630e+01    5.210560e-02
  1.429217e+01    5.109286e-02
  1.430805e+01    5.232383e-02
  1.432392e+01    5.683138e-02
  1.433980e+01    5.793481e-02
  1.435568e+01    5.541283e-02
  1.437155e+01    5.993151e-02
  1.438743e+01    5.908761e-02
  1.440330e+01    5.558185e-02
  1.441918e+01    5.838130e-02
  1.443505e+01    6.237570e-02
  1.445093e+01    5.420540e-02
  1.446680e+01    4.977741e-02
  1.448268e+01    5.201767e-02
  1.449856e+01    5.481228e-02
  1.451443e+01    5.613788e-02
  1.453031e+01    6.365719e-02
  1.454618e+01    6.830236e-02
  1.456206e+01    6.219801e-02
  1.457793e+01    5.653159e-02
  1.459381e+01    5.903301e-02
  1.460968e+01    5.859695e-02
  1.462556e+01    6.270660e-02
  1.464144e+01    6.100475e-02
  1.465731e+01    6.087527e-02
  1.467319e+01    6.282575e-02
  1.468906e+01    5.492929e-02
  1.470494e+01    5.430309e-02
  1.472081e+01    5.459404e-02
  1.473669e+01    5.729357e-02
  1.475256e+01    5.765870e-02
  1.476844e+01    5.797729e-02
  1.478432e+01    5.439068e-02
  1.480019e+01    6.348907e-02
  1.481607e+01    5.993042e-02
  1.483194e+01    5.680907e-02
  1.484782e+01    5.741639e-02
  1.486369e+01    5.557093e-02
  1.487957e+01    5.800579e-02
  1.489544e+01    5.555306e-02
  1.491132e+01    5.842654e-02
  1.492720e+01    5.984174e-02
  1.494307e+01    5.377268e-02
  1.495895e+01    5.970521e-02
  1.497482e+01    5.532608e-02
  1.499070e+01    5.393545e-02
  1.500657e+01    5.206002e-02
  1.502245e+01    5.503278e-02
  1.503832e+01    5.754499e-02
  1.505420e+01    5.943191e-02
  1.507008e+01    5.670785e-02
  1.508595e+01    5.288118e-02
  1.510183e+01    5.125788e-02
  1.511770e+01    5.665260e-02
  1.513358e+01    5.263093e-02
  1.514945e+01    5.158786e-02
  1.516533e+01    5.286605e-02
  1.518120e+01    5.838868e-02
  1.519708e+01    5.814508e-02
  1.521296e+01    5.366348e-02
  1.522883e+01    5.774231e-02
  1.524471e+01    5.421829e-02
  1.526058e+01    6.042860e-02
  1.527646e+01    6.310861e-02
  1.529233e+01    6.578486e-02
  1.530821e+01    6.218184e-02
  1.532409e+01    5.197710e-02
  1.533996e+01    5.134149e-02
  1.535584e+01    5.573896e-02
  1.537171e+01    5.854226e-02
  1.538759e+01    6.672135e-02
  1.540346e+01    5.713516e-02
  1.541934e+01    6.078063e-02
  1.543521e+01    6.143248e-02
  1.545109e+01    5.526631e-02
  1.546697e+01    5.650280e-02
  1.548284e+01    5.628275e-02
  1.549872e+01    5.047635e-02
  1.551459e+01    5.388116e-02
  1.553047e+01    5.188448e-02
  1.554634e+01    5.880886e-02
  1.556222e+01    5.532286e-02
  1.557809e+01    5.641368e-02
  1.559397e+01    5.825892e-02
  1.560985e+01    5.877304e-02
  1.562572e+01    8.852129e-02
  1.564160e+01    2.030921e-01
  1.565747e+01    7.889197e-02
  1.567335e+01    5.756576e-02
  1.568922e+01    5.468145e-02
  1.570510e+01    5.711082e-02
  1.572097e+01    5.725232e-02
  1.573685e+01    5.726673e-02
  1.575273e+01    5.648377e-02
  1.576860e+01    5.860988e-02
  1.578448e+01    5.976818e-02
  1.580035e+01    5.937846e-02
  1.581623e+01    5.694912e-02
  1.583210e+01    5.064597e-02
  1.584798e+01    5.431014e-02
  1.586385e+01    5.711861e-02
  1.587973e+01    5.743352e-02
  1.589561e+01    5.732862e-02
  1.591148e+01    5.511899e-02
  1.592736e+01    5.726458e-02
  1.594323e+01    5.158552e-02
  1.595911e+01    6.015662e-02
  1.597498e+01    5.972788e-02
  1.599086e+01    4.929879e-02
  1.600673e+01    4.768628e-02
  1.602261e+01    5.226857e-02
  1.603849e+01    5.709613e-02
  1.605436e+01    6.297508e-02
  1.607024e+01    6.403063e-02
  1.608611e+01    5.487540e-02
  1.610199e+01    5.544255e-02
  1.611786e+01    5.471455e-02
  1.613374e+01    5.062693e-02
  1.614961e+01    5.398554e-02
  1.616549e+01    5.267946e-02
  1.618137e+01    5.311608e-02
  1.619724e+01    5.706296e-02
  1.621312e+01    5.600268e-02
  1.622899e+01    4.802063e-02
  1.624487e+01    4.718426e-02
  1.626074e+01    5.472328e-02
  1.627662e+01    5.545580e-02
  1.629250e+01    5.064652e-02
  1.630837e+01    5.416009e-02
  1.632425e+01    5.312628e-02
  1.634012e+01    5.184079e-02
  1.635600e+01    5.639664e-02
  1.637187e+01    6.286746e-02
  1.638775e+01    5.356462e-02
  1.640362e+01    5.639378e-02
  1.641950e+01    5.614872e-02
  1.643538e+01    5.483303e-02
  1.645125e+01    5.324463e-02
  1.646713e+01    5.282381e-02
  1.648300e+01    5.451771e-02
  1.649888e+01    5.702028e-02
  1.651475e+01    6.229476e-02
  1.653063e+01    5.798481e-02
  1.654650e+01    5.758536e-02
  1.656238e+01    5.970883e-02
  1.657826e+01    5.724423e-02
  1.659413e+01    5.542131e-02
  1.661001e+01    6.030568e-02
  1.662588e+01    5.732625e-02
  1.664176e+01    5.870465e-02
  1.665763e+01    5.367256e-02
  1.667351e+01    5.196148e-02
  1.668938e+01    5.315413e-02
  1.670526e+01    6.248555e-02
  1.672114e+01    5.666503e-02
  1.673701e+01    5.197348e-02
  1.675289e+01    5.269547e-02
  1.676876e+01    6.099428e-02
  1.678464e+01    6.018518e-02
  1.680051e+01    5.441691e-02
  1.681639e+01    5.030776e-02
  1.683226e+01    5.100106e-02
  1.684814e+01    5.725103e-02
  1.686402e+01    5.135211e-02
  1.687989e+01    5.705227e-02
  1.689577e+01    5.694357e-02
  1.691164e+01    5.641770e-02
  1.692752e+01    6.193442e-02
  1.694339e+01    5.735401e-02
  1.695927e+01    5.637089e-02
  1.697514e+01    5.575211e-02
  1.699102e+01    5.536019e-02
  1.700690e+01    6.206969e-02
  1.702277e+01    5.717596e-02
  1.703865e+01    5.991475e-02
  1.705452e+01    5.364241e-02
  1.707040e+01    5.600402e-02
  1.708627e+01    5.646364e-02
  1.710215e+01    6.089241e-02
  1.711802e+01    5.853767e-02
  1.713390e+01    6.543583e-02
  1.714978e+01    6.696114e-02
  1.716565e+01    6.643398e-02
  1.718153e+01    6.908003e-02
  1.719740e+01    6.376592e-02
  1.721328e+01    7.111066e-02
  1.722915e+01    8.249606e-02
  1.724503e+01    7.865767e-02
  1.726091e+01    7.581639e-02
  1.727678e+01    7.832348e-02
  1.729266e+01    7.990304e-02
  1.730853e+01    8.211620e-02
  1.732441e+01    8.661632e-02
  1.734028e+01    8.416351e-02
  1.735616e+01    9.963252e-02
  1.737203e+01    1.055701e-01
  1.738791e+01    1.091736e-01
  1.740379e+01    1.284266e-01
  1.741966e+01    1.462919e-01
  1.743554e+01    1.500344e-01
  1.745141e+01    1.792275e-01
  1.746729e+01    1.991029e-01
  1.748316e+01    2.558483e-01
  1.749904e+01    3.276018e-01
  1.751491e+01    3.794632e-01
  1.753079e+01    4.379570e-01
  1.754667e+01    4.980612e-01
  1.756254e+01    5.750107e-01
  1.757842e+01    6.539793e-01
  1.759429e+01    6.925327e-01
  1.761017e+01    7.530850e-01
  1.762604e+01    8.163596e-01
  1.764192e+01    8.782517e-01
  1.765779e+01    8.932351e-01
  1.767367e+01    8.222552e-01
  1.768955e+01    7.544202e-01
  1.770542e+01    6.328077e-01
  1.772130e+01    5.207831e-01
  1.773717e+01    4.412024e-01
  1.775305e+01    3.623196e-01
  1.776892e+01    3.082469e-01
  1.778480e+01    2.699153e-01
  1.780067e+01    2.257030e-01
  1.781655e+01    2.091580e-01
  1.783243e+01    1.800111e-01
  1.784830e+01    1.573233e-01
  1.786418e+01    1.359426e-01
  1.788005e+01    1.201679e-01
  1.789593e+01    1.200353e-01
  1.791180e+01    1.081994e-01
  1.792768e+01    1.004585e-01
  1.794355e+01    9.548726e-02
  1.795943e+01    9.446621e-02
  1.797531e+01    9.096026e-02
  1.799118e+01    8.667783e-02
  1.800706e+01    8.085411e-02
  1.802293e+01    8.403938e-02
  1.803881e+01    8.066569e-02
  1.805468e+01    7.848969e-02
  1.807056e+01    7.821904e-02
  1.808643e+01    7.942061e-02
  1.810231e+01    7.987110e-02
  1.811819e+01    7.407543e-02
  1.813406e+01    7.221109e-02
  1.814994e+01    7.332845e-02
  1.816581e+01    6.725577e-02
  1.818169e+01    6.235079e-02
  1.819756e+01    6.523529e-02
  1.821344e+01    6.689037e-02
  1.822932e+01    6.655022e-02
  1.824519e+01    6.082742e-02
  1.826107e+01    6.287459e-02
  1.827694e+01    5.975570e-02
  1.829282e+01    6.380810e-02
  1.830869e+01    6.563817e-02
  1.832457e+01    6.203308e-02
  1.834044e+01    5.945287e-02
  1.835632e+01    5.438073e-02
  1.837220e+01    5.527756e-02
  1.838807e+01    5.820359e-02
  1.840395e+01    5.221955e-02
  1.841982e+01    5.406973e-02
  1.843570e+01    5.551475e-02
  1.845157e+01    5.645991e-02
  1.846745e+01    5.714116e-02
  1.848332e+01    5.730211e-02
  1.849920e+01    5.931024e-02
  1.851508e+01    5.559914e-02
  1.853095e+01    5.969234e-02
  1.854683e+01    5.967099e-02
  1.856270e+01    5.399539e-02
  1.857858e+01    5.140966e-02
  1.859445e+01    5.479393e-02
  1.861033e+01    5.686412e-02
  1.862620e+01    5.319900e-02
  1.864208e+01    5.256073e-02
  1.865796e+01    4.955225e-02
  1.867383e+01    5.478134e-02
  1.868971e+01    5.551636e-02
  1.870558e+01    5.669149e-02
  1.872146e+01    5.436710e-02
  1.873733e+01    5.716837e-02
  1.875321e+01    5.008104e-02
  1.876908e+01    4.488530e-02
  1.878496e+01    4.552279e-02
  1.880084e+01    4.761159e-02
  1.881671e+01    5.365654e-02
  1.883259e+01    5.644329e-02
  1.884846e+01    5.364908e-02
  1.886434e+01    5.299188e-02
  1.888021e+01    5.258541e-02
  1.889609e+01    5.204635e-02
  1.891196e+01    4.769335e-02
  1.892784e+01    4.542752e-02
  1.894372e+01    4.532488e-02
  1.895959e+01    4.890950e-02
  1.897547e+01    4.437869e-02
  1.899134e+01    5.227851e-02
  1.900722e+01    5.289528e-02
  1.902309e+01    4.924839e-02
  1.903897e+01    4.809942e-02
  1.905484e+01    4.493663e-02
  1.907072e+01    4.999610e-02
  1.908660e+01    5.131872e-02
  1.910247e+01    4.849637e-02
  1.911835e+01    4.999564e-02
  1.913422e+01    4.859050e-02
  1.915010e+01    4.602074e-02
  1.916597e+01    4.511837e-02
  1.918185e+01    5.037307e-02
  1.919773e+01    4.921735e-02
  1.921360e+01    4.958259e-02
  1.922948e+01    4.879079e-02
  1.924535e+01    4.999619e-02
  1.926123e+01    4.660660e-02
  1.927710e+01    5.374075e-02
  1.929298e+01    5.623666e-02
  1.930885e+01    5.223625e-02
  1.932473e+01    4.880127e-02
  1.934061e+01    4.602294e-02
  1.935648e+01    4.598350e-02
  1.937236e+01    5.140045e-02
  1.938823e+01    5.446561e-02
  1.940411e+01    4.702957e-02
  1.941998e+01    4.959247e-02
  1.943586e+01    4.900188e-02
  1.945173e+01    5.115475e-02
  1.946761e+01    5.054921e-02
  1.948349e+01    5.275015e-02
  1.949936e+01    5.172626e-02
  1.951524e+01    4.870973e-02
  1.953111e+01    4.832292e-02
  1.954699e+01    4.789215e-02
  1.956286e+01    4.464208e-02
  1.957874e+01    5.198345e-02
  1.959461e+01    5.364877e-02
  1.961049e+01    4.887021e-02
  1.962637e+01    5.017281e-02
  1.964224e+01    5.502038e-02
  1.965812e+01    5.627398e-02
  1.967399e+01    5.004818e-02
  1.968987e+01    5.067072e-02
  1.970574e+01    5.081932e-02
  1.972162e+01    5.296054e-02
  1.973749e+01    4.963075e-02
  1.975337e+01    4.839095e-02
  1.976925e+01    4.725549e-02
  1.978512e+01    4.448396e-02
  1.980100e+01    5.178726e-02
  1.981687e+01    5.457253e-02
  1.983275e+01    5.499117e-02
  1.984862e+01    5.163397e-02
  1.986450e+01    5.196286e-02
  1.988037e+01    5.086021e-02
  1.989625e+01    4.678556e-02
  1.991213e+01    5.561319e-02
  1.992800e+01    5.681405e-02
  1.994388e+01    5.109011e-02
  1.995975e+01    5.017693e-02
  1.997563e+01    5.056886e-02
  1.999150e+01    4.778615e-02
  2.000738e+01    4.770461e-02
  2.002325e+01    5.003567e-02
  2.003913e+01    5.381345e-02
  2.005501e+01    5.203081e-02
  2.007088e+01    4.700721e-02
  2.008676e+01    4.420816e-02
  2.010263e+01    4.729056e-02
  2.011851e+01    5.210742e-02
  2.013438e+01    5.429960e-02
  2.015026e+01    5.272100e-02
  2.016614e+01    5.740936e-02
  2.018201e+01    5.488700e-02
  2.019789e+01    5.355209e-02
  2.021376e+01    5.309290e-02
  2.022964e+01    5.388412e-02
  2.024551e+01    5.221494e-02
  2.026139e+01    5.277383e-02
  2.027726e+01    6.053038e-02
  2.029314e+01    5.988895e-02
  2.030902e+01    5.894173e-02
  2.032489e+01    6.011141e-02
  2.034077e+01    6.255469e-02
  2.035664e+01    6.286791e-02
  2.037252e+01    5.892963e-02
  2.038839e+01    6.576255e-02
  2.040427e+01    6.445295e-02
  2.042014e+01    6.327786e-02
  2.043602e+01    6.165210e-02
  2.045190e+01    6.930667e-02
  2.046777e+01    8.053395e-02
  2.048365e+01    7.830291e-02
  2.049952e+01    7.178812e-02
  2.051540e+01    7.453881e-02
  2.053127e+01    8.166657e-02
  2.054715e+01    8.142880e-02
  2.056302e+01    9.015357e-02
  2.057890e+01    1.007414e-01
  2.059478e+01    1.112091e-01
  2.061065e+01    1.225025e-01
  2.062653e+01    1.434187e-01
  2.064240e+01    1.576760e-01
  2.065828e+01    1.855393e-01
  2.067415e+01    2.212345e-01
  2.069003e+01    2.552393e-01
  2.070590e+01    3.071446e-01
  2.072178e+01    3.477964e-01
  2.073766e+01    4.206637e-01
  2.075353e+01    4.465009e-01
  2.076941e+01    5.123574e-01
  2.078528e+01    5.759460e-01
  2.080116e+01    6.310261e-01
  2.081703e+01    7.128217e-01
  2.083291e+01    7.579929e-01
  2.084878e+01    7.580204e-01
  2.086466e+01    6.976432e-01
  2.088054e+01    6.429341e-01
  2.089641e+01    5.605459e-01
  2.091229e+01    4.601356e-01
  2.092816e+01    3.863078e-01
  2.094404e+01    3.249896e-01
  2.095991e+01    2.643340e-01
  2.097579e+01    2.499888e-01
  2.099166e+01    2.263630e-01
  2.100754e+01    1.894757e-01
  2.102342e+01    1.774636e-01
  2.103929e+01    1.544175e-01
  2.105517e+01    1.410764e-01
  2.107104e+01    1.357883e-01
  2.108692e+01    1.326277e-01
  2.110279e+01    1.290156e-01
  2.111867e+01    1.203322e-01
  2.113455e+01    1.096946e-01
  2.115042e+01    9.382176e-02
  2.116630e+01    9.225280e-02
  2.118217e+01    8.327573e-02
  2.119805e+01    8.138129e-02
  2.121392e+01    7.898027e-02
  2.122980e+01    8.100579e-02
  2.124567e+01    7.861668e-02
  2.126155e+01    7.833894e-02
  2.127743e+01    7.827842e-02
  2.129330e+01    7.238775e-02
  2.130918e+01    6.818818e-02
  2.132505e+01    6.599210e-02
  2.134093e+01    6.743044e-02
  2.135680e+01    6.283579e-02
  2.137268e+01    6.418081e-02
  2.138855e+01    7.401556e-02
  2.140443e+01    7.120388e-02
  2.142031e+01    6.917550e-02
  2.143618e+01    6.719863e-02
  2.145206e+01    6.405234e-02
  2.146793e+01    6.780396e-02
  2.148381e+01    6.748993e-02
  2.149968e+01    6.899423e-02
  2.151556e+01    6.736816e-02
  2.153143e+01    7.208259e-02
  2.154731e+01    6.376795e-02
  2.156319e+01    7.118613e-02
  2.157906e+01    7.138713e-02
  2.159494e+01    7.197811e-02
  2.161081e+01    7.318492e-02
  2.162669e+01    7.814086e-02
  2.164256e+01    8.588333e-02
  2.165844e+01    8.939570e-02
  2.167431e+01    9.785158e-02
  2.169019e+01    1.122505e-01
  2.170607e+01    1.231867e-01
  2.172194e+01    1.314802e-01
  2.173782e+01    1.425383e-01
  2.175369e+01    1.488466e-01
  2.176957e+01    1.575426e-01
  2.178544e+01    1.700651e-01
  2.180132e+01    1.918630e-01
  2.181719e+01    1.926711e-01
  2.183307e+01    1.805075e-01
  2.184895e+01    1.633831e-01
  2.186482e+01    1.577195e-01
  2.188070e+01    1.375234e-01
  2.189657e+01    1.263584e-01
  2.191245e+01    1.110223e-01
  2.192832e+01    9.505229e-02
  2.194420e+01    8.939449e-02
  2.196007e+01    8.584022e-02
  2.197595e+01    8.281198e-02
  2.199183e+01    7.732664e-02
  2.200770e+01    7.693366e-02
  2.202358e+01    6.701739e-02
  2.203945e+01    6.391852e-02
  2.205533e+01    5.987324e-02
  2.207120e+01    6.263477e-02
  2.208708e+01    6.320171e-02
  2.210296e+01    5.973899e-02
  2.211883e+01    5.475828e-02
  2.213471e+01    5.552083e-02
  2.215058e+01    5.499610e-02
  2.216646e+01    5.655804e-02
  2.218233e+01    5.073550e-02
  2.219821e+01    5.011056e-02
  2.221408e+01    5.350773e-02
  2.222996e+01    5.595467e-02
  2.224584e+01    5.421912e-02
  2.226171e+01    5.260270e-02
  2.227759e+01    5.117267e-02
  2.229346e+01    5.167535e-02
  2.230934e+01    5.194571e-02
  2.232521e+01    5.222040e-02
  2.234109e+01    4.775263e-02
  2.235696e+01    4.958120e-02
  2.237284e+01    4.894932e-02
  2.238872e+01    4.334622e-02
  2.240459e+01    4.891371e-02
  2.242047e+01    4.523277e-02
  2.243634e+01    4.446070e-02
  2.245222e+01    5.126964e-02
  2.246809e+01    4.946295e-02
  2.248397e+01    4.875558e-02
  2.249984e+01    4.973420e-02
  2.251572e+01    4.749225e-02
  2.253160e+01    4.506843e-02
  2.254747e+01    5.169990e-02
  2.256335e+01    5.227115e-02
  2.257922e+01    5.334230e-02
  2.259510e+01    4.913160e-02
  2.261097e+01    4.965894e-02
  2.262685e+01    4.719628e-02
  2.264272e+01    5.013172e-02
  2.265860e+01    4.940296e-02
  2.267448e+01    4.795821e-02
  2.269035e+01    5.016961e-02
  2.270623e+01    4.476436e-02
  2.272210e+01    4.688308e-02
  2.273798e+01    5.232242e-02
  2.275385e+01    5.201535e-02
  2.276973e+01    4.587640e-02
  2.278560e+01    4.939216e-02
  2.280148e+01    5.394794e-02
  2.281736e+01    4.808838e-02
  2.283323e+01    4.914186e-02
  2.284911e+01    4.763403e-02
  2.286498e+01    4.437326e-02
  2.288086e+01    5.001476e-02
  2.289673e+01    4.696526e-02
  2.291261e+01    4.922820e-02
  2.292848e+01    4.755348e-02
  2.294436e+01    4.799944e-02
  2.296024e+01    4.812878e-02
  2.297611e+01    4.334758e-02
  2.299199e+01    4.557925e-02
  2.300786e+01    4.604498e-02
  2.302374e+01    4.806238e-02
  2.303961e+01    4.929473e-02
  2.305549e+01    4.910252e-02
  2.307137e+01    4.806995e-02
  2.308724e+01    4.615581e-02
  2.310312e+01    4.727139e-02
  2.311899e+01    4.569773e-02
  2.313487e+01    3.905844e-02
  2.315074e+01    3.855243e-02
  2.316662e+01    4.393675e-02
  2.318249e+01    4.600644e-02
  2.319837e+01    4.318909e-02
  2.321425e+01    4.718531e-02
  2.323012e+01    4.824308e-02
  2.324600e+01    4.909179e-02
  2.326187e+01    4.675014e-02
  2.327775e+01    4.361735e-02
  2.329362e+01    4.048335e-02
  2.330950e+01    4.239067e-02
  2.332537e+01    4.408705e-02
  2.334125e+01    4.300775e-02
  2.335713e+01    4.283739e-02
  2.337300e+01    4.401898e-02
  2.338888e+01    4.422658e-02
  2.340475e+01    4.810083e-02
  2.342063e+01    4.374136e-02
  2.343650e+01    3.912362e-02
  2.345238e+01    4.276961e-02
  2.346825e+01    4.074382e-02
  2.348413e+01    4.519024e-02
  2.350001e+01    4.238032e-02
  2.351588e+01    4.089954e-02
  2.353176e+01    4.814318e-02
  2.354763e+01    4.561806e-02
  2.356351e+01    4.450980e-02
  2.357938e+01    4.147397e-02
  2.359526e+01    4.520212e-02
  2.361113e+01    4.667799e-02
  2.362701e+01    4.299666e-02
  2.364289e+01    3.975108e-02
  2.365876e+01    3.982504e-02
  2.367464e+01    3.775576e-02
  2.369051e+01    4.521468e-02
  2.370639e+01    4.102706e-02
  2.372226e+01    3.953112e-02
  2.373814e+01    4.481750e-02
  2.375401e+01    4.490528e-02
  2.376989e+01    4.212948e-02
  2.378577e+01    4.168756e-02
  2.380164e+01    4.599639e-02
  2.381752e+01    4.220927e-02
  2.383339e+01    4.151750e-02
  2.384927e+01    4.104177e-02
  2.386514e+01    4.179673e-02
  2.388102e+01    4.484023e-02
  2.389689e+01    4.377817e-02
  2.391277e+01    4.191737e-02
  2.392865e+01    4.116393e-02
  2.394452e+01    4.001527e-02
  2.396040e+01    4.152571e-02
  2.397627e+01    3.985223e-02
  2.399215e+01    4.480944e-02
  2.400802e+01    4.462786e-02
  2.402390e+01    4.030089e-02
  2.403978e+01    3.964233e-02
  2.405565e+01    4.072177e-02
  2.407153e+01    4.028350e-02
  2.408740e+01    4.615183e-02
  2.410328e+01    4.204535e-02
  2.411915e+01    4.727239e-02
  2.413503e+01    4.870142e-02
  2.415090e+01    4.196658e-02
  2.416678e+01    4.308596e-02
  2.418266e+01    4.510112e-02
  2.419853e+01    4.454817e-02
  2.421441e+01    4.410634e-02
  2.423028e+01    4.815770e-02
  2.424616e+01    4.705480e-02
  2.426203e+01    5.114836e-02
  2.427791e+01    5.922582e-02
  2.429378e+01    6.125538e-02
  2.430966e+01    6.014934e-02
  2.432554e+01    5.467400e-02
  2.434141e+01    5.439189e-02
  2.435729e+01    5.114970e-02
  2.437316e+01    5.155572e-02
  2.438904e+01    5.716872e-02
  2.440491e+01    5.273158e-02
  2.442079e+01    5.419337e-02
  2.443666e+01    5.003659e-02
  2.445254e+01    5.090245e-02
  2.446842e+01    4.785144e-02
  2.448429e+01    4.720759e-02
  2.450017e+01    4.279321e-02
  2.451604e+01    4.069374e-02
  2.453192e+01    4.669699e-02
  2.454779e+01    4.399937e-02
  2.456367e+01    4.089494e-02
  2.457954e+01    4.413246e-02
  2.459542e+01    4.166004e-02
  2.461130e+01    3.960647e-02
  2.462717e+01    4.067334e-02
  2.464305e+01    4.296431e-02
  2.465892e+01    4.726866e-02
  2.467480e+01    4.555800e-02
  2.469067e+01    4.446328e-02
  2.470655e+01    4.470155e-02
  2.472242e+01    4.421942e-02
  2.473830e+01    4.384640e-02
  2.475418e+01    4.356410e-02
  2.477005e+01    4.334101e-02
  2.478593e+01    4.382638e-02
  2.480180e+01    4.202915e-02
  2.481768e+01    4.220978e-02
  2.483355e+01    4.361427e-02
  2.484943e+01    4.342001e-02
  2.486530e+01    4.880486e-02
  2.488118e+01    4.192166e-02
  2.489706e+01    4.107470e-02
  2.491293e+01    4.133965e-02
  2.492881e+01    4.768538e-02
  2.494468e+01    4.931570e-02
  2.496056e+01    4.588911e-02
  2.497643e+01    4.141582e-02
  2.499231e+01    4.683698e-02
  2.500819e+01    5.188740e-02
  2.502406e+01    4.719710e-02
  2.503994e+01    4.795258e-02
  2.505581e+01    5.079342e-02
  2.507169e+01    5.266081e-02
  2.508756e+01    5.169148e-02
  2.510344e+01    4.994802e-02
  2.511931e+01    4.908895e-02
  2.513519e+01    5.003283e-02
  2.515107e+01    5.073398e-02
  2.516694e+01    4.937812e-02
  2.518282e+01    5.791131e-02
  2.519869e+01    5.699912e-02
  2.521457e+01    6.084824e-02
  2.523044e+01    6.263895e-02
  2.524632e+01    6.410293e-02
  2.526219e+01    7.174122e-02
  2.527807e+01    7.329264e-02
  2.529395e+01    8.943034e-02
  2.530982e+01    9.572873e-02
  2.532570e+01    1.003713e-01
  2.534157e+01    1.177352e-01
  2.535745e+01    1.260766e-01
  2.537332e+01    1.309833e-01
  2.538920e+01    1.444433e-01
  2.540507e+01    1.532381e-01
  2.542095e+01    1.617483e-01
  2.543683e+01    1.689221e-01
  2.545270e+01    1.627396e-01
  2.546858e+01    1.548434e-01
  2.548445e+01    1.448967e-01
  2.550033e+01    1.259543e-01
  2.551620e+01    1.062169e-01
  2.553208e+01    9.982127e-02
  2.554795e+01    9.201875e-02
  2.556383e+01    8.445872e-02
  2.557971e+01    7.562134e-02
  2.559558e+01    7.015723e-02
  2.561146e+01    7.407501e-02
  2.562733e+01    6.632552e-02
  2.564321e+01    5.828022e-02
  2.565908e+01    5.861978e-02
  2.567496e+01    5.533305e-02
  2.569083e+01    5.618732e-02
  2.570671e+01    5.769159e-02
  2.572259e+01    5.707933e-02
  2.573846e+01    5.212113e-02
  2.575434e+01    4.891501e-02
  2.577021e+01    5.025620e-02
  2.578609e+01    4.606443e-02
  2.580196e+01    4.858560e-02
  2.581784e+01    5.641335e-02
  2.583371e+01    4.960743e-02
  2.584959e+01    5.006064e-02
  2.586547e+01    4.960785e-02
  2.588134e+01    4.578743e-02
  2.589722e+01    4.952236e-02
  2.591309e+01    4.684618e-02
  2.592897e+01    4.463405e-02
  2.594484e+01    4.625248e-02
  2.596072e+01    4.826767e-02
  2.597660e+01    4.913691e-02
  2.599247e+01    4.695480e-02
  2.600835e+01    4.364701e-02
  2.602422e+01    4.440457e-02
  2.604010e+01    4.840977e-02
  2.605597e+01    5.056220e-02
  2.607185e+01    4.867122e-02
  2.608772e+01    5.147114e-02
  2.610360e+01    4.983509e-02
  2.611948e+01    4.421708e-02
  2.613535e+01    4.510698e-02
  2.615123e+01    4.967960e-02
  2.616710e+01    4.767877e-02
  2.618298e+01    4.520333e-02
  2.619885e+01    4.609645e-02
  2.621473e+01    5.253379e-02
  2.623060e+01    4.277280e-02
  2.624648e+01    4.381412e-02
  2.626236e+01    4.560272e-02
  2.627823e+01    4.084814e-02
  2.629411e+01    4.455449e-02
  2.630998e+01    4.829498e-02
  2.632586e+01    4.904145e-02
  2.634173e+01    4.422155e-02
  2.635761e+01    4.564404e-02
  2.637348e+01    4.952850e-02
  2.638936e+01    5.002295e-02
  2.640524e+01    5.032779e-02
  2.642111e+01    4.597468e-02
  2.643699e+01    4.922840e-02
  2.645286e+01    4.480939e-02
  2.646874e+01    3.921746e-02
  2.648461e+01    4.060865e-02
  2.650049e+01    4.121091e-02
  2.651636e+01    4.420523e-02
  2.653224e+01    3.998318e-02
  2.654812e+01    4.507710e-02
  2.656399e+01    4.541209e-02
  2.657987e+01    4.527147e-02
  2.659574e+01    4.267129e-02
  2.661162e+01    4.348924e-02
  2.662749e+01    4.533668e-02
  2.664337e+01    4.148147e-02
  2.665924e+01    4.222616e-02
  2.667512e+01    4.331492e-02
  2.669100e+01    4.585667e-02
  2.670687e+01    3.862245e-02
  2.672275e+01    4.370478e-02
  2.673862e+01    4.098999e-02
  2.675450e+01    4.164283e-02
  2.677037e+01    4.243757e-02
  2.678625e+01    4.705551e-02
  2.680212e+01    4.529175e-02
  2.681800e+01    4.438502e-02
  2.683388e+01    4.136192e-02
  2.684975e+01    4.551167e-02
  2.686563e+01    4.353993e-02
  2.688150e+01    4.602775e-02
  2.689738e+01    5.123709e-02
  2.691325e+01    5.377284e-02
  2.692913e+01    4.767380e-02
  2.694501e+01    4.550496e-02
  2.696088e+01    4.502760e-02
  2.697676e+01    4.268881e-02
  2.699263e+01    4.573350e-02
  2.700851e+01    4.556321e-02
  2.702438e+01    4.680933e-02
  2.704026e+01    5.154929e-02
  2.705613e+01    4.702350e-02
  2.707201e+01    4.665297e-02
  2.708789e+01    4.683822e-02
  2.710376e+01    4.879877e-02
  2.711964e+01    4.617174e-02
  2.713551e+01    4.559898e-02
  2.715139e+01    4.269361e-02
  2.716726e+01    4.526365e-02
  2.718314e+01    4.376758e-02
  2.719901e+01    4.325761e-02
  2.721489e+01    4.123466e-02
  2.723077e+01    4.870077e-02
  2.724664e+01    4.936823e-02
  2.726252e+01    5.081265e-02
  2.727839e+01    4.952524e-02
  2.729427e+01    4.829783e-02
  2.731014e+01    4.894109e-02
  2.732602e+01    4.719787e-02
  2.734189e+01    4.467729e-02
  2.735777e+01    4.692140e-02
  2.737365e+01    5.245724e-02
  2.738952e+01    4.931572e-02
  2.740540e+01    4.780700e-02
  2.742127e+01    4.903506e-02
  2.743715e+01    4.872404e-02
  2.745302e+01    5.363294e-02
  2.746890e+01    5.549365e-02
  2.748477e+01    5.322440e-02
  2.750065e+01    5.573525e-02
  2.751653e+01    5.545019e-02
  2.753240e+01    5.402919e-02
  2.754828e+01    5.692469e-02
  2.756415e+01    5.622400e-02
  2.758003e+01    5.191887e-02
  2.759590e+01    5.632755e-02
  2.761178e+01    6.068855e-02
  2.762765e+01    5.454713e-02
  2.764353e+01    6.337248e-02
  2.765941e+01    6.374952e-02
  2.767528e+01    6.488024e-02
  2.769116e+01    7.217570e-02
  2.770703e+01    7.774274e-02
  2.772291e+01    8.589316e-02
  2.773878e+01    9.040924e-02
  2.775466e+01    9.452616e-02
  2.777054e+01    1.116244e-01
  2.778641e+01    1.289404e-01
  2.780229e+01    1.363582e-01
  2.781816e+01    1.718384e-01
  2.783404e+01    1.982111e-01
  2.784991e+01    2.202762e-01
  2.786579e+01    2.488446e-01
  2.788166e+01    2.775151e-01
  2.789754e+01    3.084427e-01
  2.791342e+01    3.378499e-01
  2.792929e+01    3.300873e-01
  2.794517e+01    3.315482e-01
  2.796104e+01    3.122716e-01
  2.797692e+01    2.760391e-01
  2.799279e+01    2.404719e-01
  2.800867e+01    2.187597e-01
  2.802454e+01    1.919679e-01
  2.804042e+01    1.669916e-01
  2.805630e+01    1.456880e-01
  2.807217e+01    1.292458e-01
  2.808805e+01    1.191011e-01
  2.810392e+01    1.256170e-01
  2.811980e+01    1.104598e-01
  2.813567e+01    1.035789e-01
  2.815155e+01    9.129301e-02
  2.816742e+01    8.054081e-02
  2.818330e+01    8.253457e-02
  2.819918e+01    8.518934e-02
  2.821505e+01    7.896078e-02
  2.823093e+01    7.362586e-02
  2.824680e+01    7.422963e-02
  2.826268e+01    7.127786e-02
  2.827855e+01    6.627399e-02
  2.829443e+01    6.711172e-02
  2.831030e+01    6.928129e-02
  2.832618e+01    6.635942e-02
  2.834206e+01    6.237910e-02
  2.835793e+01    6.384276e-02
  2.837381e+01    6.297746e-02
  2.838968e+01    6.960157e-02
  2.840556e+01    6.634635e-02
  2.842143e+01    6.473825e-02
  2.843731e+01    6.445677e-02
  2.845318e+01    7.576276e-02
  2.846906e+01    7.278336e-02
  2.848494e+01    7.665095e-02
  2.850081e+01    7.151891e-02
  2.851669e+01    8.090167e-02
  2.853256e+01    8.842705e-02
  2.854844e+01    9.385557e-02
  2.856431e+01    9.406814e-02
  2.858019e+01    9.872860e-02
  2.859606e+01    1.135084e-01
  2.861194e+01    1.322181e-01
  2.862782e+01    1.372219e-01
  2.864369e+01    1.644963e-01
  2.865957e+01    1.824445e-01
  2.867544e+01    2.093966e-01
  2.869132e+01    2.263626e-01
  2.870719e+01    2.383367e-01
  2.872307e+01    2.395363e-01
  2.873895e+01    2.400308e-01
  2.875482e+01    2.417846e-01
  2.877070e+01    2.115377e-01
  2.878657e+01    1.866802e-01
  2.880245e+01    1.754792e-01
  2.881832e+01    1.649897e-01
  2.883420e+01    1.363390e-01
  2.885007e+01    1.236810e-01
  2.886595e+01    1.034852e-01
  2.888183e+01    9.879094e-02
  2.889770e+01    9.436725e-02
  2.891358e+01    9.693485e-02
  2.892945e+01    9.290740e-02
  2.894533e+01    8.026375e-02
  2.896120e+01    7.762883e-02
  2.897708e+01    7.535644e-02
  2.899295e+01    7.632948e-02
  2.900883e+01    7.050851e-02
  2.902471e+01    6.395244e-02
  2.904058e+01    6.448357e-02
  2.905646e+01    6.410111e-02
  2.907233e+01    5.775548e-02
  2.908821e+01    6.380356e-02
  2.910408e+01    6.223616e-02
  2.911996e+01    5.960198e-02
  2.913583e+01    5.923443e-02
  2.915171e+01    5.917381e-02
  2.916759e+01    6.545066e-02
  2.918346e+01    5.724362e-02
  2.919934e+01    5.935985e-02
  2.921521e+01    5.779389e-02
  2.923109e+01    5.987271e-02
  2.924696e+01    5.897107e-02
  2.926284e+01    5.725261e-02
  2.927871e+01    5.477653e-02
  2.929459e+01    5.194567e-02
  2.931047e+01    5.583864e-02
  2.932634e+01    5.241336e-02
  2.934222e+01    5.223504e-02
  2.935809e+01    4.879417e-02
  2.937397e+01    5.714180e-02
  2.938984e+01    5.434014e-02
  2.940572e+01    5.020002e-02
  2.942159e+01    4.914477e-02
  2.943747e+01    4.870731e-02
  2.945335e+01    4.699002e-02
  2.946922e+01    4.782657e-02
  2.948510e+01    4.728243e-02
  2.950097e+01    5.529424e-02
  2.951685e+01    5.283783e-02
  2.953272e+01    5.220038e-02
  2.954860e+01    5.149653e-02
  2.956447e+01    5.648072e-02
  2.958035e+01    4.962778e-02
  2.959623e+01    4.473533e-02
  2.961210e+01    4.702630e-02
  2.962798e+01    5.164116e-02
  2.964385e+01    5.540703e-02
  2.965973e+01    5.620028e-02
  2.967560e+01    4.996815e-02
  2.969148e+01    4.992419e-02
  2.970736e+01    4.646583e-02
  2.972323e+01    4.549564e-02
  2.973911e+01    4.905564e-02
  2.975498e+01    5.017746e-02
  2.977086e+01    5.144988e-02
  2.978673e+01    4.594537e-02
  2.980261e+01    4.461653e-02
  2.981848e+01    4.768417e-02
  2.983436e+01    5.151345e-02
  2.985024e+01    4.861089e-02
  2.986611e+01    4.164330e-02
  2.988199e+01    5.167309e-02
  2.989786e+01    5.044442e-02
  2.991374e+01    4.960223e-02
  2.992961e+01    5.055279e-02
  2.994549e+01    5.255436e-02
  2.996136e+01    4.811302e-02
  2.997724e+01    5.212030e-02
  2.999312e+01    5.099510e-02
  3.000899e+01    4.769507e-02
  3.002487e+01    4.667911e-02
  3.004074e+01    5.303007e-02
  3.005662e+01    5.000723e-02
  3.007249e+01    4.858699e-02
  3.008837e+01    5.160141e-02
  3.010424e+01    5.187981e-02
  3.012012e+01    4.693073e-02
  3.013600e+01    4.628945e-02
  3.015187e+01    4.896370e-02
  3.016775e+01    4.572566e-02
  3.018362e+01    4.452476e-02
  3.019950e+01    4.346341e-02
  3.021537e+01    4.743619e-02
  3.023125e+01    4.463480e-02
  3.024712e+01    4.228682e-02
  3.026300e+01    4.398741e-02
  3.027888e+01    4.552506e-02
  3.029475e+01    5.172956e-02
  3.031063e+01    5.431568e-02
  3.032650e+01    4.739035e-02
  3.034238e+01    4.587945e-02
  3.035825e+01    4.563398e-02
  3.037413e+01    4.188320e-02
  3.039000e+01    4.235410e-02
  3.040588e+01    4.360669e-02
  3.042176e+01    4.874821e-02
  3.043763e+01    4.805502e-02
  3.045351e+01    4.323716e-02
  3.046938e+01    4.500330e-02
  3.048526e+01    4.358720e-02
  3.050113e+01    4.120100e-02
  3.051701e+01    4.655374e-02
  3.053288e+01    4.682818e-02
  3.054876e+01    4.031092e-02
  3.056464e+01    4.244736e-02
  3.058051e+01    4.079780e-02
  3.059639e+01    4.366271e-02
  3.061226e+01    4.887082e-02
  3.062814e+01    5.196475e-02
  3.064401e+01    5.263504e-02
  3.065989e+01    4.553567e-02
  3.067577e+01    4.114127e-02
  3.069164e+01    4.992907e-02
  3.070752e+01    4.928768e-02
  3.072339e+01    4.908254e-02
  3.073927e+01    4.857703e-02
  3.075514e+01    4.458504e-02
  3.077102e+01    5.025153e-02
  3.078689e+01    5.020881e-02
  3.080277e+01    5.122414e-02
  3.081865e+01    4.510077e-02
  3.083452e+01    4.254679e-02
  3.085040e+01    3.987459e-02
  3.086627e+01    4.336270e-02
  3.088215e+01    4.434552e-02
  3.089802e+01    4.792319e-02
  3.091390e+01    4.823953e-02
  3.092977e+01    5.033368e-02
  3.094565e+01    4.525395e-02
  3.096153e+01    4.571778e-02
  3.097740e+01    4.850922e-02
  3.099328e+01    4.484116e-02
  3.100915e+01    4.499593e-02
  3.102503e+01    4.834774e-02
  3.104090e+01    5.437253e-02
  3.105678e+01    4.905480e-02
  3.107265e+01    4.687833e-02
  3.108853e+01    4.308176e-02
  3.110441e+01    4.847735e-02
  3.112028e+01    4.760876e-02
  3.113616e+01    4.409536e-02
  3.115203e+01    4.701237e-02
  3.116791e+01    5.091655e-02
  3.118378e+01    4.850819e-02
  3.119966e+01    5.015737e-02
  3.121553e+01    4.932464e-02
  3.123141e+01    4.854544e-02
  3.124729e+01    4.959719e-02
  3.126316e+01    5.178406e-02
  3.127904e+01    4.949209e-02
  3.129491e+01    4.542207e-02
  3.131079e+01    5.486603e-02
  3.132666e+01    5.376142e-02
  3.134254e+01    4.926956e-02
  3.135841e+01    5.086137e-02
  3.137429e+01    5.267802e-02
  3.139017e+01    5.660682e-02
  3.140604e+01    5.328359e-02
  3.142192e+01    5.420653e-02
  3.143779e+01    5.753819e-02
  3.145367e+01    6.530473e-02
  3.146954e+01    5.820594e-02
  3.148542e+01    6.444965e-02
  3.150129e+01    6.569126e-02
  3.151717e+01    5.836610e-02
  3.153305e+01    6.804807e-02
  3.154892e+01    7.287775e-02
  3.156480e+01    7.534151e-02
  3.158067e+01    7.934853e-02
  3.159655e+01    8.509358e-02
  3.161242e+01    9.551785e-02
  3.162830e+01    1.022007e-01
  3.164418e+01    1.153025e-01
  3.166005e+01    1.377593e-01
  3.167593e+01    1.588238e-01
  3.169180e+01    1.834740e-01
  3.170768e+01    2.070040e-01
  3.172355e+01    2.411360e-01
  3.173943e+01    2.690748e-01
  3.175530e+01    2.831537e-01
  3.177118e+01    2.972148e-01
  3.178706e+01    2.948606e-01
  3.180293e+01    2.733032e-01
  3.181881e+01    2.667843e-01
  3.183468e+01    2.434268e-01
  3.185056e+01    2.184071e-01
  3.186643e+01    1.968475e-01
  3.188231e+01    1.667444e-01
  3.189818e+01    1.483908e-01
  3.191406e+01    1.353071e-01
  3.192994e+01    1.300292e-01
  3.194581e+01    1.206631e-01
  3.196169e+01    1.074452e-01
  3.197756e+01    9.670568e-02
  3.199344e+01    9.005816e-02
  3.200931e+01    9.307004e-02
  3.202519e+01    8.506991e-02
  3.204106e+01    7.922833e-02
  3.205694e+01    7.189566e-02
  3.207282e+01    7.176012e-02
  3.208869e+01    6.999169e-02
  3.210457e+01    6.796335e-02
  3.212044e+01    6.888440e-02
  3.213632e+01    6.820018e-02
  3.215219e+01    6.702353e-02
  3.216807e+01    6.240196e-02
  3.218394e+01    6.194003e-02
  3.219982e+01    6.463941e-02
  3.221570e+01    6.453593e-02
  3.223157e+01    6.347536e-02
  3.224745e+01    6.188213e-02
  3.226332e+01    5.139125e-02
  3.227920e+01    6.088502e-02
  3.229507e+01    5.470036e-02
  3.231095e+01    5.516134e-02
  3.232682e+01    5.430870e-02
  3.234270e+01    5.695019e-02
  3.235858e+01    6.030913e-02
  3.237445e+01    5.685716e-02
  3.239033e+01    5.275442e-02
  3.240620e+01    5.360970e-02
  3.242208e+01    5.274473e-02
  3.243795e+01    5.083337e-02
  3.245383e+01    5.589740e-02
  3.246970e+01    5.996512e-02
  3.248558e+01    6.547581e-02
  3.250146e+01    6.016837e-02
  3.251733e+01    5.441150e-02
  3.253321e+01    6.070028e-02
  3.254908e+01    5.752392e-02
