# == pyFAI calibration ==
# Distance Sample to Detector: 0.3999999939076516 m
# PONI: 9.750e-02, 1.135e-01 m
# Rotations: -0.000175 0.000000 -0.000000 rad
# 
# == Fit2d calibration ==
# Distance Sample-beamCenter: 400.000 mm
# Center: x=1514.000, y=1300.000 pix
# Tilt: 0.010 deg  TiltPlanRot: 0.010 deg
# 
# Detector Detector	 Spline= None	 PixelSize= 7.500e-05, 7.500e-05 m
#    Detector has a mask: False 
#    Detector has a dark current: False 
#    detector has a flat field: False 
# 
# Wavelength: 6.888e-11 m
# Mask applied: user provided
# Dark current applied: False
# Flat field applied: False
# Polarization factor: 0.99
# Normalization factor: 1.0
# --> /home/myspot/data/2024_07_Rosario/Ru-CGO-ex/2024-07-27_002_Ru-CGO-ex_Activtation_ramp_000002_data_000066.dat
#       q_nm^-1             I 
  2.003187e-02    0.000000e+00
  3.590745e-02    0.000000e+00
  5.178302e-02    0.000000e+00
  6.765859e-02    8.657758e-02
  8.353417e-02    1.227446e-01
  9.940974e-02    3.235453e-03
  1.152853e-01    1.041437e-02
  1.311609e-01    7.750241e-02
  1.470365e-01    7.536899e-02
  1.629120e-01    5.351290e-02
  1.787876e-01    1.622376e-02
  1.946632e-01    3.698763e-02
  2.105388e-01    5.526700e-02
  2.264143e-01    2.509311e-02
  2.422899e-01    1.652800e-02
  2.581655e-01    3.254377e-02
  2.740411e-01    5.519760e-02
  2.899166e-01    4.279222e-02
  3.057922e-01    7.836645e-02
  3.216678e-01    6.276082e-02
  3.375433e-01    5.195311e-02
  3.534189e-01    3.546965e-02
  3.692945e-01    1.302607e-02
  3.851701e-01    8.860051e-03
  4.010456e-01    3.682366e-02
  4.169212e-01    3.652760e-02
  4.327968e-01    4.043940e-02
  4.486724e-01    5.594163e-02
  4.645479e-01    2.579409e-02
  4.804235e-01    1.990276e-02
  4.962991e-01    5.241803e-02
  5.121747e-01    3.445445e-02
  5.280502e-01    3.228261e-02
  5.439258e-01    3.702822e-02
  5.598014e-01    2.409938e-02
  5.756770e-01    3.432313e-02
  5.915525e-01    2.922090e-02
  6.074281e-01    1.905411e-02
  6.233037e-01    1.964587e-02
  6.391793e-01    2.138515e-02
  6.550548e-01    2.894206e-02
  6.709304e-01    3.849349e-02
  6.868060e-01    4.002957e-02
  7.026815e-01    6.857512e-02
  7.185571e-01    3.761176e-02
  7.344327e-01    1.689099e-02
  7.503083e-01    2.909783e-02
  7.661838e-01    6.283031e-02
  7.820594e-01    7.882540e-02
  7.979350e-01    1.270688e-01
  8.138106e-01    1.649315e-01
  8.296861e-01    2.318743e-01
  8.455617e-01    3.068731e-01
  8.614373e-01    3.406239e-01
  8.773129e-01    4.183668e-01
  8.931884e-01    4.742230e-01
  9.090640e-01    5.395679e-01
  9.249396e-01    6.215636e-01
  9.408152e-01    7.213378e-01
  9.566907e-01    8.121540e-01
  9.725663e-01    8.991625e-01
  9.884419e-01    1.029179e+00
  1.004317e+00    1.037952e+00
  1.020193e+00    1.096091e+00
  1.036069e+00    1.186727e+00
  1.051944e+00    1.155638e+00
  1.067820e+00    1.233409e+00
  1.083695e+00    1.377641e+00
  1.099571e+00    1.433665e+00
  1.115446e+00    1.403194e+00
  1.131322e+00    1.411739e+00
  1.147198e+00    1.476563e+00
  1.163073e+00    1.594312e+00
  1.178949e+00    1.557295e+00
  1.194824e+00    1.709067e+00
  1.210700e+00    1.920432e+00
  1.226575e+00    2.167956e+00
  1.242451e+00    2.188299e+00
  1.258327e+00    2.277751e+00
  1.274202e+00    2.434275e+00
  1.290078e+00    2.408263e+00
  1.305953e+00    2.406497e+00
  1.321829e+00    2.404818e+00
  1.337705e+00    2.561942e+00
  1.353580e+00    2.683000e+00
  1.369456e+00    2.739427e+00
  1.385331e+00    2.651470e+00
  1.401207e+00    2.685677e+00
  1.417082e+00    2.682304e+00
  1.432958e+00    2.765687e+00
  1.448834e+00    2.828091e+00
  1.464709e+00    2.813073e+00
  1.480585e+00    2.856473e+00
  1.496460e+00    2.956601e+00
  1.512336e+00    2.915744e+00
  1.528211e+00    2.974628e+00
  1.544087e+00    2.935389e+00
  1.559963e+00    2.902064e+00
  1.575838e+00    3.002524e+00
  1.591714e+00    2.888065e+00
  1.607589e+00    2.913899e+00
  1.623465e+00    2.908043e+00
  1.639340e+00    2.982728e+00
  1.655216e+00    2.848040e+00
  1.671092e+00    2.860281e+00
  1.686967e+00    2.873093e+00
  1.702843e+00    2.939595e+00
  1.718718e+00    2.819639e+00
  1.734594e+00    2.795811e+00
  1.750469e+00    2.817425e+00
  1.766345e+00    2.850380e+00
  1.782221e+00    2.884422e+00
  1.798096e+00    2.946294e+00
  1.813972e+00    2.903418e+00
  1.829847e+00    2.881673e+00
  1.845723e+00    2.847413e+00
  1.861598e+00    2.950227e+00
  1.877474e+00    2.797817e+00
  1.893350e+00    2.703052e+00
  1.909225e+00    2.858428e+00
  1.925101e+00    2.885472e+00
  1.940976e+00    2.805650e+00
  1.956852e+00    2.815188e+00
  1.972727e+00    2.753014e+00
  1.988603e+00    2.732931e+00
  2.004479e+00    2.734236e+00
  2.020354e+00    2.778361e+00
  2.036230e+00    2.872163e+00
  2.052105e+00    2.815496e+00
  2.067981e+00    2.692431e+00
  2.083856e+00    2.708310e+00
  2.099732e+00    2.788429e+00
  2.115608e+00    2.773959e+00
  2.131483e+00    2.683712e+00
  2.147359e+00    2.733610e+00
  2.163234e+00    2.809975e+00
  2.179110e+00    2.727951e+00
  2.194985e+00    2.686575e+00
  2.210861e+00    2.746454e+00
  2.226737e+00    2.752847e+00
  2.242612e+00    2.702851e+00
  2.258488e+00    2.704870e+00
  2.274363e+00    2.712357e+00
  2.290239e+00    2.645070e+00
  2.306115e+00    2.622179e+00
  2.321990e+00    2.560057e+00
  2.337866e+00    2.667028e+00
  2.353741e+00    2.787127e+00
  2.369617e+00    2.840686e+00
  2.385492e+00    2.708261e+00
  2.401368e+00    2.681231e+00
  2.417244e+00    2.771724e+00
  2.433119e+00    2.887779e+00
  2.448995e+00    2.848596e+00
  2.464870e+00    2.794068e+00
  2.480746e+00    2.743084e+00
  2.496621e+00    2.734136e+00
  2.512497e+00    2.740055e+00
  2.528373e+00    2.765811e+00
  2.544248e+00    2.851309e+00
  2.560124e+00    2.784873e+00
  2.575999e+00    2.790983e+00
  2.591875e+00    2.797217e+00
  2.607750e+00    2.793551e+00
  2.623626e+00    2.833823e+00
  2.639502e+00    2.835678e+00
  2.655377e+00    2.824679e+00
  2.671253e+00    2.752289e+00
  2.687128e+00    2.776654e+00
  2.703004e+00    2.770607e+00
  2.718879e+00    2.745109e+00
  2.734755e+00    2.841916e+00
  2.750631e+00    2.907934e+00
  2.766506e+00    2.803182e+00
  2.782382e+00    2.896086e+00
  2.798257e+00    2.856297e+00
  2.814133e+00    2.713774e+00
  2.830008e+00    2.706999e+00
  2.845884e+00    2.851333e+00
  2.861760e+00    2.900809e+00
  2.877635e+00    2.829939e+00
  2.893511e+00    2.874912e+00
  2.909386e+00    2.800929e+00
  2.925262e+00    2.870237e+00
  2.941137e+00    2.922805e+00
  2.957013e+00    2.834702e+00
  2.972889e+00    2.817860e+00
  2.988764e+00    2.858485e+00
  3.004640e+00    2.929877e+00
  3.020515e+00    2.903018e+00
  3.036391e+00    2.951296e+00
  3.052266e+00    2.848931e+00
  3.068142e+00    2.869459e+00
  3.084018e+00    2.890930e+00
  3.099893e+00    2.868278e+00
  3.115769e+00    2.837547e+00
  3.131644e+00    2.815259e+00
  3.147520e+00    2.872258e+00
  3.163395e+00    2.909232e+00
  3.179271e+00    2.890577e+00
  3.195147e+00    2.905643e+00
  3.211022e+00    2.938803e+00
  3.226898e+00    2.926862e+00
  3.242773e+00    2.944664e+00
  3.258649e+00    3.005455e+00
  3.274525e+00    2.849862e+00
  3.290400e+00    2.953624e+00
  3.306276e+00    2.946144e+00
  3.322151e+00    2.950872e+00
  3.338027e+00    2.947061e+00
  3.353902e+00    2.916853e+00
  3.369778e+00    2.994418e+00
  3.385654e+00    2.941578e+00
  3.401529e+00    2.913980e+00
  3.417405e+00    2.891014e+00
  3.433280e+00    2.893020e+00
  3.449156e+00    2.914107e+00
  3.465031e+00    2.854100e+00
  3.480907e+00    3.007332e+00
  3.496783e+00    2.981570e+00
  3.512658e+00    2.895654e+00
  3.528534e+00    2.945863e+00
  3.544409e+00    2.993222e+00
  3.560285e+00    2.917355e+00
  3.576160e+00    2.920791e+00
  3.592036e+00    2.879646e+00
  3.607912e+00    2.955905e+00
  3.623787e+00    2.957151e+00
  3.639663e+00    2.937405e+00
  3.655538e+00    2.967691e+00
  3.671414e+00    2.954188e+00
  3.687289e+00    3.035089e+00
  3.703165e+00    3.044341e+00
  3.719041e+00    3.015760e+00
  3.734916e+00    2.898355e+00
  3.750792e+00    2.935158e+00
  3.766667e+00    2.932084e+00
  3.782543e+00    3.040624e+00
  3.798418e+00    2.993575e+00
  3.814294e+00    3.006452e+00
  3.830170e+00    3.008851e+00
  3.846045e+00    3.027600e+00
  3.861921e+00    3.027157e+00
  3.877796e+00    2.912925e+00
  3.893672e+00    2.925418e+00
  3.909547e+00    2.997250e+00
  3.925423e+00    3.062732e+00
  3.941299e+00    3.075656e+00
  3.957174e+00    3.038327e+00
  3.973050e+00    3.006748e+00
  3.988925e+00    2.965952e+00
  4.004801e+00    3.061617e+00
  4.020676e+00    2.954896e+00
  4.036552e+00    2.900261e+00
  4.052428e+00    3.032439e+00
  4.068303e+00    3.050825e+00
  4.084179e+00    2.995138e+00
  4.100054e+00    3.008494e+00
  4.115930e+00    3.061851e+00
  4.131806e+00    3.104937e+00
  4.147681e+00    3.079742e+00
  4.163557e+00    3.013745e+00
  4.179432e+00    3.069182e+00
  4.195308e+00    3.039239e+00
  4.211183e+00    3.029882e+00
  4.227059e+00    3.056107e+00
  4.242935e+00    3.101640e+00
  4.258810e+00    3.037252e+00
  4.274686e+00    3.056045e+00
  4.290561e+00    3.171728e+00
  4.306437e+00    3.082136e+00
  4.322312e+00    3.022804e+00
  4.338188e+00    3.101333e+00
  4.354064e+00    3.055448e+00
  4.369939e+00    3.025347e+00
  4.385815e+00    3.040269e+00
  4.401690e+00    3.054593e+00
  4.417566e+00    3.090554e+00
  4.433441e+00    3.116986e+00
  4.449317e+00    3.116486e+00
  4.465193e+00    3.134274e+00
  4.481068e+00    3.110610e+00
  4.496944e+00    3.104085e+00
  4.512819e+00    3.065154e+00
  4.528695e+00    3.094511e+00
  4.544570e+00    3.040194e+00
  4.560446e+00    3.064501e+00
  4.576322e+00    3.055778e+00
  4.592197e+00    2.998416e+00
  4.608073e+00    3.027575e+00
  4.623948e+00    3.114408e+00
  4.639824e+00    3.108334e+00
  4.655699e+00    3.195673e+00
  4.671575e+00    3.195248e+00
  4.687451e+00    3.133429e+00
  4.703326e+00    3.158824e+00
  4.719202e+00    3.078245e+00
  4.735077e+00    3.082250e+00
  4.750953e+00    3.135611e+00
  4.766828e+00    3.092501e+00
  4.782704e+00    3.061884e+00
  4.798580e+00    3.092751e+00
  4.814455e+00    3.118044e+00
  4.830331e+00    3.135522e+00
  4.846206e+00    3.079470e+00
  4.862082e+00    3.086677e+00
  4.877957e+00    3.171309e+00
  4.893833e+00    3.119724e+00
  4.909709e+00    3.095289e+00
  4.925584e+00    3.125269e+00
  4.941460e+00    3.125063e+00
  4.957335e+00    3.114375e+00
  4.973211e+00    3.089662e+00
  4.989086e+00    3.081986e+00
  5.004962e+00    3.120679e+00
  5.020838e+00    3.161268e+00
  5.036713e+00    3.111746e+00
  5.052589e+00    3.066879e+00
  5.068464e+00    3.110636e+00
  5.084340e+00    3.127104e+00
  5.100216e+00    3.133927e+00
  5.116091e+00    3.128679e+00
  5.131967e+00    3.127601e+00
  5.147842e+00    3.077201e+00
  5.163718e+00    3.043314e+00
  5.179593e+00    3.043381e+00
  5.195469e+00    3.029727e+00
  5.211345e+00    3.060809e+00
  5.227220e+00    3.097366e+00
  5.243096e+00    3.097083e+00
  5.258971e+00    3.123681e+00
  5.274847e+00    3.149065e+00
  5.290722e+00    3.127903e+00
  5.306598e+00    3.214288e+00
  5.322474e+00    3.150150e+00
  5.338349e+00    3.155367e+00
  5.354225e+00    3.134501e+00
  5.370100e+00    3.103864e+00
  5.385976e+00    3.116299e+00
  5.401851e+00    3.080842e+00
  5.417727e+00    3.079200e+00
  5.433603e+00    3.080488e+00
  5.449478e+00    3.084777e+00
  5.465354e+00    3.057459e+00
  5.481229e+00    3.018890e+00
  5.497105e+00    2.969276e+00
  5.512980e+00    3.068265e+00
  5.528856e+00    3.080759e+00
  5.544732e+00    3.081182e+00
  5.560607e+00    3.079495e+00
  5.576483e+00    3.058020e+00
  5.592358e+00    3.091473e+00
  5.608234e+00    3.097685e+00
  5.624109e+00    3.033508e+00
  5.639985e+00    3.060336e+00
  5.655861e+00    3.032413e+00
  5.671736e+00    3.042793e+00
  5.687612e+00    3.027715e+00
  5.703487e+00    3.058609e+00
  5.719363e+00    3.094737e+00
  5.735238e+00    3.014689e+00
  5.751114e+00    3.019338e+00
  5.766990e+00    2.943752e+00
  5.782865e+00    2.960819e+00
  5.798741e+00    2.982615e+00
  5.814616e+00    2.974660e+00
  5.830492e+00    3.001253e+00
  5.846367e+00    2.985095e+00
  5.862243e+00    2.943784e+00
  5.878119e+00    3.011526e+00
  5.893994e+00    3.067285e+00
  5.909870e+00    3.005599e+00
  5.925745e+00    2.979485e+00
  5.941621e+00    2.995461e+00
  5.957497e+00    3.007987e+00
  5.973372e+00    3.022774e+00
  5.989248e+00    3.006899e+00
  6.005123e+00    3.001463e+00
  6.020999e+00    2.978435e+00
  6.036874e+00    3.059677e+00
  6.052750e+00    3.047621e+00
  6.068626e+00    3.065251e+00
  6.084501e+00    3.096575e+00
  6.100377e+00    3.149918e+00
  6.116252e+00    3.154389e+00
  6.132128e+00    3.143584e+00
  6.148003e+00    3.092928e+00
  6.163879e+00    2.983745e+00
  6.179755e+00    3.011485e+00
  6.195630e+00    3.040951e+00
  6.211506e+00    3.030604e+00
  6.227381e+00    3.042801e+00
  6.243257e+00    3.054743e+00
  6.259132e+00    3.050880e+00
  6.275008e+00    3.015249e+00
  6.290884e+00    3.098660e+00
  6.306759e+00    3.045531e+00
  6.322635e+00    3.061593e+00
  6.338510e+00    3.025634e+00
  6.354386e+00    2.998716e+00
  6.370261e+00    3.016889e+00
  6.386137e+00    2.990403e+00
  6.402013e+00    3.032566e+00
  6.417888e+00    3.063317e+00
  6.433764e+00    3.043428e+00
  6.449639e+00    3.061011e+00
  6.465515e+00    3.033736e+00
  6.481390e+00    3.003427e+00
  6.497266e+00    2.918729e+00
  6.513142e+00    2.985135e+00
  6.529017e+00    3.068177e+00
  6.544893e+00    3.086486e+00
  6.560768e+00    3.038029e+00
  6.576644e+00    3.008754e+00
  6.592519e+00    2.979387e+00
  6.608395e+00    2.980971e+00
  6.624271e+00    3.055840e+00
  6.640146e+00    3.069384e+00
  6.656022e+00    3.044641e+00
  6.671897e+00    3.039994e+00
  6.687773e+00    2.993514e+00
  6.703648e+00    3.013530e+00
  6.719524e+00    3.027643e+00
  6.735400e+00    3.048981e+00
  6.751275e+00    3.062904e+00
  6.767151e+00    3.008631e+00
  6.783026e+00    2.982624e+00
  6.798902e+00    2.978125e+00
  6.814777e+00    3.010058e+00
  6.830653e+00    3.040575e+00
  6.846529e+00    2.992943e+00
  6.862404e+00    3.025931e+00
  6.878280e+00    2.982641e+00
  6.894155e+00    2.992850e+00
  6.910031e+00    2.987986e+00
  6.925907e+00    2.996911e+00
  6.941782e+00    2.994600e+00
  6.957658e+00    3.000071e+00
  6.973533e+00    3.009309e+00
  6.989409e+00    2.956451e+00
  7.005284e+00    2.958138e+00
  7.021160e+00    2.950013e+00
  7.037036e+00    3.030508e+00
  7.052911e+00    3.022054e+00
  7.068787e+00    2.939758e+00
  7.084662e+00    2.975177e+00
  7.100538e+00    2.954525e+00
  7.116413e+00    2.956725e+00
  7.132289e+00    3.003692e+00
  7.148165e+00    2.966969e+00
  7.164040e+00    2.938279e+00
  7.179916e+00    2.992842e+00
  7.195791e+00    3.023373e+00
  7.211667e+00    2.951054e+00
  7.227542e+00    2.922019e+00
  7.243418e+00    2.970257e+00
  7.259294e+00    2.943121e+00
  7.275169e+00    2.962028e+00
  7.291045e+00    2.985449e+00
  7.306920e+00    2.971349e+00
  7.322796e+00    2.927070e+00
  7.338671e+00    2.982441e+00
  7.354547e+00    3.000548e+00
  7.370423e+00    2.942586e+00
  7.386298e+00    2.990388e+00
  7.402174e+00    2.981861e+00
  7.418049e+00    3.004859e+00
  7.433925e+00    3.010676e+00
  7.449800e+00    2.958744e+00
  7.465676e+00    2.951422e+00
  7.481552e+00    2.955295e+00
  7.497427e+00    2.978135e+00
  7.513303e+00    3.033811e+00
  7.529178e+00    3.004070e+00
  7.545054e+00    2.944586e+00
  7.560929e+00    2.976548e+00
  7.576805e+00    2.993548e+00
  7.592681e+00    2.995384e+00
  7.608556e+00    2.951502e+00
  7.624432e+00    2.936435e+00
  7.640307e+00    2.958319e+00
  7.656183e+00    3.012090e+00
  7.672058e+00    2.980331e+00
  7.687934e+00    2.966368e+00
  7.703810e+00    2.985581e+00
  7.719685e+00    2.960433e+00
  7.735561e+00    2.921675e+00
  7.751436e+00    2.965331e+00
  7.767312e+00    3.050206e+00
  7.783187e+00    3.003666e+00
  7.799063e+00    2.983351e+00
  7.814939e+00    2.999705e+00
  7.830814e+00    3.006739e+00
  7.846690e+00    2.947957e+00
  7.862565e+00    2.954883e+00
  7.878441e+00    2.960802e+00
  7.894317e+00    2.909238e+00
  7.910192e+00    2.873875e+00
  7.926068e+00    2.900822e+00
  7.941943e+00    2.968256e+00
  7.957819e+00    2.848334e+00
  7.973694e+00    2.872579e+00
  7.989570e+00    2.960206e+00
  8.005446e+00    2.897085e+00
  8.021321e+00    2.991024e+00
  8.037197e+00    2.950641e+00
  8.053072e+00    2.897474e+00
  8.068948e+00    2.913410e+00
  8.084823e+00    2.979681e+00
  8.100699e+00    2.965165e+00
  8.116575e+00    2.929422e+00
  8.132450e+00    2.963842e+00
  8.148326e+00    2.977971e+00
  8.164201e+00    2.966159e+00
  8.180077e+00    2.984839e+00
  8.195952e+00    2.947064e+00
  8.211828e+00    2.916576e+00
  8.227704e+00    2.933460e+00
  8.243579e+00    2.879622e+00
  8.259455e+00    2.867154e+00
  8.275330e+00    2.894442e+00
  8.291206e+00    2.913528e+00
  8.307081e+00    2.954701e+00
  8.322957e+00    2.945353e+00
  8.338833e+00    2.877197e+00
  8.354708e+00    2.931602e+00
  8.370584e+00    2.904818e+00
  8.386459e+00    2.932755e+00
  8.402335e+00    2.888353e+00
  8.418210e+00    2.869179e+00
  8.434086e+00    2.895108e+00
  8.449962e+00    2.925250e+00
  8.465837e+00    2.847258e+00
  8.481713e+00    2.884772e+00
  8.497588e+00    2.875225e+00
  8.513464e+00    2.898991e+00
  8.529339e+00    2.830860e+00
  8.545215e+00    2.901877e+00
  8.561091e+00    2.889099e+00
  8.576966e+00    2.876935e+00
  8.592842e+00    2.858420e+00
  8.608717e+00    2.893198e+00
  8.624593e+00    2.843659e+00
  8.640468e+00    2.825208e+00
  8.656344e+00    2.817268e+00
  8.672220e+00    2.825915e+00
  8.688095e+00    2.900455e+00
  8.703971e+00    2.877965e+00
  8.719846e+00    2.858269e+00
  8.735722e+00    2.895409e+00
  8.751598e+00    2.914386e+00
  8.767473e+00    2.863007e+00
  8.783349e+00    2.833283e+00
  8.799224e+00    2.823687e+00
  8.815100e+00    2.838423e+00
  8.830975e+00    2.853374e+00
  8.846851e+00    2.846581e+00
  8.862727e+00    2.837545e+00
  8.878602e+00    2.819335e+00
  8.894478e+00    2.867736e+00
  8.910353e+00    2.880934e+00
  8.926229e+00    2.817643e+00
  8.942104e+00    2.807431e+00
  8.957980e+00    2.778148e+00
  8.973856e+00    2.805669e+00
  8.989731e+00    2.792885e+00
  9.005607e+00    2.808519e+00
  9.021482e+00    2.826411e+00
  9.037358e+00    2.854685e+00
  9.053233e+00    2.806427e+00
  9.069109e+00    2.744856e+00
  9.084985e+00    2.799195e+00
  9.100860e+00    2.774850e+00
  9.116736e+00    2.726628e+00
  9.132611e+00    2.785814e+00
  9.148487e+00    2.788695e+00
  9.164362e+00    2.755432e+00
  9.180238e+00    2.810645e+00
  9.196114e+00    2.898172e+00
  9.211989e+00    2.837226e+00
  9.227865e+00    2.821043e+00
  9.243740e+00    2.801146e+00
  9.259616e+00    2.781103e+00
  9.275491e+00    2.767365e+00
  9.291367e+00    2.810958e+00
  9.307243e+00    2.801528e+00
  9.323118e+00    2.790733e+00
  9.338994e+00    2.772063e+00
  9.354869e+00    2.815393e+00
  9.370745e+00    2.777452e+00
  9.386620e+00    2.768409e+00
  9.402496e+00    2.802502e+00
  9.418372e+00    2.784720e+00
  9.434247e+00    2.779780e+00
  9.450123e+00    2.824358e+00
  9.465998e+00    2.753279e+00
  9.481874e+00    2.736724e+00
  9.497749e+00    2.739467e+00
  9.513625e+00    2.786583e+00
  9.529501e+00    2.775442e+00
  9.545376e+00    2.779546e+00
  9.561252e+00    2.773238e+00
  9.577127e+00    2.784994e+00
  9.593003e+00    2.757464e+00
  9.608878e+00    2.809478e+00
  9.624754e+00    2.781054e+00
  9.640630e+00    2.739906e+00
  9.656505e+00    2.764049e+00
  9.672381e+00    2.787744e+00
  9.688256e+00    2.778528e+00
  9.704132e+00    2.756622e+00
  9.720008e+00    2.725986e+00
  9.735883e+00    2.707880e+00
  9.751759e+00    2.714617e+00
  9.767634e+00    2.776797e+00
  9.783510e+00    2.749303e+00
  9.799385e+00    2.747719e+00
  9.815261e+00    2.709004e+00
  9.831137e+00    2.695423e+00
  9.847012e+00    2.667050e+00
  9.862888e+00    2.667109e+00
  9.878763e+00    2.670856e+00
  9.894639e+00    2.703421e+00
  9.910514e+00    2.723853e+00
  9.926390e+00    2.695940e+00
  9.942266e+00    2.661324e+00
  9.958141e+00    2.699013e+00
  9.974017e+00    2.735703e+00
  9.989892e+00    2.679206e+00
  1.000577e+01    2.693628e+00
  1.002164e+01    2.695279e+00
  1.003752e+01    2.724845e+00
  1.005339e+01    2.696394e+00
  1.006927e+01    2.673270e+00
  1.008515e+01    2.638974e+00
  1.010102e+01    2.666205e+00
  1.011690e+01    2.651593e+00
  1.013277e+01    2.668710e+00
  1.014865e+01    2.657731e+00
  1.016452e+01    2.616093e+00
  1.018040e+01    2.619870e+00
  1.019627e+01    2.649179e+00
  1.021215e+01    2.675387e+00
  1.022803e+01    2.695721e+00
  1.024390e+01    2.673892e+00
  1.025978e+01    2.627408e+00
  1.027565e+01    2.651193e+00
  1.029153e+01    2.645517e+00
  1.030740e+01    2.663136e+00
  1.032328e+01    2.631253e+00
  1.033915e+01    2.668217e+00
  1.035503e+01    2.683027e+00
  1.037091e+01    2.634052e+00
  1.038678e+01    2.633063e+00
  1.040266e+01    2.596449e+00
  1.041853e+01    2.579879e+00
  1.043441e+01    2.607159e+00
  1.045028e+01    2.621900e+00
  1.046616e+01    2.610739e+00
  1.048204e+01    2.606050e+00
  1.049791e+01    2.574859e+00
  1.051379e+01    2.612210e+00
  1.052966e+01    2.572026e+00
  1.054554e+01    2.564229e+00
  1.056141e+01    2.613890e+00
  1.057729e+01    2.634098e+00
  1.059316e+01    2.605571e+00
  1.060904e+01    2.607284e+00
  1.062492e+01    2.621691e+00
  1.064079e+01    2.571883e+00
  1.065667e+01    2.565249e+00
  1.067254e+01    2.589300e+00
  1.068842e+01    2.553426e+00
  1.070429e+01    2.561629e+00
  1.072017e+01    2.555048e+00
  1.073604e+01    2.544975e+00
  1.075192e+01    2.585989e+00
  1.076780e+01    2.553145e+00
  1.078367e+01    2.495908e+00
  1.079955e+01    2.494436e+00
  1.081542e+01    2.484627e+00
  1.083130e+01    2.525875e+00
  1.084717e+01    2.534496e+00
  1.086305e+01    2.548592e+00
  1.087892e+01    2.526939e+00
  1.089480e+01    2.508939e+00
  1.091068e+01    2.503140e+00
  1.092655e+01    2.501505e+00
  1.094243e+01    2.507844e+00
  1.095830e+01    2.455208e+00
  1.097418e+01    2.518205e+00
  1.099005e+01    2.459031e+00
  1.100593e+01    2.456526e+00
  1.102180e+01    2.471408e+00
  1.103768e+01    2.506536e+00
  1.105356e+01    2.489511e+00
  1.106943e+01    2.465078e+00
  1.108531e+01    2.464848e+00
  1.110118e+01    2.426279e+00
  1.111706e+01    2.446949e+00
  1.113293e+01    2.428540e+00
  1.114881e+01    2.448307e+00
  1.116468e+01    2.436570e+00
  1.118056e+01    2.459004e+00
  1.119644e+01    2.509471e+00
  1.121231e+01    2.513982e+00
  1.122819e+01    2.507978e+00
  1.124406e+01    2.477628e+00
  1.125994e+01    2.429930e+00
  1.127581e+01    2.407027e+00
  1.129169e+01    2.434778e+00
  1.130756e+01    2.447874e+00
  1.132344e+01    2.439374e+00
  1.133932e+01    2.474073e+00
  1.135519e+01    2.415658e+00
  1.137107e+01    2.428000e+00
  1.138694e+01    2.450438e+00
  1.140282e+01    2.402316e+00
  1.141869e+01    2.400109e+00
  1.143457e+01    2.368497e+00
  1.145045e+01    2.406611e+00
  1.146632e+01    2.409126e+00
  1.148220e+01    2.388739e+00
  1.149807e+01    2.409417e+00
  1.151395e+01    2.430256e+00
  1.152982e+01    2.373291e+00
  1.154570e+01    2.401571e+00
  1.156157e+01    2.411879e+00
  1.157745e+01    2.420897e+00
  1.159333e+01    2.411203e+00
  1.160920e+01    2.399655e+00
  1.162508e+01    2.383598e+00
  1.164095e+01    2.371470e+00
  1.165683e+01    2.400875e+00
  1.167270e+01    2.416880e+00
  1.168858e+01    2.397927e+00
  1.170445e+01    2.408506e+00
  1.172033e+01    2.352711e+00
  1.173621e+01    2.367598e+00
  1.175208e+01    2.400136e+00
  1.176796e+01    2.400353e+00
  1.178383e+01    2.376834e+00
  1.179971e+01    2.308280e+00
  1.181558e+01    2.326649e+00
  1.183146e+01    2.357594e+00
  1.184733e+01    2.385941e+00
  1.186321e+01    2.359313e+00
  1.187909e+01    2.363546e+00
  1.189496e+01    2.353216e+00
  1.191084e+01    2.341313e+00
  1.192671e+01    2.400221e+00
  1.194259e+01    2.375225e+00
  1.195846e+01    2.350170e+00
  1.197434e+01    2.329315e+00
  1.199021e+01    2.325633e+00
  1.200609e+01    2.314675e+00
  1.202197e+01    2.303392e+00
  1.203784e+01    2.342418e+00
  1.205372e+01    2.339602e+00
  1.206959e+01    2.294924e+00
  1.208547e+01    2.273487e+00
  1.210134e+01    2.319388e+00
  1.211722e+01    2.322618e+00
  1.213309e+01    2.309638e+00
  1.214897e+01    2.301336e+00
  1.216485e+01    2.321582e+00
  1.218072e+01    2.306258e+00
  1.219660e+01    2.310272e+00
  1.221247e+01    2.339790e+00
  1.222835e+01    2.336881e+00
  1.224422e+01    2.280482e+00
  1.226010e+01    2.299265e+00
  1.227597e+01    2.286473e+00
  1.229185e+01    2.321556e+00
  1.230773e+01    2.332485e+00
  1.232360e+01    2.332435e+00
  1.233948e+01    2.275356e+00
  1.235535e+01    2.331285e+00
  1.237123e+01    2.349820e+00
  1.238710e+01    2.355830e+00
  1.240298e+01    2.327588e+00
  1.241886e+01    2.350001e+00
  1.243473e+01    2.347283e+00
  1.245061e+01    2.333541e+00
  1.246648e+01    2.360594e+00
  1.248236e+01    2.377373e+00
  1.249823e+01    2.380761e+00
  1.251411e+01    2.344940e+00
  1.252998e+01    2.321214e+00
  1.254586e+01    2.370017e+00
  1.256174e+01    2.390177e+00
  1.257761e+01    2.335554e+00
  1.259349e+01    2.378616e+00
  1.260936e+01    2.410006e+00
  1.262524e+01    2.414084e+00
  1.264111e+01    2.405492e+00
  1.265699e+01    2.435919e+00
  1.267286e+01    2.474435e+00
  1.268874e+01    2.510655e+00
  1.270462e+01    2.507559e+00
  1.272049e+01    2.522469e+00
  1.273637e+01    2.535944e+00
  1.275224e+01    2.527387e+00
  1.276812e+01    2.567480e+00
  1.278399e+01    2.619326e+00
  1.279987e+01    2.682070e+00
  1.281574e+01    2.744096e+00
  1.283162e+01    2.739356e+00
  1.284750e+01    2.827029e+00
  1.286337e+01    2.904878e+00
  1.287925e+01    3.022178e+00
  1.289512e+01    3.158488e+00
  1.291100e+01    3.289206e+00
  1.292687e+01    3.451352e+00
  1.294275e+01    3.669431e+00
  1.295862e+01    3.959635e+00
  1.297450e+01    4.308825e+00
  1.299038e+01    4.784745e+00
  1.300625e+01    5.287255e+00
  1.302213e+01    5.988364e+00
  1.303800e+01    6.961252e+00
  1.305388e+01    7.973433e+00
  1.306975e+01    9.225989e+00
  1.308563e+01    1.069657e+01
  1.310150e+01    1.220261e+01
  1.311738e+01    1.360914e+01
  1.313326e+01    1.500305e+01
  1.314913e+01    1.627877e+01
  1.316501e+01    1.760651e+01
  1.318088e+01    1.844168e+01
  1.319676e+01    1.876814e+01
  1.321263e+01    1.805234e+01
  1.322851e+01    1.650684e+01
  1.324438e+01    1.435473e+01
  1.326026e+01    1.204981e+01
  1.327614e+01    1.019955e+01
  1.329201e+01    8.519022e+00
  1.330789e+01    7.319002e+00
  1.332376e+01    6.295551e+00
  1.333964e+01    5.568153e+00
  1.335551e+01    4.984350e+00
  1.337139e+01    4.430836e+00
  1.338727e+01    4.086786e+00
  1.340314e+01    3.795349e+00
  1.341902e+01    3.565552e+00
  1.343489e+01    3.370940e+00
  1.345077e+01    3.170986e+00
  1.346664e+01    3.059098e+00
  1.348252e+01    2.945543e+00
  1.349839e+01    2.834152e+00
  1.351427e+01    2.742790e+00
  1.353015e+01    2.672578e+00
  1.354602e+01    2.615405e+00
  1.356190e+01    2.523703e+00
  1.357777e+01    2.504622e+00
  1.359365e+01    2.513182e+00
  1.360952e+01    2.481185e+00
  1.362540e+01    2.428835e+00
  1.364127e+01    2.326925e+00
  1.365715e+01    2.372586e+00
  1.367303e+01    2.330842e+00
  1.368890e+01    2.289976e+00
  1.370478e+01    2.239356e+00
  1.372065e+01    2.277771e+00
  1.373653e+01    2.248615e+00
  1.375240e+01    2.212048e+00
  1.376828e+01    2.227675e+00
  1.378415e+01    2.221595e+00
  1.380003e+01    2.171244e+00
  1.381591e+01    2.140955e+00
  1.383178e+01    2.170773e+00
  1.384766e+01    2.167244e+00
  1.386353e+01    2.124536e+00
  1.387941e+01    2.105054e+00
  1.389528e+01    2.135335e+00
  1.391116e+01    2.109352e+00
  1.392703e+01    2.132842e+00
  1.394291e+01    2.139951e+00
  1.395879e+01    2.097358e+00
  1.397466e+01    2.054053e+00
  1.399054e+01    2.055423e+00
  1.400641e+01    2.067116e+00
  1.402229e+01    2.060498e+00
  1.403816e+01    2.056830e+00
  1.405404e+01    2.032390e+00
  1.406991e+01    2.070453e+00
  1.408579e+01    2.056731e+00
  1.410167e+01    2.047068e+00
  1.411754e+01    2.042915e+00
  1.413342e+01    1.976130e+00
  1.414929e+01    1.963653e+00
  1.416517e+01    2.020346e+00
  1.418104e+01    2.017297e+00
  1.419692e+01    2.007571e+00
  1.421279e+01    1.993397e+00
  1.422867e+01    1.970765e+00
  1.424455e+01    2.019665e+00
  1.426042e+01    1.968546e+00
  1.427630e+01    1.982954e+00
  1.429217e+01    1.970443e+00
  1.430805e+01    1.987009e+00
  1.432392e+01    1.962876e+00
  1.433980e+01    1.967938e+00
  1.435568e+01    1.912764e+00
  1.437155e+01    1.941466e+00
  1.438743e+01    1.980239e+00
  1.440330e+01    1.951121e+00
  1.441918e+01    1.927792e+00
  1.443505e+01    1.915218e+00
  1.445093e+01    1.933381e+00
  1.446680e+01    1.937234e+00
  1.448268e+01    1.904691e+00
  1.449856e+01    1.918663e+00
  1.451443e+01    1.951609e+00
  1.453031e+01    1.926977e+00
  1.454618e+01    1.916674e+00
  1.456206e+01    1.908155e+00
  1.457793e+01    1.931225e+00
  1.459381e+01    1.928374e+00
  1.460968e+01    1.943356e+00
  1.462556e+01    1.917663e+00
  1.464144e+01    1.894754e+00
  1.465731e+01    1.893871e+00
  1.467319e+01    1.885520e+00
  1.468906e+01    1.911923e+00
  1.470494e+01    1.925285e+00
  1.472081e+01    1.878123e+00
  1.473669e+01    1.886031e+00
  1.475256e+01    1.908881e+00
  1.476844e+01    1.910317e+00
  1.478432e+01    1.886728e+00
  1.480019e+01    1.912311e+00
  1.481607e+01    1.923046e+00
  1.483194e+01    1.913542e+00
  1.484782e+01    1.915202e+00
  1.486369e+01    1.943529e+00
  1.487957e+01    1.950412e+00
  1.489544e+01    1.934222e+00
  1.491132e+01    1.949804e+00
  1.492720e+01    1.933872e+00
  1.494307e+01    1.942378e+00
  1.495895e+01    1.997594e+00
  1.497482e+01    2.084508e+00
  1.499070e+01    2.083576e+00
  1.500657e+01    2.133237e+00
  1.502245e+01    2.161185e+00
  1.503832e+01    2.283101e+00
  1.505420e+01    2.363047e+00
  1.507008e+01    2.478408e+00
  1.508595e+01    2.643498e+00
  1.510183e+01    2.829777e+00
  1.511770e+01    2.994340e+00
  1.513358e+01    3.345202e+00
  1.514945e+01    3.713623e+00
  1.516533e+01    4.108212e+00
  1.518120e+01    4.533894e+00
  1.519708e+01    4.884849e+00
  1.521296e+01    5.242086e+00
  1.522883e+01    5.595269e+00
  1.524471e+01    5.924527e+00
  1.526058e+01    6.151207e+00
  1.527646e+01    6.321909e+00
  1.529233e+01    6.251366e+00
  1.530821e+01    6.037702e+00
  1.532409e+01    5.635099e+00
  1.533996e+01    5.131869e+00
  1.535584e+01    4.466057e+00
  1.537171e+01    3.910840e+00
  1.538759e+01    3.480730e+00
  1.540346e+01    3.139544e+00
  1.541934e+01    2.914550e+00
  1.543521e+01    2.687865e+00
  1.545109e+01    2.514227e+00
  1.546697e+01    2.354308e+00
  1.548284e+01    2.278874e+00
  1.549872e+01    2.199322e+00
  1.551459e+01    2.127686e+00
  1.553047e+01    2.018077e+00
  1.554634e+01    1.979853e+00
  1.556222e+01    1.924603e+00
  1.557809e+01    1.899729e+00
  1.559397e+01    1.902560e+00
  1.560985e+01    1.875697e+00
  1.562572e+01    1.807424e+00
  1.564160e+01    1.769446e+00
  1.565747e+01    1.762257e+00
  1.567335e+01    1.769617e+00
  1.568922e+01    1.754817e+00
  1.570510e+01    1.759621e+00
  1.572097e+01    1.739938e+00
  1.573685e+01    1.701634e+00
  1.575273e+01    1.750992e+00
  1.576860e+01    1.723672e+00
  1.578448e+01    1.718058e+00
  1.580035e+01    1.664634e+00
  1.581623e+01    1.668103e+00
  1.583210e+01    1.667090e+00
  1.584798e+01    1.668981e+00
  1.586385e+01    1.688699e+00
  1.587973e+01    1.698493e+00
  1.589561e+01    1.657621e+00
  1.591148e+01    1.655375e+00
  1.592736e+01    1.644499e+00
  1.594323e+01    1.627065e+00
  1.595911e+01    1.639652e+00
  1.597498e+01    1.642004e+00
  1.599086e+01    1.620606e+00
  1.600673e+01    1.619583e+00
  1.602261e+01    1.626175e+00
  1.603849e+01    1.640805e+00
  1.605436e+01    1.624983e+00
  1.607024e+01    1.593182e+00
  1.608611e+01    1.606081e+00
  1.610199e+01    1.564792e+00
  1.611786e+01    1.595348e+00
  1.613374e+01    1.602559e+00
  1.614961e+01    1.607188e+00
  1.616549e+01    1.579968e+00
  1.618137e+01    1.573502e+00
  1.619724e+01    1.591123e+00
  1.621312e+01    1.579449e+00
  1.622899e+01    1.573784e+00
  1.624487e+01    1.546569e+00
  1.626074e+01    1.527278e+00
  1.627662e+01    1.547831e+00
  1.629250e+01    1.569177e+00
  1.630837e+01    1.559575e+00
  1.632425e+01    1.556707e+00
  1.634012e+01    1.573083e+00
  1.635600e+01    1.550737e+00
  1.637187e+01    1.549872e+00
  1.638775e+01    1.562273e+00
  1.640362e+01    1.540241e+00
  1.641950e+01    1.538914e+00
  1.643538e+01    1.547502e+00
  1.645125e+01    1.547784e+00
  1.646713e+01    1.496842e+00
  1.648300e+01    1.527537e+00
  1.649888e+01    1.550311e+00
  1.651475e+01    1.561773e+00
  1.653063e+01    1.556844e+00
  1.654650e+01    1.505271e+00
  1.656238e+01    1.506864e+00
  1.657826e+01    1.528580e+00
  1.659413e+01    1.517892e+00
  1.661001e+01    1.502058e+00
  1.662588e+01    1.484544e+00
  1.664176e+01    1.492135e+00
  1.665763e+01    1.478880e+00
  1.667351e+01    1.484947e+00
  1.668938e+01    1.485169e+00
  1.670526e+01    1.456045e+00
  1.672114e+01    1.480510e+00
  1.673701e+01    1.498202e+00
  1.675289e+01    1.479609e+00
  1.676876e+01    1.475121e+00
  1.678464e+01    1.479031e+00
  1.680051e+01    1.494624e+00
  1.681639e+01    1.487421e+00
  1.683226e+01    1.471611e+00
  1.684814e+01    1.439784e+00
  1.686402e+01    1.436465e+00
  1.687989e+01    1.441951e+00
  1.689577e+01    1.452573e+00
  1.691164e+01    1.482520e+00
  1.692752e+01    1.451717e+00
  1.694339e+01    1.447879e+00
  1.695927e+01    1.451504e+00
  1.697514e+01    1.435000e+00
  1.699102e+01    1.431101e+00
  1.700690e+01    1.429576e+00
  1.702277e+01    1.431058e+00
  1.703865e+01    1.437379e+00
  1.705452e+01    1.434337e+00
  1.707040e+01    1.445783e+00
  1.708627e+01    1.407577e+00
  1.710215e+01    1.415418e+00
  1.711802e+01    1.415952e+00
  1.713390e+01    1.396418e+00
  1.714978e+01    1.428013e+00
  1.716565e+01    1.402131e+00
  1.718153e+01    1.405118e+00
  1.719740e+01    1.407944e+00
  1.721328e+01    1.418085e+00
  1.722915e+01    1.412171e+00
  1.724503e+01    1.388455e+00
  1.726091e+01    1.400381e+00
  1.727678e+01    1.401601e+00
  1.729266e+01    1.403763e+00
  1.730853e+01    1.422331e+00
  1.732441e+01    1.399062e+00
  1.734028e+01    1.378936e+00
  1.735616e+01    1.349612e+00
  1.737203e+01    1.379945e+00
  1.738791e+01    1.399240e+00
  1.740379e+01    1.387866e+00
  1.741966e+01    1.367267e+00
  1.743554e+01    1.383513e+00
  1.745141e+01    1.374572e+00
  1.746729e+01    1.375720e+00
  1.748316e+01    1.397320e+00
  1.749904e+01    1.362010e+00
  1.751491e+01    1.339044e+00
  1.753079e+01    1.333158e+00
  1.754667e+01    1.366830e+00
  1.756254e+01    1.357115e+00
  1.757842e+01    1.343707e+00
  1.759429e+01    1.340127e+00
  1.761017e+01    1.313172e+00
  1.762604e+01    1.319693e+00
  1.764192e+01    1.345680e+00
  1.765779e+01    1.365079e+00
  1.767367e+01    1.357871e+00
  1.768955e+01    1.331268e+00
  1.770542e+01    1.361709e+00
  1.772130e+01    1.361952e+00
  1.773717e+01    1.341684e+00
  1.775305e+01    1.334188e+00
  1.776892e+01    1.366517e+00
  1.778480e+01    1.338727e+00
  1.780067e+01    1.315981e+00
  1.781655e+01    1.335532e+00
  1.783243e+01    1.332402e+00
  1.784830e+01    1.301257e+00
  1.786418e+01    1.314261e+00
  1.788005e+01    1.346992e+00
  1.789593e+01    1.342928e+00
  1.791180e+01    1.308877e+00
  1.792768e+01    1.308632e+00
  1.794355e+01    1.306951e+00
  1.795943e+01    1.296454e+00
  1.797531e+01    1.294858e+00
  1.799118e+01    1.288252e+00
  1.800706e+01    1.304526e+00
  1.802293e+01    1.311609e+00
  1.803881e+01    1.315423e+00
  1.805468e+01    1.326874e+00
  1.807056e+01    1.282091e+00
  1.808643e+01    1.291177e+00
  1.810231e+01    1.313101e+00
  1.811819e+01    1.312096e+00
  1.813406e+01    1.300597e+00
  1.814994e+01    1.260154e+00
  1.816581e+01    1.254052e+00
  1.818169e+01    1.278131e+00
  1.819756e+01    1.296794e+00
  1.821344e+01    1.283949e+00
  1.822932e+01    1.275116e+00
  1.824519e+01    1.299729e+00
  1.826107e+01    1.307296e+00
  1.827694e+01    1.272957e+00
  1.829282e+01    1.276303e+00
  1.830869e+01    1.310877e+00
  1.832457e+01    1.277852e+00
  1.834044e+01    1.264797e+00
  1.835632e+01    1.309988e+00
  1.837220e+01    1.277086e+00
  1.838807e+01    1.266068e+00
  1.840395e+01    1.301508e+00
  1.841982e+01    1.252905e+00
  1.843570e+01    1.239429e+00
  1.845157e+01    1.272357e+00
  1.846745e+01    1.239574e+00
  1.848332e+01    1.270298e+00
  1.849920e+01    1.277264e+00
  1.851508e+01    1.245602e+00
  1.853095e+01    1.237906e+00
  1.854683e+01    1.256515e+00
  1.856270e+01    1.248186e+00
  1.857858e+01    1.217608e+00
  1.859445e+01    1.241829e+00
  1.861033e+01    1.252804e+00
  1.862620e+01    1.238551e+00
  1.864208e+01    1.232628e+00
  1.865796e+01    1.229876e+00
  1.867383e+01    1.247954e+00
  1.868971e+01    1.236274e+00
  1.870558e+01    1.220697e+00
  1.872146e+01    1.216478e+00
  1.873733e+01    1.238292e+00
  1.875321e+01    1.223836e+00
  1.876908e+01    1.233627e+00
  1.878496e+01    1.227470e+00
  1.880084e+01    1.245939e+00
  1.881671e+01    1.226893e+00
  1.883259e+01    1.202884e+00
  1.884846e+01    1.218562e+00
  1.886434e+01    1.194312e+00
  1.888021e+01    1.204039e+00
  1.889609e+01    1.200466e+00
  1.891196e+01    1.200250e+00
  1.892784e+01    1.235638e+00
  1.894372e+01    1.226738e+00
  1.895959e+01    1.221844e+00
  1.897547e+01    1.194015e+00
  1.899134e+01    1.180323e+00
  1.900722e+01    1.209473e+00
  1.902309e+01    1.200592e+00
  1.903897e+01    1.177255e+00
  1.905484e+01    1.228397e+00
  1.907072e+01    1.209849e+00
  1.908660e+01    1.188194e+00
  1.910247e+01    1.171596e+00
  1.911835e+01    1.176881e+00
  1.913422e+01    1.174681e+00
  1.915010e+01    1.200938e+00
  1.916597e+01    1.203018e+00
  1.918185e+01    1.225065e+00
  1.919773e+01    1.204313e+00
  1.921360e+01    1.170129e+00
  1.922948e+01    1.184955e+00
  1.924535e+01    1.208198e+00
  1.926123e+01    1.194599e+00
  1.927710e+01    1.192564e+00
  1.929298e+01    1.177101e+00
  1.930885e+01    1.158433e+00
  1.932473e+01    1.163714e+00
  1.934061e+01    1.195446e+00
  1.935648e+01    1.194737e+00
  1.937236e+01    1.163154e+00
  1.938823e+01    1.207634e+00
  1.940411e+01    1.186688e+00
  1.941998e+01    1.173692e+00
  1.943586e+01    1.155743e+00
  1.945173e+01    1.169661e+00
  1.946761e+01    1.176954e+00
  1.948349e+01    1.174757e+00
  1.949936e+01    1.159816e+00
  1.951524e+01    1.172219e+00
  1.953111e+01    1.159017e+00
  1.954699e+01    1.174641e+00
  1.956286e+01    1.128047e+00
  1.957874e+01    1.130754e+00
  1.959461e+01    1.152073e+00
  1.961049e+01    1.170457e+00
  1.962637e+01    1.153410e+00
  1.964224e+01    1.135449e+00
  1.965812e+01    1.122731e+00
  1.967399e+01    1.152747e+00
  1.968987e+01    1.161499e+00
  1.970574e+01    1.152839e+00
  1.972162e+01    1.125478e+00
  1.973749e+01    1.126747e+00
  1.975337e+01    1.155416e+00
  1.976925e+01    1.138983e+00
  1.978512e+01    1.154174e+00
  1.980100e+01    1.144514e+00
  1.981687e+01    1.152191e+00
  1.983275e+01    1.149639e+00
  1.984862e+01    1.146531e+00
  1.986450e+01    1.127668e+00
  1.988037e+01    1.127978e+00
  1.989625e+01    1.110299e+00
  1.991213e+01    1.120874e+00
  1.992800e+01    1.131012e+00
  1.994388e+01    1.139041e+00
  1.995975e+01    1.140546e+00
  1.997563e+01    1.117245e+00
  1.999150e+01    1.115740e+00
  2.000738e+01    1.102319e+00
  2.002325e+01    1.144130e+00
  2.003913e+01    1.133362e+00
  2.005501e+01    1.127091e+00
  2.007088e+01    1.127436e+00
  2.008676e+01    1.119757e+00
  2.010263e+01    1.120633e+00
  2.011851e+01    1.112912e+00
  2.013438e+01    1.115133e+00
  2.015026e+01    1.109460e+00
  2.016614e+01    1.098061e+00
  2.018201e+01    1.101158e+00
  2.019789e+01    1.104145e+00
  2.021376e+01    1.109894e+00
  2.022964e+01    1.121263e+00
  2.024551e+01    1.129864e+00
  2.026139e+01    1.110039e+00
  2.027726e+01    1.092998e+00
  2.029314e+01    1.107618e+00
  2.030902e+01    1.103754e+00
  2.032489e+01    1.103397e+00
  2.034077e+01    1.106898e+00
  2.035664e+01    1.072169e+00
  2.037252e+01    1.077265e+00
  2.038839e+01    1.129605e+00
  2.040427e+01    1.112392e+00
  2.042014e+01    1.091431e+00
  2.043602e+01    1.061992e+00
  2.045190e+01    1.079954e+00
  2.046777e+01    1.117972e+00
  2.048365e+01    1.106709e+00
  2.049952e+01    1.082638e+00
  2.051540e+01    1.087801e+00
  2.053127e+01    1.107842e+00
  2.054715e+01    1.073656e+00
  2.056302e+01    1.085768e+00
  2.057890e+01    1.091107e+00
  2.059478e+01    1.073807e+00
  2.061065e+01    1.084074e+00
  2.062653e+01    1.104652e+00
  2.064240e+01    1.085325e+00
  2.065828e+01    1.096600e+00
  2.067415e+01    1.089838e+00
  2.069003e+01    1.084430e+00
  2.070590e+01    1.085477e+00
  2.072178e+01    1.100007e+00
  2.073766e+01    1.081124e+00
  2.075353e+01    1.087897e+00
  2.076941e+01    1.079646e+00
  2.078528e+01    1.081663e+00
  2.080116e+01    1.073603e+00
  2.081703e+01    1.063007e+00
  2.083291e+01    1.067328e+00
  2.084878e+01    1.083648e+00
  2.086466e+01    1.086045e+00
  2.088054e+01    1.060069e+00
  2.089641e+01    1.092748e+00
  2.091229e+01    1.084577e+00
  2.092816e+01    1.095318e+00
  2.094404e+01    1.069299e+00
  2.095991e+01    1.079771e+00
  2.097579e+01    1.096089e+00
  2.099166e+01    1.113034e+00
  2.100754e+01    1.106512e+00
  2.102342e+01    1.083945e+00
  2.103929e+01    1.096384e+00
  2.105517e+01    1.091992e+00
  2.107104e+01    1.084600e+00
  2.108692e+01    1.070225e+00
  2.110279e+01    1.101649e+00
  2.111867e+01    1.091970e+00
  2.113455e+01    1.082616e+00
  2.115042e+01    1.099189e+00
  2.116630e+01    1.084957e+00
  2.118217e+01    1.091724e+00
  2.119805e+01    1.130898e+00
  2.121392e+01    1.128744e+00
  2.122980e+01    1.102015e+00
  2.124567e+01    1.096691e+00
  2.126155e+01    1.112646e+00
  2.127743e+01    1.115523e+00
  2.129330e+01    1.130965e+00
  2.130918e+01    1.125431e+00
  2.132505e+01    1.132479e+00
  2.134093e+01    1.136659e+00
  2.135680e+01    1.145432e+00
  2.137268e+01    1.184368e+00
  2.138855e+01    1.191049e+00
  2.140443e+01    1.182658e+00
  2.142031e+01    1.199415e+00
  2.143618e+01    1.209847e+00
  2.145206e+01    1.208652e+00
  2.146793e+01    1.223507e+00
  2.148381e+01    1.260754e+00
  2.149968e+01    1.292244e+00
  2.151556e+01    1.303984e+00
  2.153143e+01    1.346574e+00
  2.154731e+01    1.378865e+00
  2.156319e+01    1.411254e+00
  2.157906e+01    1.463828e+00
  2.159494e+01    1.515510e+00
  2.161081e+01    1.551286e+00
  2.162669e+01    1.600669e+00
  2.164256e+01    1.750764e+00
  2.165844e+01    1.877099e+00
  2.167431e+01    2.015444e+00
  2.169019e+01    2.158934e+00
  2.170607e+01    2.369179e+00
  2.172194e+01    2.654987e+00
  2.173782e+01    2.980593e+00
  2.175369e+01    3.376710e+00
  2.176957e+01    3.878782e+00
  2.178544e+01    4.471162e+00
  2.180132e+01    5.153525e+00
  2.181719e+01    5.867294e+00
  2.183307e+01    6.596225e+00
  2.184895e+01    7.430269e+00
  2.186482e+01    8.270370e+00
  2.188070e+01    9.111904e+00
  2.189657e+01    9.750867e+00
  2.191245e+01    1.025572e+01
  2.192832e+01    1.043109e+01
  2.194420e+01    1.000392e+01
  2.196007e+01    9.195210e+00
  2.197595e+01    8.164780e+00
  2.199183e+01    7.034742e+00
  2.200770e+01    6.007996e+00
  2.202358e+01    5.014731e+00
  2.203945e+01    4.227887e+00
  2.205533e+01    3.694839e+00
  2.207120e+01    3.196100e+00
  2.208708e+01    2.838133e+00
  2.210296e+01    2.531995e+00
  2.211883e+01    2.288561e+00
  2.213471e+01    2.108821e+00
  2.215058e+01    1.919011e+00
  2.216646e+01    1.788290e+00
  2.218233e+01    1.674216e+00
  2.219821e+01    1.600946e+00
  2.221408e+01    1.517790e+00
  2.222996e+01    1.452596e+00
  2.224584e+01    1.411683e+00
  2.226171e+01    1.357043e+00
  2.227759e+01    1.292451e+00
  2.229346e+01    1.262715e+00
  2.230934e+01    1.241490e+00
  2.232521e+01    1.191044e+00
  2.234109e+01    1.156888e+00
  2.235696e+01    1.158978e+00
  2.237284e+01    1.158977e+00
  2.238872e+01    1.125946e+00
  2.240459e+01    1.095955e+00
  2.242047e+01    1.087361e+00
  2.243634e+01    1.086697e+00
  2.245222e+01    1.078855e+00
  2.246809e+01    1.047121e+00
  2.248397e+01    1.043729e+00
  2.249984e+01    1.027746e+00
  2.251572e+01    1.015690e+00
  2.253160e+01    1.050414e+00
  2.254747e+01    1.029888e+00
  2.256335e+01    1.011475e+00
  2.257922e+01    9.910859e-01
  2.259510e+01    9.895431e-01
  2.261097e+01    9.963358e-01
  2.262685e+01    9.832736e-01
  2.264272e+01    9.858307e-01
  2.265860e+01    9.973167e-01
  2.267448e+01    9.741091e-01
  2.269035e+01    9.685690e-01
  2.270623e+01    9.497331e-01
  2.272210e+01    9.457037e-01
  2.273798e+01    9.179711e-01
  2.275385e+01    9.405649e-01
  2.276973e+01    9.559619e-01
  2.278560e+01    9.300472e-01
  2.280148e+01    9.586240e-01
  2.281736e+01    9.496653e-01
  2.283323e+01    9.130321e-01
  2.284911e+01    9.108675e-01
  2.286498e+01    9.366366e-01
  2.288086e+01    9.331582e-01
  2.289673e+01    9.358505e-01
  2.291261e+01    9.283399e-01
  2.292848e+01    9.351891e-01
  2.294436e+01    9.071582e-01
  2.296024e+01    9.078875e-01
  2.297611e+01    9.079359e-01
  2.299199e+01    9.047347e-01
  2.300786e+01    9.120711e-01
  2.302374e+01    9.155964e-01
  2.303961e+01    8.893027e-01
  2.305549e+01    8.812121e-01
  2.307137e+01    8.903440e-01
  2.308724e+01    8.851256e-01
  2.310312e+01    8.883652e-01
  2.311899e+01    8.982531e-01
  2.313487e+01    8.862211e-01
  2.315074e+01    8.757570e-01
  2.316662e+01    8.844789e-01
  2.318249e+01    8.897401e-01
  2.319837e+01    8.878462e-01
  2.321425e+01    8.859719e-01
  2.323012e+01    8.925300e-01
  2.324600e+01    8.969342e-01
  2.326187e+01    8.945900e-01
  2.327775e+01    8.825195e-01
  2.329362e+01    8.807274e-01
  2.330950e+01    8.665951e-01
  2.332537e+01    8.907800e-01
  2.334125e+01    9.093788e-01
  2.335713e+01    8.904053e-01
  2.337300e+01    8.607109e-01
  2.338888e+01    8.575628e-01
  2.340475e+01    8.716262e-01
  2.342063e+01    8.713670e-01
  2.343650e+01    8.770302e-01
  2.345238e+01    8.513203e-01
  2.346825e+01    8.410228e-01
  2.348413e+01    8.523418e-01
  2.350001e+01    8.367935e-01
  2.351588e+01    8.481544e-01
  2.353176e+01    8.478530e-01
  2.354763e+01    8.373895e-01
  2.356351e+01    8.395327e-01
  2.357938e+01    8.370262e-01
  2.359526e+01    8.396366e-01
  2.361113e+01    8.509423e-01
  2.362701e+01    8.552986e-01
  2.364289e+01    8.320422e-01
  2.365876e+01    8.239283e-01
  2.367464e+01    8.474365e-01
  2.369051e+01    8.412751e-01
  2.370639e+01    8.256701e-01
  2.372226e+01    8.094084e-01
  2.373814e+01    8.181055e-01
  2.375401e+01    8.167182e-01
  2.376989e+01    8.068455e-01
  2.378577e+01    8.055108e-01
  2.380164e+01    8.205051e-01
  2.381752e+01    8.203232e-01
  2.383339e+01    8.227553e-01
  2.384927e+01    8.101712e-01
  2.386514e+01    8.048194e-01
  2.388102e+01    8.317460e-01
  2.389689e+01    8.075651e-01
  2.391277e+01    7.907615e-01
  2.392865e+01    8.058508e-01
  2.394452e+01    7.982695e-01
  2.396040e+01    7.973216e-01
  2.397627e+01    7.776996e-01
  2.399215e+01    8.058543e-01
  2.400802e+01    8.053370e-01
  2.402390e+01    7.915207e-01
  2.403978e+01    7.931239e-01
  2.405565e+01    8.050879e-01
  2.407153e+01    8.109404e-01
  2.408740e+01    7.936604e-01
  2.410328e+01    7.853153e-01
  2.411915e+01    7.953007e-01
  2.413503e+01    7.820494e-01
  2.415090e+01    7.840254e-01
  2.416678e+01    7.770497e-01
  2.418266e+01    7.860628e-01
  2.419853e+01    7.637212e-01
  2.421441e+01    7.786757e-01
  2.423028e+01    7.683566e-01
  2.424616e+01    7.813011e-01
  2.426203e+01    7.962222e-01
  2.427791e+01    8.037654e-01
  2.429378e+01    7.989291e-01
  2.430966e+01    7.985449e-01
  2.432554e+01    7.973705e-01
  2.434141e+01    7.919171e-01
  2.435729e+01    7.916924e-01
  2.437316e+01    7.877421e-01
  2.438904e+01    7.937173e-01
  2.440491e+01    7.965676e-01
  2.442079e+01    7.876549e-01
  2.443666e+01    8.061235e-01
  2.445254e+01    7.901567e-01
  2.446842e+01    7.871922e-01
  2.448429e+01    7.895378e-01
  2.450017e+01    7.780172e-01
  2.451604e+01    7.826137e-01
  2.453192e+01    8.035345e-01
  2.454779e+01    8.097733e-01
  2.456367e+01    8.062181e-01
  2.457954e+01    7.980139e-01
  2.459542e+01    7.906976e-01
  2.461130e+01    7.898095e-01
  2.462717e+01    8.004368e-01
  2.464305e+01    7.825785e-01
  2.465892e+01    7.843128e-01
  2.467480e+01    8.058533e-01
  2.469067e+01    7.988774e-01
  2.470655e+01    8.006858e-01
  2.472242e+01    7.813691e-01
  2.473830e+01    7.728472e-01
  2.475418e+01    8.040579e-01
  2.477005e+01    8.122831e-01
  2.478593e+01    8.003342e-01
  2.480180e+01    7.993012e-01
  2.481768e+01    8.011195e-01
  2.483355e+01    8.039806e-01
  2.484943e+01    8.124348e-01
  2.486530e+01    8.097969e-01
  2.488118e+01    8.215761e-01
  2.489706e+01    8.170732e-01
  2.491293e+01    7.946951e-01
  2.492881e+01    8.005996e-01
  2.494468e+01    8.045135e-01
  2.496056e+01    8.124866e-01
  2.497643e+01    8.119555e-01
  2.499231e+01    8.191375e-01
  2.500819e+01    8.085934e-01
  2.502406e+01    8.254595e-01
  2.503994e+01    8.156478e-01
  2.505581e+01    7.860509e-01
  2.507169e+01    8.087251e-01
  2.508756e+01    8.149114e-01
  2.510344e+01    8.154020e-01
  2.511931e+01    8.289624e-01
  2.513519e+01    8.152295e-01
  2.515107e+01    8.130116e-01
  2.516694e+01    8.103433e-01
  2.518282e+01    8.204534e-01
  2.519869e+01    8.443218e-01
  2.521457e+01    8.368449e-01
  2.523044e+01    8.443745e-01
  2.524632e+01    8.528384e-01
  2.526219e+01    8.571855e-01
  2.527807e+01    8.816569e-01
  2.529395e+01    8.566061e-01
  2.530982e+01    8.513084e-01
  2.532570e+01    8.552818e-01
  2.534157e+01    8.825986e-01
  2.535745e+01    8.876185e-01
  2.537332e+01    8.944701e-01
  2.538920e+01    8.940897e-01
  2.540507e+01    9.022955e-01
  2.542095e+01    9.195756e-01
  2.543683e+01    9.414898e-01
  2.545270e+01    9.215606e-01
  2.546858e+01    9.293577e-01
  2.548445e+01    9.594581e-01
  2.550033e+01    9.736649e-01
  2.551620e+01    9.830780e-01
  2.553208e+01    1.014893e+00
  2.554795e+01    1.028407e+00
  2.556383e+01    1.051746e+00
  2.557971e+01    1.044828e+00
  2.559558e+01    1.076653e+00
  2.561146e+01    1.127975e+00
  2.562733e+01    1.164223e+00
  2.564321e+01    1.205009e+00
  2.565908e+01    1.227695e+00
  2.567496e+01    1.299571e+00
  2.569083e+01    1.352544e+00
  2.570671e+01    1.418110e+00
  2.572259e+01    1.511720e+00
  2.573846e+01    1.589638e+00
  2.575434e+01    1.731297e+00
  2.577021e+01    1.897623e+00
  2.578609e+01    2.099686e+00
  2.580196e+01    2.386281e+00
  2.581784e+01    2.688028e+00
  2.583371e+01    3.045928e+00
  2.584959e+01    3.484570e+00
  2.586547e+01    3.954728e+00
  2.588134e+01    4.512000e+00
  2.589722e+01    5.178058e+00
  2.591309e+01    5.933988e+00
  2.592897e+01    6.652505e+00
  2.594484e+01    7.332297e+00
  2.596072e+01    7.986829e+00
  2.597660e+01    8.397188e+00
  2.599247e+01    8.593390e+00
  2.600835e+01    8.414927e+00
  2.602422e+01    7.963480e+00
  2.604010e+01    7.146415e+00
  2.605597e+01    6.298808e+00
  2.607185e+01    5.402210e+00
  2.608772e+01    4.615005e+00
  2.610360e+01    3.948689e+00
  2.611948e+01    3.362208e+00
  2.613535e+01    2.924638e+00
  2.615123e+01    2.624920e+00
  2.616710e+01    2.348039e+00
  2.618298e+01    2.078676e+00
  2.619885e+01    1.921004e+00
  2.621473e+01    1.783581e+00
  2.623060e+01    1.639380e+00
  2.624648e+01    1.526037e+00
  2.626236e+01    1.440242e+00
  2.627823e+01    1.357136e+00
  2.629411e+01    1.304137e+00
  2.630998e+01    1.217065e+00
  2.632586e+01    1.188513e+00
  2.634173e+01    1.148450e+00
  2.635761e+01    1.097745e+00
  2.637348e+01    1.097642e+00
  2.638936e+01    1.089249e+00
  2.640524e+01    1.056641e+00
  2.642111e+01    1.020865e+00
  2.643699e+01    9.977184e-01
  2.645286e+01    1.003847e+00
  2.646874e+01    9.643016e-01
  2.648461e+01    9.771364e-01
  2.650049e+01    9.965740e-01
  2.651636e+01    9.680303e-01
  2.653224e+01    9.462190e-01
  2.654812e+01    9.627501e-01
  2.656399e+01    9.509733e-01
  2.657987e+01    9.360515e-01
  2.659574e+01    9.482204e-01
  2.661162e+01    9.376363e-01
  2.662749e+01    9.210320e-01
  2.664337e+01    9.279850e-01
  2.665924e+01    9.201648e-01
  2.667512e+01    8.943489e-01
  2.669100e+01    9.250536e-01
  2.670687e+01    9.362864e-01
  2.672275e+01    9.145575e-01
  2.673862e+01    9.084125e-01
  2.675450e+01    9.017764e-01
  2.677037e+01    8.894991e-01
  2.678625e+01    8.972456e-01
  2.680212e+01    9.073724e-01
  2.681800e+01    8.894714e-01
  2.683388e+01    9.105517e-01
  2.684975e+01    9.006740e-01
  2.686563e+01    8.947256e-01
  2.688150e+01    9.226241e-01
  2.689738e+01    9.285903e-01
  2.691325e+01    9.386768e-01
  2.692913e+01    9.406481e-01
  2.694501e+01    9.425656e-01
  2.696088e+01    9.801414e-01
  2.697676e+01    9.605951e-01
  2.699263e+01    9.780328e-01
  2.700851e+01    1.018843e+00
  2.702438e+01    1.064480e+00
  2.704026e+01    1.087062e+00
  2.705613e+01    1.124770e+00
  2.707201e+01    1.149213e+00
  2.708789e+01    1.242727e+00
  2.710376e+01    1.324182e+00
  2.711964e+01    1.417763e+00
  2.713551e+01    1.519853e+00
  2.715139e+01    1.657551e+00
  2.716726e+01    1.792836e+00
  2.718314e+01    1.940854e+00
  2.719901e+01    2.106822e+00
  2.721489e+01    2.269795e+00
  2.723077e+01    2.420531e+00
  2.724664e+01    2.444434e+00
  2.726252e+01    2.444104e+00
  2.727839e+01    2.401042e+00
  2.729427e+01    2.223540e+00
  2.731014e+01    2.024712e+00
  2.732602e+01    1.851145e+00
  2.734189e+01    1.707101e+00
  2.735777e+01    1.546768e+00
  2.737365e+01    1.413855e+00
  2.738952e+01    1.326322e+00
  2.740540e+01    1.258942e+00
  2.742127e+01    1.183686e+00
  2.743715e+01    1.119642e+00
  2.745302e+01    1.055976e+00
  2.746890e+01    1.042590e+00
  2.748477e+01    1.020128e+00
  2.750065e+01    9.846125e-01
  2.751653e+01    9.802468e-01
  2.753240e+01    9.514522e-01
  2.754828e+01    9.458297e-01
  2.756415e+01    9.199579e-01
  2.758003e+01    8.823604e-01
  2.759590e+01    8.756604e-01
  2.761178e+01    8.732722e-01
  2.762765e+01    8.752580e-01
  2.764353e+01    8.647764e-01
  2.765941e+01    8.623602e-01
  2.767528e+01    8.807499e-01
  2.769116e+01    8.637905e-01
  2.770703e+01    8.464084e-01
  2.772291e+01    8.302384e-01
  2.773878e+01    8.433644e-01
  2.775466e+01    8.322765e-01
  2.777054e+01    8.198586e-01
  2.778641e+01    8.450213e-01
  2.780229e+01    8.261452e-01
  2.781816e+01    8.241020e-01
  2.783404e+01    8.120242e-01
  2.784991e+01    7.934074e-01
  2.786579e+01    7.924718e-01
  2.788166e+01    8.141927e-01
  2.789754e+01    8.204922e-01
  2.791342e+01    8.164995e-01
  2.792929e+01    8.043284e-01
  2.794517e+01    7.908881e-01
  2.796104e+01    7.812408e-01
  2.797692e+01    7.687485e-01
  2.799279e+01    7.854104e-01
  2.800867e+01    8.119420e-01
  2.802454e+01    8.282259e-01
  2.804042e+01    7.878853e-01
  2.805630e+01    7.785597e-01
  2.807217e+01    8.080457e-01
  2.808805e+01    8.149002e-01
  2.810392e+01    7.876410e-01
  2.811980e+01    7.915792e-01
  2.813567e+01    7.868359e-01
  2.815155e+01    7.850518e-01
  2.816742e+01    7.927779e-01
  2.818330e+01    7.890209e-01
  2.819918e+01    8.033685e-01
  2.821505e+01    7.897133e-01
  2.823093e+01    7.802526e-01
  2.824680e+01    7.890531e-01
  2.826268e+01    7.909641e-01
  2.827855e+01    7.855001e-01
  2.829443e+01    7.853277e-01
  2.831030e+01    7.597008e-01
  2.832618e+01    7.787180e-01
  2.834206e+01    7.931992e-01
  2.835793e+01    7.842914e-01
  2.837381e+01    7.719555e-01
  2.838968e+01    7.665861e-01
  2.840556e+01    7.652801e-01
  2.842143e+01    7.501673e-01
  2.843731e+01    7.589528e-01
  2.845318e+01    7.554302e-01
  2.846906e+01    7.768374e-01
  2.848494e+01    7.841905e-01
  2.850081e+01    7.795775e-01
  2.851669e+01    7.574875e-01
  2.853256e+01    7.689670e-01
  2.854844e+01    7.626911e-01
  2.856431e+01    7.617887e-01
  2.858019e+01    7.586020e-01
  2.859606e+01    7.559523e-01
  2.861194e+01    7.566711e-01
  2.862782e+01    7.734268e-01
  2.864369e+01    7.642232e-01
  2.865957e+01    7.810813e-01
  2.867544e+01    7.700348e-01
  2.869132e+01    7.521413e-01
  2.870719e+01    7.554595e-01
  2.872307e+01    7.315192e-01
  2.873895e+01    7.312535e-01
  2.875482e+01    7.388615e-01
  2.877070e+01    7.604123e-01
  2.878657e+01    7.519906e-01
  2.880245e+01    7.480174e-01
  2.881832e+01    7.566229e-01
  2.883420e+01    7.640987e-01
  2.885007e+01    7.506959e-01
  2.886595e+01    7.531062e-01
  2.888183e+01    7.510900e-01
  2.889770e+01    7.411486e-01
  2.891358e+01    7.517470e-01
  2.892945e+01    7.452577e-01
  2.894533e+01    7.568067e-01
  2.896120e+01    7.626193e-01
  2.897708e+01    7.687622e-01
  2.899295e+01    7.428282e-01
  2.900883e+01    7.264924e-01
  2.902471e+01    7.509456e-01
  2.904058e+01    7.418891e-01
  2.905646e+01    7.421852e-01
  2.907233e+01    7.550019e-01
  2.908821e+01    7.459664e-01
  2.910408e+01    7.406499e-01
  2.911996e+01    7.523503e-01
  2.913583e+01    7.573223e-01
  2.915171e+01    7.407081e-01
  2.916759e+01    7.177650e-01
  2.918346e+01    7.543699e-01
  2.919934e+01    7.655810e-01
  2.921521e+01    7.432076e-01
  2.923109e+01    7.307687e-01
  2.924696e+01    7.466190e-01
  2.926284e+01    7.525875e-01
  2.927871e+01    7.164023e-01
  2.929459e+01    7.395820e-01
  2.931047e+01    7.227840e-01
  2.932634e+01    7.240378e-01
  2.934222e+01    7.386193e-01
  2.935809e+01    7.361839e-01
  2.937397e+01    7.356639e-01
  2.938984e+01    7.209048e-01
  2.940572e+01    7.250288e-01
  2.942159e+01    7.170267e-01
  2.943747e+01    7.235417e-01
  2.945335e+01    7.240628e-01
  2.946922e+01    7.186447e-01
  2.948510e+01    7.022592e-01
  2.950097e+01    7.198402e-01
  2.951685e+01    7.223771e-01
  2.953272e+01    7.197413e-01
  2.954860e+01    7.344614e-01
  2.956447e+01    7.287945e-01
  2.958035e+01    7.135081e-01
  2.959623e+01    7.417775e-01
  2.961210e+01    7.220027e-01
  2.962798e+01    7.227252e-01
  2.964385e+01    7.269366e-01
  2.965973e+01    7.299173e-01
  2.967560e+01    7.389565e-01
  2.969148e+01    7.295058e-01
  2.970736e+01    7.155319e-01
  2.972323e+01    7.227688e-01
  2.973911e+01    7.427756e-01
  2.975498e+01    7.232908e-01
  2.977086e+01    7.250408e-01
  2.978673e+01    7.117960e-01
  2.980261e+01    7.273014e-01
  2.981848e+01    7.327767e-01
  2.983436e+01    7.272606e-01
  2.985024e+01    7.129034e-01
  2.986611e+01    7.018297e-01
  2.988199e+01    7.113525e-01
  2.989786e+01    7.285193e-01
  2.991374e+01    7.269555e-01
  2.992961e+01    7.254762e-01
  2.994549e+01    7.297859e-01
  2.996136e+01    7.261611e-01
  2.997724e+01    7.023039e-01
  2.999312e+01    7.311164e-01
  3.000899e+01    7.296376e-01
  3.002487e+01    7.277004e-01
  3.004074e+01    7.518883e-01
  3.005662e+01    7.460133e-01
  3.007249e+01    7.513165e-01
  3.008837e+01    7.442105e-01
  3.010424e+01    7.305403e-01
  3.012012e+01    7.288656e-01
  3.013600e+01    7.356998e-01
  3.015187e+01    7.336620e-01
  3.016775e+01    7.141469e-01
  3.018362e+01    6.947908e-01
  3.019950e+01    7.177662e-01
  3.021537e+01    7.053598e-01
  3.023125e+01    7.345336e-01
  3.024712e+01    7.102318e-01
  3.026300e+01    6.829050e-01
  3.027888e+01    7.055908e-01
  3.029475e+01    7.133060e-01
  3.031063e+01    7.133301e-01
  3.032650e+01    7.408039e-01
  3.034238e+01    7.537680e-01
  3.035825e+01    7.589933e-01
  3.037413e+01    7.236632e-01
  3.039000e+01    7.072217e-01
  3.040588e+01    7.272150e-01
  3.042176e+01    7.045388e-01
  3.043763e+01    7.262702e-01
  3.045351e+01    7.159407e-01
  3.046938e+01    7.194644e-01
  3.048526e+01    7.112616e-01
  3.050113e+01    7.049358e-01
  3.051701e+01    7.221136e-01
  3.053288e+01    7.173536e-01
  3.054876e+01    7.390591e-01
  3.056464e+01    7.327958e-01
  3.058051e+01    7.216093e-01
  3.059639e+01    6.996469e-01
  3.061226e+01    7.038046e-01
  3.062814e+01    7.165010e-01
  3.064401e+01    7.149434e-01
  3.065989e+01    7.264391e-01
  3.067577e+01    7.184066e-01
  3.069164e+01    7.299429e-01
  3.070752e+01    7.258132e-01
  3.072339e+01    7.218805e-01
  3.073927e+01    7.117666e-01
  3.075514e+01    7.103435e-01
  3.077102e+01    7.064363e-01
  3.078689e+01    6.915801e-01
  3.080277e+01    7.103165e-01
  3.081865e+01    7.250984e-01
  3.083452e+01    7.324002e-01
  3.085040e+01    7.417720e-01
  3.086627e+01    7.398204e-01
  3.088215e+01    7.339160e-01
  3.089802e+01    7.237250e-01
  3.091390e+01    7.086720e-01
  3.092977e+01    7.097799e-01
  3.094565e+01    7.137861e-01
  3.096153e+01    7.415264e-01
  3.097740e+01    7.266647e-01
  3.099328e+01    7.050818e-01
  3.100915e+01    6.951337e-01
  3.102503e+01    7.118049e-01
  3.104090e+01    7.277606e-01
  3.105678e+01    7.409834e-01
  3.107265e+01    7.489486e-01
  3.108853e+01    7.318750e-01
  3.110441e+01    7.233331e-01
  3.112028e+01    7.184848e-01
  3.113616e+01    7.240630e-01
  3.115203e+01    7.290541e-01
  3.116791e+01    7.246696e-01
  3.118378e+01    7.306941e-01
  3.119966e+01    7.344633e-01
  3.121553e+01    7.538520e-01
  3.123141e+01    7.293052e-01
  3.124729e+01    7.189531e-01
  3.126316e+01    7.398567e-01
  3.127904e+01    7.371285e-01
  3.129491e+01    7.519534e-01
  3.131079e+01    7.364280e-01
  3.132666e+01    7.269620e-01
  3.134254e+01    7.318268e-01
  3.135841e+01    7.452132e-01
  3.137429e+01    7.636744e-01
  3.139017e+01    7.570772e-01
  3.140604e+01    7.563461e-01
  3.142192e+01    7.722174e-01
  3.143779e+01    7.548668e-01
  3.145367e+01    7.667257e-01
  3.146954e+01    7.485888e-01
  3.148542e+01    7.583069e-01
  3.150129e+01    7.585894e-01
  3.151717e+01    7.730944e-01
  3.153305e+01    7.690294e-01
  3.154892e+01    7.759591e-01
  3.156480e+01    7.846041e-01
  3.158067e+01    7.827537e-01
  3.159655e+01    8.153085e-01
  3.161242e+01    8.106678e-01
  3.162830e+01    8.210459e-01
  3.164418e+01    8.340145e-01
  3.166005e+01    8.488487e-01
  3.167593e+01    8.826278e-01
  3.169180e+01    8.944249e-01
  3.170768e+01    9.454251e-01
  3.172355e+01    9.551328e-01
  3.173943e+01    9.948761e-01
  3.175530e+01    1.008110e+00
  3.177118e+01    1.098824e+00
  3.178706e+01    1.177123e+00
  3.180293e+01    1.253605e+00
  3.181881e+01    1.360660e+00
  3.183468e+01    1.492142e+00
  3.185056e+01    1.673233e+00
  3.186643e+01    1.833936e+00
  3.188231e+01    1.988203e+00
  3.189818e+01    2.117935e+00
  3.191406e+01    2.262020e+00
  3.192994e+01    2.377862e+00
  3.194581e+01    2.448839e+00
  3.196169e+01    2.436696e+00
  3.197756e+01    2.336036e+00
  3.199344e+01    2.163882e+00
  3.200931e+01    1.998169e+00
  3.202519e+01    1.789608e+00
  3.204106e+01    1.586910e+00
  3.205694e+01    1.472302e+00
  3.207282e+01    1.325522e+00
  3.208869e+01    1.202501e+00
  3.210457e+01    1.121131e+00
  3.212044e+01    1.086432e+00
  3.213632e+01    1.005932e+00
  3.215219e+01    9.758772e-01
  3.216807e+01    9.338887e-01
  3.218394e+01    9.210517e-01
  3.219982e+01    8.968033e-01
  3.221570e+01    8.633692e-01
  3.223157e+01    8.545665e-01
  3.224745e+01    8.169990e-01
  3.226332e+01    8.091512e-01
  3.227920e+01    8.041305e-01
  3.229507e+01    8.002653e-01
  3.231095e+01    7.899443e-01
  3.232682e+01    7.767851e-01
  3.234270e+01    7.737079e-01
  3.235858e+01    7.664676e-01
  3.237445e+01    7.849841e-01
  3.239033e+01    7.655815e-01
  3.240620e+01    7.644539e-01
  3.242208e+01    7.491597e-01
  3.243795e+01    7.570332e-01
  3.245383e+01    7.775910e-01
  3.246970e+01    7.536086e-01
  3.248558e+01    7.537216e-01
  3.250146e+01    7.406555e-01
  3.251733e+01    7.636086e-01
  3.253321e+01    7.497145e-01
  3.254908e+01    7.255639e-01
