# == pyFAI calibration ==
# Distance Sample to Detector: 0.3999999939076516 m
# PONI: 9.750e-02, 1.135e-01 m
# Rotations: -0.000175 0.000000 -0.000000 rad
# 
# == Fit2d calibration ==
# Distance Sample-beamCenter: 400.000 mm
# Center: x=1514.000, y=1300.000 pix
# Tilt: 0.010 deg  TiltPlanRot: 0.010 deg
# 
# Detector Detector	 Spline= None	 PixelSize= 7.500e-05, 7.500e-05 m
#    Detector has a mask: False 
#    Detector has a dark current: False 
#    detector has a flat field: False 
# 
# Wavelength: 6.888e-11 m
# Mask applied: user provided
# Dark current applied: False
# Flat field applied: False
# Polarization factor: 0.99
# Normalization factor: 1.0
# --> /home/myspot/data/2024_07_Rosario/Ru-CGO-ex/2024-07-27_002_Ru-CGO-ex_Activtation_ramp_000002_data_000033.dat
#       q_nm^-1             I 
  2.003187e-02    0.000000e+00
  3.590745e-02    0.000000e+00
  5.178302e-02    4.781393e-02
  6.765859e-02    1.417448e-01
  8.353417e-02    2.365263e-01
  9.940974e-02    1.196710e-01
  1.152853e-01    1.884068e-03
  1.311609e-01    5.773170e-02
  1.470365e-01    3.813720e-02
  1.629120e-01    2.331704e-02
  1.787876e-01    2.469405e-04
  1.946632e-01    2.307605e-02
  2.105388e-01    5.043752e-02
  2.264143e-01    8.777202e-03
  2.422899e-01    1.449156e-03
  2.581655e-01    2.728781e-02
  2.740411e-01    4.452338e-02
  2.899166e-01    3.073858e-02
  3.057922e-01    7.234773e-03
  3.216678e-01    3.517053e-02
  3.375433e-01    1.438082e-02
  3.534189e-01    2.265722e-02
  3.692945e-01    4.043356e-02
  3.851701e-01    5.522986e-02
  4.010456e-01    4.128734e-02
  4.169212e-01    1.965205e-02
  4.327968e-01    2.888289e-02
  4.486724e-01    3.168277e-02
  4.645479e-01    1.688405e-02
  4.804235e-01    1.437609e-02
  4.962991e-01    2.389283e-02
  5.121747e-01    4.129622e-02
  5.280502e-01    5.048503e-02
  5.439258e-01    5.055027e-02
  5.598014e-01    3.171973e-02
  5.756770e-01    3.859504e-02
  5.915525e-01    4.276734e-02
  6.074281e-01    3.904753e-02
  6.233037e-01    5.606472e-02
  6.391793e-01    3.605346e-02
  6.550548e-01    2.331078e-02
  6.709304e-01    2.567605e-02
  6.868060e-01    2.828127e-02
  7.026815e-01    3.703362e-02
  7.185571e-01    4.681010e-02
  7.344327e-01    3.603423e-02
  7.503083e-01    3.332746e-02
  7.661838e-01    9.662716e-02
  7.820594e-01    1.230221e-01
  7.979350e-01    1.527538e-01
  8.138106e-01    2.036989e-01
  8.296861e-01    2.499735e-01
  8.455617e-01    2.897884e-01
  8.614373e-01    3.572752e-01
  8.773129e-01    4.226540e-01
  8.931884e-01    4.404122e-01
  9.090640e-01    5.617477e-01
  9.249396e-01    7.787572e-01
  9.408152e-01    6.893373e-01
  9.566907e-01    7.377518e-01
  9.725663e-01    8.529688e-01
  9.884419e-01    9.234669e-01
  1.004317e+00    1.013975e+00
  1.020193e+00    1.172475e+00
  1.036069e+00    1.294751e+00
  1.051944e+00    1.233530e+00
  1.067820e+00    1.282469e+00
  1.083695e+00    1.286714e+00
  1.099571e+00    1.311846e+00
  1.115446e+00    1.429456e+00
  1.131322e+00    1.423697e+00
  1.147198e+00    1.412051e+00
  1.163073e+00    1.554870e+00
  1.178949e+00    1.633262e+00
  1.194824e+00    1.751503e+00
  1.210700e+00    1.884267e+00
  1.226575e+00    1.981574e+00
  1.242451e+00    2.221455e+00
  1.258327e+00    2.308760e+00
  1.274202e+00    2.475014e+00
  1.290078e+00    2.480354e+00
  1.305953e+00    2.504509e+00
  1.321829e+00    2.627793e+00
  1.337705e+00    2.553725e+00
  1.353580e+00    2.604771e+00
  1.369456e+00    2.679264e+00
  1.385331e+00    2.714014e+00
  1.401207e+00    2.955121e+00
  1.417082e+00    2.799295e+00
  1.432958e+00    2.696021e+00
  1.448834e+00    2.752575e+00
  1.464709e+00    2.932208e+00
  1.480585e+00    2.835948e+00
  1.496460e+00    2.850302e+00
  1.512336e+00    2.744586e+00
  1.528211e+00    2.881632e+00
  1.544087e+00    3.109144e+00
  1.559963e+00    3.113822e+00
  1.575838e+00    3.060328e+00
  1.591714e+00    2.969458e+00
  1.607589e+00    2.968392e+00
  1.623465e+00    2.938449e+00
  1.639340e+00    2.975450e+00
  1.655216e+00    2.903378e+00
  1.671092e+00    2.924959e+00
  1.686967e+00    3.067133e+00
  1.702843e+00    2.972597e+00
  1.718718e+00    2.925861e+00
  1.734594e+00    2.757181e+00
  1.750469e+00    2.820694e+00
  1.766345e+00    2.956283e+00
  1.782221e+00    2.834758e+00
  1.798096e+00    2.850807e+00
  1.813972e+00    2.893207e+00
  1.829847e+00    2.807486e+00
  1.845723e+00    2.737284e+00
  1.861598e+00    2.760882e+00
  1.877474e+00    2.810491e+00
  1.893350e+00    2.737466e+00
  1.909225e+00    2.832260e+00
  1.925101e+00    2.856801e+00
  1.940976e+00    2.876916e+00
  1.956852e+00    2.866170e+00
  1.972727e+00    2.762008e+00
  1.988603e+00    2.723949e+00
  2.004479e+00    2.819528e+00
  2.020354e+00    2.681065e+00
  2.036230e+00    2.800392e+00
  2.052105e+00    2.781216e+00
  2.067981e+00    2.757804e+00
  2.083856e+00    2.742810e+00
  2.099732e+00    2.696638e+00
  2.115608e+00    2.667331e+00
  2.131483e+00    2.831944e+00
  2.147359e+00    2.789654e+00
  2.163234e+00    2.897560e+00
  2.179110e+00    2.893879e+00
  2.194985e+00    2.737202e+00
  2.210861e+00    2.731120e+00
  2.226737e+00    2.781173e+00
  2.242612e+00    2.785294e+00
  2.258488e+00    2.803388e+00
  2.274363e+00    2.821501e+00
  2.290239e+00    2.828743e+00
  2.306115e+00    2.738434e+00
  2.321990e+00    2.728712e+00
  2.337866e+00    2.842606e+00
  2.353741e+00    2.851761e+00
  2.369617e+00    2.891609e+00
  2.385492e+00    2.840098e+00
  2.401368e+00    2.799206e+00
  2.417244e+00    2.883105e+00
  2.433119e+00    2.974823e+00
  2.448995e+00    2.952667e+00
  2.464870e+00    2.879519e+00
  2.480746e+00    2.845421e+00
  2.496621e+00    2.849602e+00
  2.512497e+00    2.859421e+00
  2.528373e+00    2.826449e+00
  2.544248e+00    2.809751e+00
  2.560124e+00    2.849953e+00
  2.575999e+00    2.845880e+00
  2.591875e+00    2.758076e+00
  2.607750e+00    2.805191e+00
  2.623626e+00    2.918944e+00
  2.639502e+00    2.855125e+00
  2.655377e+00    2.766059e+00
  2.671253e+00    2.711236e+00
  2.687128e+00    2.723343e+00
  2.703004e+00    2.822301e+00
  2.718879e+00    2.902833e+00
  2.734755e+00    2.936863e+00
  2.750631e+00    2.885123e+00
  2.766506e+00    2.843125e+00
  2.782382e+00    2.732423e+00
  2.798257e+00    2.845191e+00
  2.814133e+00    2.861065e+00
  2.830008e+00    2.934011e+00
  2.845884e+00    2.917516e+00
  2.861760e+00    2.851600e+00
  2.877635e+00    2.821660e+00
  2.893511e+00    2.918679e+00
  2.909386e+00    2.886851e+00
  2.925262e+00    2.889779e+00
  2.941137e+00    2.854986e+00
  2.957013e+00    2.801241e+00
  2.972889e+00    2.803505e+00
  2.988764e+00    2.920644e+00
  3.004640e+00    2.831690e+00
  3.020515e+00    2.816916e+00
  3.036391e+00    2.852535e+00
  3.052266e+00    2.896021e+00
  3.068142e+00    3.010506e+00
  3.084018e+00    3.080021e+00
  3.099893e+00    2.857392e+00
  3.115769e+00    2.954539e+00
  3.131644e+00    2.923778e+00
  3.147520e+00    2.907377e+00
  3.163395e+00    2.918799e+00
  3.179271e+00    2.941150e+00
  3.195147e+00    2.973017e+00
  3.211022e+00    2.941957e+00
  3.226898e+00    2.846971e+00
  3.242773e+00    2.956957e+00
  3.258649e+00    2.995860e+00
  3.274525e+00    2.953646e+00
  3.290400e+00    2.870898e+00
  3.306276e+00    2.894420e+00
  3.322151e+00    2.937242e+00
  3.338027e+00    2.988156e+00
  3.353902e+00    2.968015e+00
  3.369778e+00    2.994218e+00
  3.385654e+00    3.020983e+00
  3.401529e+00    2.990183e+00
  3.417405e+00    2.957668e+00
  3.433280e+00    2.911716e+00
  3.449156e+00    3.017553e+00
  3.465031e+00    3.092457e+00
  3.480907e+00    2.950334e+00
  3.496783e+00    2.944669e+00
  3.512658e+00    2.938302e+00
  3.528534e+00    2.922503e+00
  3.544409e+00    2.924261e+00
  3.560285e+00    2.931073e+00
  3.576160e+00    3.027130e+00
  3.592036e+00    2.996833e+00
  3.607912e+00    2.985574e+00
  3.623787e+00    2.974595e+00
  3.639663e+00    3.010116e+00
  3.655538e+00    3.051287e+00
  3.671414e+00    3.040653e+00
  3.687289e+00    3.071394e+00
  3.703165e+00    3.011238e+00
  3.719041e+00    3.055313e+00
  3.734916e+00    2.997230e+00
  3.750792e+00    2.968141e+00
  3.766667e+00    2.986899e+00
  3.782543e+00    3.030107e+00
  3.798418e+00    2.984480e+00
  3.814294e+00    2.966980e+00
  3.830170e+00    2.988863e+00
  3.846045e+00    2.984617e+00
  3.861921e+00    2.952552e+00
  3.877796e+00    2.968338e+00
  3.893672e+00    3.065805e+00
  3.909547e+00    3.016515e+00
  3.925423e+00    2.990260e+00
  3.941299e+00    2.987520e+00
  3.957174e+00    3.034263e+00
  3.973050e+00    3.112644e+00
  3.988925e+00    3.063723e+00
  4.004801e+00    3.008489e+00
  4.020676e+00    3.012994e+00
  4.036552e+00    2.991696e+00
  4.052428e+00    3.003988e+00
  4.068303e+00    3.029592e+00
  4.084179e+00    3.032678e+00
  4.100054e+00    3.078552e+00
  4.115930e+00    3.057991e+00
  4.131806e+00    3.020794e+00
  4.147681e+00    3.063819e+00
  4.163557e+00    3.048617e+00
  4.179432e+00    3.063562e+00
  4.195308e+00    3.044975e+00
  4.211183e+00    3.062573e+00
  4.227059e+00    3.110556e+00
  4.242935e+00    3.072759e+00
  4.258810e+00    3.070255e+00
  4.274686e+00    3.082295e+00
  4.290561e+00    3.119451e+00
  4.306437e+00    3.050043e+00
  4.322312e+00    3.042161e+00
  4.338188e+00    3.091053e+00
  4.354064e+00    3.131292e+00
  4.369939e+00    3.107322e+00
  4.385815e+00    3.028797e+00
  4.401690e+00    3.092776e+00
  4.417566e+00    3.131932e+00
  4.433441e+00    3.074688e+00
  4.449317e+00    3.103418e+00
  4.465193e+00    3.102786e+00
  4.481068e+00    3.088028e+00
  4.496944e+00    3.033400e+00
  4.512819e+00    3.064945e+00
  4.528695e+00    3.101503e+00
  4.544570e+00    3.129296e+00
  4.560446e+00    3.076128e+00
  4.576322e+00    3.079406e+00
  4.592197e+00    3.142119e+00
  4.608073e+00    3.114512e+00
  4.623948e+00    3.149761e+00
  4.639824e+00    3.152417e+00
  4.655699e+00    3.045010e+00
  4.671575e+00    3.067770e+00
  4.687451e+00    3.112249e+00
  4.703326e+00    3.095956e+00
  4.719202e+00    3.074810e+00
  4.735077e+00    3.065114e+00
  4.750953e+00    3.064189e+00
  4.766828e+00    3.100446e+00
  4.782704e+00    3.132424e+00
  4.798580e+00    3.034715e+00
  4.814455e+00    3.050077e+00
  4.830331e+00    3.152861e+00
  4.846206e+00    3.139254e+00
  4.862082e+00    3.079194e+00
  4.877957e+00    3.169390e+00
  4.893833e+00    3.195701e+00
  4.909709e+00    3.122997e+00
  4.925584e+00    3.137342e+00
  4.941460e+00    3.097188e+00
  4.957335e+00    3.086981e+00
  4.973211e+00    3.147692e+00
  4.989086e+00    3.120267e+00
  5.004962e+00    3.144714e+00
  5.020838e+00    3.101659e+00
  5.036713e+00    3.128995e+00
  5.052589e+00    3.148729e+00
  5.068464e+00    3.139886e+00
  5.084340e+00    3.114141e+00
  5.100216e+00    3.134313e+00
  5.116091e+00    3.165555e+00
  5.131967e+00    3.186738e+00
  5.147842e+00    3.237764e+00
  5.163718e+00    3.173488e+00
  5.179593e+00    3.099237e+00
  5.195469e+00    3.080012e+00
  5.211345e+00    3.208253e+00
  5.227220e+00    3.163672e+00
  5.243096e+00    3.133125e+00
  5.258971e+00    3.148535e+00
  5.274847e+00    3.155766e+00
  5.290722e+00    3.180838e+00
  5.306598e+00    3.176742e+00
  5.322474e+00    3.107063e+00
  5.338349e+00    3.169365e+00
  5.354225e+00    3.189766e+00
  5.370100e+00    3.166522e+00
  5.385976e+00    3.153057e+00
  5.401851e+00    3.161882e+00
  5.417727e+00    3.131246e+00
  5.433603e+00    3.173720e+00
  5.449478e+00    3.165133e+00
  5.465354e+00    3.119280e+00
  5.481229e+00    3.074361e+00
  5.497105e+00    3.149426e+00
  5.512980e+00    3.116311e+00
  5.528856e+00    3.082869e+00
  5.544732e+00    3.002440e+00
  5.560607e+00    3.090423e+00
  5.576483e+00    3.150314e+00
  5.592358e+00    3.082599e+00
  5.608234e+00    3.122290e+00
  5.624109e+00    3.114927e+00
  5.639985e+00    3.073471e+00
  5.655861e+00    3.053446e+00
  5.671736e+00    3.151496e+00
  5.687612e+00    3.169769e+00
  5.703487e+00    3.067113e+00
  5.719363e+00    3.137861e+00
  5.735238e+00    3.100318e+00
  5.751114e+00    3.059575e+00
  5.766990e+00    3.112732e+00
  5.782865e+00    3.098016e+00
  5.798741e+00    3.033909e+00
  5.814616e+00    3.029267e+00
  5.830492e+00    3.035872e+00
  5.846367e+00    3.038326e+00
  5.862243e+00    3.120768e+00
  5.878119e+00    3.059489e+00
  5.893994e+00    3.019443e+00
  5.909870e+00    3.069931e+00
  5.925745e+00    3.065589e+00
  5.941621e+00    3.034395e+00
  5.957497e+00    3.125870e+00
  5.973372e+00    3.085851e+00
  5.989248e+00    3.082082e+00
  6.005123e+00    3.010213e+00
  6.020999e+00    3.031525e+00
  6.036874e+00    3.037946e+00
  6.052750e+00    3.051693e+00
  6.068626e+00    3.014525e+00
  6.084501e+00    3.018313e+00
  6.100377e+00    3.056072e+00
  6.116252e+00    3.135129e+00
  6.132128e+00    3.061462e+00
  6.148003e+00    3.119284e+00
  6.163879e+00    3.105586e+00
  6.179755e+00    3.095528e+00
  6.195630e+00    3.051425e+00
  6.211506e+00    3.042706e+00
  6.227381e+00    3.072256e+00
  6.243257e+00    2.999878e+00
  6.259132e+00    3.038535e+00
  6.275008e+00    3.064362e+00
  6.290884e+00    3.026794e+00
  6.306759e+00    3.041128e+00
  6.322635e+00    3.045507e+00
  6.338510e+00    3.065178e+00
  6.354386e+00    3.013047e+00
  6.370261e+00    2.998300e+00
  6.386137e+00    3.062955e+00
  6.402013e+00    3.047982e+00
  6.417888e+00    3.047231e+00
  6.433764e+00    3.078122e+00
  6.449639e+00    2.999574e+00
  6.465515e+00    2.952602e+00
  6.481390e+00    3.072644e+00
  6.497266e+00    3.072142e+00
  6.513142e+00    3.043582e+00
  6.529017e+00    3.101694e+00
  6.544893e+00    3.032990e+00
  6.560768e+00    3.043488e+00
  6.576644e+00    2.989093e+00
  6.592519e+00    3.061775e+00
  6.608395e+00    3.064829e+00
  6.624271e+00    2.999938e+00
  6.640146e+00    3.012629e+00
  6.656022e+00    3.056411e+00
  6.671897e+00    2.980383e+00
  6.687773e+00    2.963151e+00
  6.703648e+00    2.984696e+00
  6.719524e+00    3.038626e+00
  6.735400e+00    3.043548e+00
  6.751275e+00    3.075398e+00
  6.767151e+00    3.015083e+00
  6.783026e+00    3.053168e+00
  6.798902e+00    3.057109e+00
  6.814777e+00    3.076892e+00
  6.830653e+00    3.031498e+00
  6.846529e+00    2.960886e+00
  6.862404e+00    3.030738e+00
  6.878280e+00    3.056826e+00
  6.894155e+00    3.111044e+00
  6.910031e+00    2.950290e+00
  6.925907e+00    2.987779e+00
  6.941782e+00    3.050689e+00
  6.957658e+00    2.935719e+00
  6.973533e+00    2.927810e+00
  6.989409e+00    2.988410e+00
  7.005284e+00    3.025094e+00
  7.021160e+00    3.053508e+00
  7.037036e+00    3.082598e+00
  7.052911e+00    3.016011e+00
  7.068787e+00    2.986080e+00
  7.084662e+00    3.010396e+00
  7.100538e+00    3.003474e+00
  7.116413e+00    3.042104e+00
  7.132289e+00    3.004677e+00
  7.148165e+00    3.031521e+00
  7.164040e+00    3.037657e+00
  7.179916e+00    2.981173e+00
  7.195791e+00    3.029875e+00
  7.211667e+00    3.058886e+00
  7.227542e+00    2.998640e+00
  7.243418e+00    2.978028e+00
  7.259294e+00    3.030052e+00
  7.275169e+00    3.052579e+00
  7.291045e+00    3.057113e+00
  7.306920e+00    3.067916e+00
  7.322796e+00    3.021387e+00
  7.338671e+00    3.046586e+00
  7.354547e+00    2.985319e+00
  7.370423e+00    2.981017e+00
  7.386298e+00    3.018899e+00
  7.402174e+00    3.047769e+00
  7.418049e+00    3.036979e+00
  7.433925e+00    3.025455e+00
  7.449800e+00    3.019217e+00
  7.465676e+00    2.981441e+00
  7.481552e+00    3.012317e+00
  7.497427e+00    2.971924e+00
  7.513303e+00    2.965254e+00
  7.529178e+00    2.940920e+00
  7.545054e+00    2.955931e+00
  7.560929e+00    2.952687e+00
  7.576805e+00    2.936741e+00
  7.592681e+00    2.995000e+00
  7.608556e+00    2.981420e+00
  7.624432e+00    2.965744e+00
  7.640307e+00    2.966453e+00
  7.656183e+00    2.969387e+00
  7.672058e+00    2.978800e+00
  7.687934e+00    2.969635e+00
  7.703810e+00    2.951875e+00
  7.719685e+00    2.985097e+00
  7.735561e+00    2.935842e+00
  7.751436e+00    2.920233e+00
  7.767312e+00    3.025870e+00
  7.783187e+00    2.984202e+00
  7.799063e+00    2.954779e+00
  7.814939e+00    2.943720e+00
  7.830814e+00    2.866807e+00
  7.846690e+00    2.921497e+00
  7.862565e+00    2.984041e+00
  7.878441e+00    2.926875e+00
  7.894317e+00    2.952903e+00
  7.910192e+00    2.914874e+00
  7.926068e+00    2.880972e+00
  7.941943e+00    2.859230e+00
  7.957819e+00    2.905732e+00
  7.973694e+00    2.908366e+00
  7.989570e+00    2.911908e+00
  8.005446e+00    2.946322e+00
  8.021321e+00    2.905158e+00
  8.037197e+00    2.934245e+00
  8.053072e+00    2.914337e+00
  8.068948e+00    2.920066e+00
  8.084823e+00    2.900866e+00
  8.100699e+00    2.918596e+00
  8.116575e+00    2.973598e+00
  8.132450e+00    2.996381e+00
  8.148326e+00    2.905091e+00
  8.164201e+00    2.987427e+00
  8.180077e+00    3.018774e+00
  8.195952e+00    2.970419e+00
  8.211828e+00    2.990174e+00
  8.227704e+00    2.991601e+00
  8.243579e+00    2.955503e+00
  8.259455e+00    2.918280e+00
  8.275330e+00    2.972320e+00
  8.291206e+00    2.948314e+00
  8.307081e+00    2.953259e+00
  8.322957e+00    2.939657e+00
  8.338833e+00    2.892784e+00
  8.354708e+00    2.913029e+00
  8.370584e+00    2.925817e+00
  8.386459e+00    2.888026e+00
  8.402335e+00    2.896808e+00
  8.418210e+00    2.894512e+00
  8.434086e+00    2.880063e+00
  8.449962e+00    2.906495e+00
  8.465837e+00    2.871489e+00
  8.481713e+00    2.892068e+00
  8.497588e+00    2.954732e+00
  8.513464e+00    2.917333e+00
  8.529339e+00    2.917457e+00
  8.545215e+00    2.893343e+00
  8.561091e+00    2.888057e+00
  8.576966e+00    2.853632e+00
  8.592842e+00    2.841206e+00
  8.608717e+00    2.850759e+00
  8.624593e+00    2.830107e+00
  8.640468e+00    2.821867e+00
  8.656344e+00    2.839320e+00
  8.672220e+00    2.868280e+00
  8.688095e+00    2.936444e+00
  8.703971e+00    2.889845e+00
  8.719846e+00    2.842866e+00
  8.735722e+00    2.913958e+00
  8.751598e+00    2.900297e+00
  8.767473e+00    2.856387e+00
  8.783349e+00    2.827639e+00
  8.799224e+00    2.800122e+00
  8.815100e+00    2.880889e+00
  8.830975e+00    2.831722e+00
  8.846851e+00    2.842224e+00
  8.862727e+00    2.933448e+00
  8.878602e+00    2.892057e+00
  8.894478e+00    2.844768e+00
  8.910353e+00    2.828736e+00
  8.926229e+00    2.860202e+00
  8.942104e+00    2.826409e+00
  8.957980e+00    2.894339e+00
  8.973856e+00    2.894238e+00
  8.989731e+00    2.768287e+00
  9.005607e+00    2.800410e+00
  9.021482e+00    2.818802e+00
  9.037358e+00    2.823235e+00
  9.053233e+00    2.802818e+00
  9.069109e+00    2.861411e+00
  9.084985e+00    2.796256e+00
  9.100860e+00    2.768406e+00
  9.116736e+00    2.788718e+00
  9.132611e+00    2.789760e+00
  9.148487e+00    2.780103e+00
  9.164362e+00    2.781410e+00
  9.180238e+00    2.820123e+00
  9.196114e+00    2.802771e+00
  9.211989e+00    2.749410e+00
  9.227865e+00    2.797281e+00
  9.243740e+00    2.787648e+00
  9.259616e+00    2.785939e+00
  9.275491e+00    2.828629e+00
  9.291367e+00    2.814990e+00
  9.307243e+00    2.821226e+00
  9.323118e+00    2.842474e+00
  9.338994e+00    2.811076e+00
  9.354869e+00    2.746933e+00
  9.370745e+00    2.737920e+00
  9.386620e+00    2.777656e+00
  9.402496e+00    2.814193e+00
  9.418372e+00    2.724791e+00
  9.434247e+00    2.765640e+00
  9.450123e+00    2.760390e+00
  9.465998e+00    2.753554e+00
  9.481874e+00    2.777527e+00
  9.497749e+00    2.725678e+00
  9.513625e+00    2.758705e+00
  9.529501e+00    2.852502e+00
  9.545376e+00    2.829818e+00
  9.561252e+00    2.827445e+00
  9.577127e+00    2.790090e+00
  9.593003e+00    2.779008e+00
  9.608878e+00    2.823299e+00
  9.624754e+00    2.844737e+00
  9.640630e+00    2.790240e+00
  9.656505e+00    2.766119e+00
  9.672381e+00    2.789735e+00
  9.688256e+00    2.795852e+00
  9.704132e+00    2.750964e+00
  9.720008e+00    2.768668e+00
  9.735883e+00    2.735287e+00
  9.751759e+00    2.710690e+00
  9.767634e+00    2.731783e+00
  9.783510e+00    2.786686e+00
  9.799385e+00    2.783286e+00
  9.815261e+00    2.800474e+00
  9.831137e+00    2.765048e+00
  9.847012e+00    2.732587e+00
  9.862888e+00    2.687567e+00
  9.878763e+00    2.678536e+00
  9.894639e+00    2.669754e+00
  9.910514e+00    2.651529e+00
  9.926390e+00    2.710984e+00
  9.942266e+00    2.725161e+00
  9.958141e+00    2.707420e+00
  9.974017e+00    2.668569e+00
  9.989892e+00    2.699131e+00
  1.000577e+01    2.706057e+00
  1.002164e+01    2.684967e+00
  1.003752e+01    2.659463e+00
  1.005339e+01    2.688451e+00
  1.006927e+01    2.678686e+00
  1.008515e+01    2.703816e+00
  1.010102e+01    2.638443e+00
  1.011690e+01    2.634653e+00
  1.013277e+01    2.684470e+00
  1.014865e+01    2.694390e+00
  1.016452e+01    2.689197e+00
  1.018040e+01    2.710241e+00
  1.019627e+01    2.701781e+00
  1.021215e+01    2.655815e+00
  1.022803e+01    2.651518e+00
  1.024390e+01    2.624160e+00
  1.025978e+01    2.609244e+00
  1.027565e+01    2.653912e+00
  1.029153e+01    2.651484e+00
  1.030740e+01    2.649068e+00
  1.032328e+01    2.649630e+00
  1.033915e+01    2.695720e+00
  1.035503e+01    2.619533e+00
  1.037091e+01    2.601490e+00
  1.038678e+01    2.634028e+00
  1.040266e+01    2.620742e+00
  1.041853e+01    2.605598e+00
  1.043441e+01    2.593569e+00
  1.045028e+01    2.600317e+00
  1.046616e+01    2.602868e+00
  1.048204e+01    2.617376e+00
  1.049791e+01    2.623768e+00
  1.051379e+01    2.628325e+00
  1.052966e+01    2.596804e+00
  1.054554e+01    2.653704e+00
  1.056141e+01    2.629964e+00
  1.057729e+01    2.629926e+00
  1.059316e+01    2.643820e+00
  1.060904e+01    2.602493e+00
  1.062492e+01    2.615465e+00
  1.064079e+01    2.582474e+00
  1.065667e+01    2.567374e+00
  1.067254e+01    2.590601e+00
  1.068842e+01    2.608775e+00
  1.070429e+01    2.549965e+00
  1.072017e+01    2.549233e+00
  1.073604e+01    2.545759e+00
  1.075192e+01    2.561083e+00
  1.076780e+01    2.533909e+00
  1.078367e+01    2.533932e+00
  1.079955e+01    2.556105e+00
  1.081542e+01    2.540219e+00
  1.083130e+01    2.519267e+00
  1.084717e+01    2.531258e+00
  1.086305e+01    2.584303e+00
  1.087892e+01    2.499027e+00
  1.089480e+01    2.474318e+00
  1.091068e+01    2.480407e+00
  1.092655e+01    2.513610e+00
  1.094243e+01    2.570513e+00
  1.095830e+01    2.575981e+00
  1.097418e+01    2.573932e+00
  1.099005e+01    2.495448e+00
  1.100593e+01    2.478476e+00
  1.102180e+01    2.488983e+00
  1.103768e+01    2.512320e+00
  1.105356e+01    2.496041e+00
  1.106943e+01    2.496852e+00
  1.108531e+01    2.518156e+00
  1.110118e+01    2.514854e+00
  1.111706e+01    2.498266e+00
  1.113293e+01    2.490993e+00
  1.114881e+01    2.475625e+00
  1.116468e+01    2.440681e+00
  1.118056e+01    2.468072e+00
  1.119644e+01    2.430890e+00
  1.121231e+01    2.461004e+00
  1.122819e+01    2.532728e+00
  1.124406e+01    2.489016e+00
  1.125994e+01    2.471389e+00
  1.127581e+01    2.436494e+00
  1.129169e+01    2.449657e+00
  1.130756e+01    2.420332e+00
  1.132344e+01    2.460999e+00
  1.133932e+01    2.460218e+00
  1.135519e+01    2.467690e+00
  1.137107e+01    2.466051e+00
  1.138694e+01    2.495497e+00
  1.140282e+01    2.488309e+00
  1.141869e+01    2.446976e+00
  1.143457e+01    2.423659e+00
  1.145045e+01    2.435916e+00
  1.146632e+01    2.408687e+00
  1.148220e+01    2.405065e+00
  1.149807e+01    2.428465e+00
  1.151395e+01    2.460635e+00
  1.152982e+01    2.422013e+00
  1.154570e+01    2.378840e+00
  1.156157e+01    2.384115e+00
  1.157745e+01    2.407232e+00
  1.159333e+01    2.379747e+00
  1.160920e+01    2.389581e+00
  1.162508e+01    2.372070e+00
  1.164095e+01    2.373568e+00
  1.165683e+01    2.377884e+00
  1.167270e+01    2.379130e+00
  1.168858e+01    2.395151e+00
  1.170445e+01    2.431496e+00
  1.172033e+01    2.430410e+00
  1.173621e+01    2.328251e+00
  1.175208e+01    2.313073e+00
  1.176796e+01    2.364826e+00
  1.178383e+01    2.332735e+00
  1.179971e+01    2.383682e+00
  1.181558e+01    2.372151e+00
  1.183146e+01    2.395919e+00
  1.184733e+01    2.372534e+00
  1.186321e+01    2.385071e+00
  1.187909e+01    2.422852e+00
  1.189496e+01    2.387407e+00
  1.191084e+01    2.342193e+00
  1.192671e+01    2.347569e+00
  1.194259e+01    2.425625e+00
  1.195846e+01    2.362449e+00
  1.197434e+01    2.339776e+00
  1.199021e+01    2.305648e+00
  1.200609e+01    2.329264e+00
  1.202197e+01    2.347923e+00
  1.203784e+01    2.375389e+00
  1.205372e+01    2.375348e+00
  1.206959e+01    2.351677e+00
  1.208547e+01    2.358906e+00
  1.210134e+01    2.351628e+00
  1.211722e+01    2.374147e+00
  1.213309e+01    2.345970e+00
  1.214897e+01    2.374637e+00
  1.216485e+01    2.362201e+00
  1.218072e+01    2.286441e+00
  1.219660e+01    2.285790e+00
  1.221247e+01    2.295915e+00
  1.222835e+01    2.303471e+00
  1.224422e+01    2.293855e+00
  1.226010e+01    2.296950e+00
  1.227597e+01    2.374401e+00
  1.229185e+01    2.370873e+00
  1.230773e+01    2.349039e+00
  1.232360e+01    2.314719e+00
  1.233948e+01    2.299892e+00
  1.235535e+01    2.363390e+00
  1.237123e+01    2.428801e+00
  1.238710e+01    2.367599e+00
  1.240298e+01    2.368504e+00
  1.241886e+01    2.364758e+00
  1.243473e+01    2.373086e+00
  1.245061e+01    2.355912e+00
  1.246648e+01    2.344549e+00
  1.248236e+01    2.336249e+00
  1.249823e+01    2.366809e+00
  1.251411e+01    2.395398e+00
  1.252998e+01    2.403247e+00
  1.254586e+01    2.398906e+00
  1.256174e+01    2.375557e+00
  1.257761e+01    2.381114e+00
  1.259349e+01    2.400373e+00
  1.260936e+01    2.429170e+00
  1.262524e+01    2.420208e+00
  1.264111e+01    2.450498e+00
  1.265699e+01    2.470726e+00
  1.267286e+01    2.512559e+00
  1.268874e+01    2.494736e+00
  1.270462e+01    2.507276e+00
  1.272049e+01    2.501534e+00
  1.273637e+01    2.474119e+00
  1.275224e+01    2.503629e+00
  1.276812e+01    2.580393e+00
  1.278399e+01    2.695462e+00
  1.279987e+01    2.706424e+00
  1.281574e+01    2.719375e+00
  1.283162e+01    2.801500e+00
  1.284750e+01    2.871540e+00
  1.286337e+01    2.923616e+00
  1.287925e+01    3.014913e+00
  1.289512e+01    3.140253e+00
  1.291100e+01    3.343280e+00
  1.292687e+01    3.469374e+00
  1.294275e+01    3.618718e+00
  1.295862e+01    3.974477e+00
  1.297450e+01    4.316837e+00
  1.299038e+01    4.725711e+00
  1.300625e+01    5.289553e+00
  1.302213e+01    5.945671e+00
  1.303800e+01    6.742238e+00
  1.305388e+01    7.835496e+00
  1.306975e+01    9.125935e+00
  1.308563e+01    1.056774e+01
  1.310150e+01    1.210420e+01
  1.311738e+01    1.369840e+01
  1.313326e+01    1.512406e+01
  1.314913e+01    1.656400e+01
  1.316501e+01    1.787662e+01
  1.318088e+01    1.906304e+01
  1.319676e+01    1.967665e+01
  1.321263e+01    1.912068e+01
  1.322851e+01    1.792006e+01
  1.324438e+01    1.575219e+01
  1.326026e+01    1.342083e+01
  1.327614e+01    1.125552e+01
  1.329201e+01    9.520061e+00
  1.330789e+01    7.989775e+00
  1.332376e+01    6.855252e+00
  1.333964e+01    5.980923e+00
  1.335551e+01    5.313182e+00
  1.337139e+01    4.787362e+00
  1.338727e+01    4.348292e+00
  1.340314e+01    4.001643e+00
  1.341902e+01    3.693960e+00
  1.343489e+01    3.463823e+00
  1.345077e+01    3.309993e+00
  1.346664e+01    3.149796e+00
  1.348252e+01    3.042746e+00
  1.349839e+01    2.964914e+00
  1.351427e+01    2.825436e+00
  1.353015e+01    2.739475e+00
  1.354602e+01    2.673378e+00
  1.356190e+01    2.590834e+00
  1.357777e+01    2.561919e+00
  1.359365e+01    2.528616e+00
  1.360952e+01    2.466198e+00
  1.362540e+01    2.427050e+00
  1.364127e+01    2.394812e+00
  1.365715e+01    2.343667e+00
  1.367303e+01    2.324857e+00
  1.368890e+01    2.339139e+00
  1.370478e+01    2.308814e+00
  1.372065e+01    2.306967e+00
  1.373653e+01    2.280071e+00
  1.375240e+01    2.264253e+00
  1.376828e+01    2.273302e+00
  1.378415e+01    2.242127e+00
  1.380003e+01    2.196271e+00
  1.381591e+01    2.187944e+00
  1.383178e+01    2.129543e+00
  1.384766e+01    2.135095e+00
  1.386353e+01    2.128558e+00
  1.387941e+01    2.136227e+00
  1.389528e+01    2.155039e+00
  1.391116e+01    2.134867e+00
  1.392703e+01    2.106646e+00
  1.394291e+01    2.115124e+00
  1.395879e+01    2.123732e+00
  1.397466e+01    2.116225e+00
  1.399054e+01    2.092169e+00
  1.400641e+01    2.123858e+00
  1.402229e+01    2.078818e+00
  1.403816e+01    2.039880e+00
  1.405404e+01    2.059631e+00
  1.406991e+01    2.085876e+00
  1.408579e+01    2.080705e+00
  1.410167e+01    2.051908e+00
  1.411754e+01    2.058430e+00
  1.413342e+01    2.065525e+00
  1.414929e+01    2.063580e+00
  1.416517e+01    2.054956e+00
  1.418104e+01    2.004360e+00
  1.419692e+01    1.993541e+00
  1.421279e+01    2.009140e+00
  1.422867e+01    1.973879e+00
  1.424455e+01    1.988506e+00
  1.426042e+01    1.998083e+00
  1.427630e+01    2.000509e+00
  1.429217e+01    1.992971e+00
  1.430805e+01    1.974454e+00
  1.432392e+01    1.973583e+00
  1.433980e+01    1.988137e+00
  1.435568e+01    1.979290e+00
  1.437155e+01    1.981140e+00
  1.438743e+01    1.984897e+00
  1.440330e+01    1.954373e+00
  1.441918e+01    1.928969e+00
  1.443505e+01    1.951280e+00
  1.445093e+01    1.946426e+00
  1.446680e+01    1.937620e+00
  1.448268e+01    1.922038e+00
  1.449856e+01    1.953288e+00
  1.451443e+01    1.960640e+00
  1.453031e+01    1.954942e+00
  1.454618e+01    1.970045e+00
  1.456206e+01    1.953318e+00
  1.457793e+01    1.943885e+00
  1.459381e+01    1.931202e+00
  1.460968e+01    1.926734e+00
  1.462556e+01    1.935570e+00
  1.464144e+01    1.948759e+00
  1.465731e+01    1.944144e+00
  1.467319e+01    1.956417e+00
  1.468906e+01    1.959805e+00
  1.470494e+01    1.961140e+00
  1.472081e+01    1.947804e+00
  1.473669e+01    1.906560e+00
  1.475256e+01    1.900579e+00
  1.476844e+01    1.906299e+00
  1.478432e+01    1.906789e+00
  1.480019e+01    1.935676e+00
  1.481607e+01    1.978241e+00
  1.483194e+01    1.956023e+00
  1.484782e+01    1.943493e+00
  1.486369e+01    1.966128e+00
  1.487957e+01    1.979739e+00
  1.489544e+01    2.005097e+00
  1.491132e+01    1.981058e+00
  1.492720e+01    1.989286e+00
  1.494307e+01    2.039472e+00
  1.495895e+01    2.067409e+00
  1.497482e+01    2.084108e+00
  1.499070e+01    2.156583e+00
  1.500657e+01    2.180975e+00
  1.502245e+01    2.193412e+00
  1.503832e+01    2.252947e+00
  1.505420e+01    2.323228e+00
  1.507008e+01    2.481211e+00
  1.508595e+01    2.669932e+00
  1.510183e+01    2.808582e+00
  1.511770e+01    3.002586e+00
  1.513358e+01    3.266398e+00
  1.514945e+01    3.646238e+00
  1.516533e+01    4.054126e+00
  1.518120e+01    4.484047e+00
  1.519708e+01    4.774764e+00
  1.521296e+01    5.301085e+00
  1.522883e+01    5.717005e+00
  1.524471e+01    6.008218e+00
  1.526058e+01    6.306870e+00
  1.527646e+01    6.485585e+00
  1.529233e+01    6.486555e+00
  1.530821e+01    6.450312e+00
  1.532409e+01    6.072536e+00
  1.533996e+01    5.570693e+00
  1.535584e+01    4.926429e+00
  1.537171e+01    4.328480e+00
  1.538759e+01    3.825150e+00
  1.540346e+01    3.430866e+00
  1.541934e+01    3.067801e+00
  1.543521e+01    2.868273e+00
  1.545109e+01    2.605935e+00
  1.546697e+01    2.400520e+00
  1.548284e+01    2.316352e+00
  1.549872e+01    2.258560e+00
  1.551459e+01    2.156626e+00
  1.553047e+01    2.102770e+00
  1.554634e+01    2.028668e+00
  1.556222e+01    1.987246e+00
  1.557809e+01    1.960312e+00
  1.559397e+01    1.952511e+00
  1.560985e+01    1.935308e+00
  1.562572e+01    1.889403e+00
  1.564160e+01    1.876467e+00
  1.565747e+01    1.833673e+00
  1.567335e+01    1.839651e+00
  1.568922e+01    1.825994e+00
  1.570510e+01    1.795461e+00
  1.572097e+01    1.737090e+00
  1.573685e+01    1.732575e+00
  1.575273e+01    1.737943e+00
  1.576860e+01    1.756389e+00
  1.578448e+01    1.732153e+00
  1.580035e+01    1.688448e+00
  1.581623e+01    1.713278e+00
  1.583210e+01    1.721995e+00
  1.584798e+01    1.714461e+00
  1.586385e+01    1.655701e+00
  1.587973e+01    1.671889e+00
  1.589561e+01    1.691131e+00
  1.591148e+01    1.656116e+00
  1.592736e+01    1.637501e+00
  1.594323e+01    1.649021e+00
  1.595911e+01    1.673513e+00
  1.597498e+01    1.653576e+00
  1.599086e+01    1.594554e+00
  1.600673e+01    1.588449e+00
  1.602261e+01    1.578215e+00
  1.603849e+01    1.599320e+00
  1.605436e+01    1.622164e+00
  1.607024e+01    1.604529e+00
  1.608611e+01    1.595843e+00
  1.610199e+01    1.637267e+00
  1.611786e+01    1.646078e+00
  1.613374e+01    1.584770e+00
  1.614961e+01    1.585725e+00
  1.616549e+01    1.611041e+00
  1.618137e+01    1.590528e+00
  1.619724e+01    1.607654e+00
  1.621312e+01    1.574271e+00
  1.622899e+01    1.564260e+00
  1.624487e+01    1.547262e+00
  1.626074e+01    1.545203e+00
  1.627662e+01    1.541576e+00
  1.629250e+01    1.548267e+00
  1.630837e+01    1.559551e+00
  1.632425e+01    1.550668e+00
  1.634012e+01    1.550823e+00
  1.635600e+01    1.577527e+00
  1.637187e+01    1.583541e+00
  1.638775e+01    1.546385e+00
  1.640362e+01    1.565410e+00
  1.641950e+01    1.533043e+00
  1.643538e+01    1.544564e+00
  1.645125e+01    1.555129e+00
  1.646713e+01    1.545298e+00
  1.648300e+01    1.537345e+00
  1.649888e+01    1.530319e+00
  1.651475e+01    1.502348e+00
  1.653063e+01    1.534301e+00
  1.654650e+01    1.521099e+00
  1.656238e+01    1.510101e+00
  1.657826e+01    1.510940e+00
  1.659413e+01    1.486835e+00
  1.661001e+01    1.497873e+00
  1.662588e+01    1.504741e+00
  1.664176e+01    1.491362e+00
  1.665763e+01    1.488094e+00
  1.667351e+01    1.505115e+00
  1.668938e+01    1.485175e+00
  1.670526e+01    1.477569e+00
  1.672114e+01    1.493461e+00
  1.673701e+01    1.483976e+00
  1.675289e+01    1.488455e+00
  1.676876e+01    1.486873e+00
  1.678464e+01    1.474932e+00
  1.680051e+01    1.478426e+00
  1.681639e+01    1.468453e+00
  1.683226e+01    1.488544e+00
  1.684814e+01    1.515167e+00
  1.686402e+01    1.506963e+00
  1.687989e+01    1.461423e+00
  1.689577e+01    1.472338e+00
  1.691164e+01    1.453023e+00
  1.692752e+01    1.462130e+00
  1.694339e+01    1.449560e+00
  1.695927e+01    1.451974e+00
  1.697514e+01    1.474119e+00
  1.699102e+01    1.479991e+00
  1.700690e+01    1.477773e+00
  1.702277e+01    1.488698e+00
  1.703865e+01    1.445697e+00
  1.705452e+01    1.433891e+00
  1.707040e+01    1.429026e+00
  1.708627e+01    1.403960e+00
  1.710215e+01    1.410862e+00
  1.711802e+01    1.442967e+00
  1.713390e+01    1.441504e+00
  1.714978e+01    1.451040e+00
  1.716565e+01    1.422683e+00
  1.718153e+01    1.427358e+00
  1.719740e+01    1.407130e+00
  1.721328e+01    1.392237e+00
  1.722915e+01    1.437699e+00
  1.724503e+01    1.455182e+00
  1.726091e+01    1.424875e+00
  1.727678e+01    1.400143e+00
  1.729266e+01    1.408018e+00
  1.730853e+01    1.437342e+00
  1.732441e+01    1.415008e+00
  1.734028e+01    1.405899e+00
  1.735616e+01    1.391369e+00
  1.737203e+01    1.382732e+00
  1.738791e+01    1.374959e+00
  1.740379e+01    1.374277e+00
  1.741966e+01    1.419275e+00
  1.743554e+01    1.431821e+00
  1.745141e+01    1.398026e+00
  1.746729e+01    1.382497e+00
  1.748316e+01    1.356002e+00
  1.749904e+01    1.370099e+00
  1.751491e+01    1.386458e+00
  1.753079e+01    1.397588e+00
  1.754667e+01    1.364066e+00
  1.756254e+01    1.369629e+00
  1.757842e+01    1.391992e+00
  1.759429e+01    1.370930e+00
  1.761017e+01    1.347026e+00
  1.762604e+01    1.352601e+00
  1.764192e+01    1.382570e+00
  1.765779e+01    1.382021e+00
  1.767367e+01    1.345342e+00
  1.768955e+01    1.367251e+00
  1.770542e+01    1.348374e+00
  1.772130e+01    1.363317e+00
  1.773717e+01    1.375127e+00
  1.775305e+01    1.342270e+00
  1.776892e+01    1.343416e+00
  1.778480e+01    1.314119e+00
  1.780067e+01    1.321944e+00
  1.781655e+01    1.344000e+00
  1.783243e+01    1.342945e+00
  1.784830e+01    1.319828e+00
  1.786418e+01    1.317529e+00
  1.788005e+01    1.353702e+00
  1.789593e+01    1.320746e+00
  1.791180e+01    1.304564e+00
  1.792768e+01    1.289493e+00
  1.794355e+01    1.318786e+00
  1.795943e+01    1.349026e+00
  1.797531e+01    1.325771e+00
  1.799118e+01    1.338171e+00
  1.800706e+01    1.352543e+00
  1.802293e+01    1.328846e+00
  1.803881e+01    1.315253e+00
  1.805468e+01    1.300923e+00
  1.807056e+01    1.282122e+00
  1.808643e+01    1.307243e+00
  1.810231e+01    1.313637e+00
  1.811819e+01    1.289800e+00
  1.813406e+01    1.296143e+00
  1.814994e+01    1.296028e+00
  1.816581e+01    1.299238e+00
  1.818169e+01    1.294431e+00
  1.819756e+01    1.295098e+00
  1.821344e+01    1.299796e+00
  1.822932e+01    1.291317e+00
  1.824519e+01    1.269520e+00
  1.826107e+01    1.272182e+00
  1.827694e+01    1.277097e+00
  1.829282e+01    1.312059e+00
  1.830869e+01    1.280102e+00
  1.832457e+01    1.289604e+00
  1.834044e+01    1.294172e+00
  1.835632e+01    1.287506e+00
  1.837220e+01    1.284634e+00
  1.838807e+01    1.268314e+00
  1.840395e+01    1.247881e+00
  1.841982e+01    1.265060e+00
  1.843570e+01    1.254071e+00
  1.845157e+01    1.265342e+00
  1.846745e+01    1.263587e+00
  1.848332e+01    1.250216e+00
  1.849920e+01    1.246565e+00
  1.851508e+01    1.272100e+00
  1.853095e+01    1.284665e+00
  1.854683e+01    1.252294e+00
  1.856270e+01    1.238688e+00
  1.857858e+01    1.265014e+00
  1.859445e+01    1.247120e+00
  1.861033e+01    1.234856e+00
  1.862620e+01    1.258290e+00
  1.864208e+01    1.246684e+00
  1.865796e+01    1.242823e+00
  1.867383e+01    1.250114e+00
  1.868971e+01    1.263914e+00
  1.870558e+01    1.247504e+00
  1.872146e+01    1.237622e+00
  1.873733e+01    1.218083e+00
  1.875321e+01    1.251468e+00
  1.876908e+01    1.245556e+00
  1.878496e+01    1.199687e+00
  1.880084e+01    1.183292e+00
  1.881671e+01    1.219978e+00
  1.883259e+01    1.219356e+00
  1.884846e+01    1.240957e+00
  1.886434e+01    1.238993e+00
  1.888021e+01    1.238642e+00
  1.889609e+01    1.246890e+00
  1.891196e+01    1.236583e+00
  1.892784e+01    1.188096e+00
  1.894372e+01    1.208234e+00
  1.895959e+01    1.215503e+00
  1.897547e+01    1.218425e+00
  1.899134e+01    1.237744e+00
  1.900722e+01    1.231867e+00
  1.902309e+01    1.202090e+00
  1.903897e+01    1.197961e+00
  1.905484e+01    1.213358e+00
  1.907072e+01    1.224930e+00
  1.908660e+01    1.236566e+00
  1.910247e+01    1.217375e+00
  1.911835e+01    1.214041e+00
  1.913422e+01    1.218176e+00
  1.915010e+01    1.214901e+00
  1.916597e+01    1.213016e+00
  1.918185e+01    1.226814e+00
  1.919773e+01    1.210187e+00
  1.921360e+01    1.198912e+00
  1.922948e+01    1.182713e+00
  1.924535e+01    1.187689e+00
  1.926123e+01    1.187282e+00
  1.927710e+01    1.215139e+00
  1.929298e+01    1.207487e+00
  1.930885e+01    1.205619e+00
  1.932473e+01    1.202447e+00
  1.934061e+01    1.190823e+00
  1.935648e+01    1.195377e+00
  1.937236e+01    1.190088e+00
  1.938823e+01    1.193058e+00
  1.940411e+01    1.163698e+00
  1.941998e+01    1.165392e+00
  1.943586e+01    1.173154e+00
  1.945173e+01    1.191379e+00
  1.946761e+01    1.191521e+00
  1.948349e+01    1.155908e+00
  1.949936e+01    1.157595e+00
  1.951524e+01    1.161232e+00
  1.953111e+01    1.185351e+00
  1.954699e+01    1.192300e+00
  1.956286e+01    1.184121e+00
  1.957874e+01    1.194971e+00
  1.959461e+01    1.174596e+00
  1.961049e+01    1.180377e+00
  1.962637e+01    1.166053e+00
  1.964224e+01    1.159022e+00
  1.965812e+01    1.150203e+00
  1.967399e+01    1.147115e+00
  1.968987e+01    1.152207e+00
  1.970574e+01    1.155870e+00
  1.972162e+01    1.158075e+00
  1.973749e+01    1.145112e+00
  1.975337e+01    1.159986e+00
  1.976925e+01    1.174539e+00
  1.978512e+01    1.152769e+00
  1.980100e+01    1.171038e+00
  1.981687e+01    1.142201e+00
  1.983275e+01    1.123265e+00
  1.984862e+01    1.141361e+00
  1.986450e+01    1.130547e+00
  1.988037e+01    1.137688e+00
  1.989625e+01    1.117715e+00
  1.991213e+01    1.141200e+00
  1.992800e+01    1.122915e+00
  1.994388e+01    1.137402e+00
  1.995975e+01    1.143529e+00
  1.997563e+01    1.138916e+00
  1.999150e+01    1.132982e+00
  2.000738e+01    1.130495e+00
  2.002325e+01    1.108266e+00
  2.003913e+01    1.105412e+00
  2.005501e+01    1.135415e+00
  2.007088e+01    1.168046e+00
  2.008676e+01    1.140213e+00
  2.010263e+01    1.118568e+00
  2.011851e+01    1.101410e+00
  2.013438e+01    1.108724e+00
  2.015026e+01    1.127784e+00
  2.016614e+01    1.111468e+00
  2.018201e+01    1.096379e+00
  2.019789e+01    1.108696e+00
  2.021376e+01    1.139024e+00
  2.022964e+01    1.127682e+00
  2.024551e+01    1.107340e+00
  2.026139e+01    1.100684e+00
  2.027726e+01    1.114837e+00
  2.029314e+01    1.083061e+00
  2.030902e+01    1.072706e+00
  2.032489e+01    1.118122e+00
  2.034077e+01    1.125850e+00
  2.035664e+01    1.114416e+00
  2.037252e+01    1.091117e+00
  2.038839e+01    1.090820e+00
  2.040427e+01    1.102283e+00
  2.042014e+01    1.101903e+00
  2.043602e+01    1.093593e+00
  2.045190e+01    1.093381e+00
  2.046777e+01    1.099719e+00
  2.048365e+01    1.103189e+00
  2.049952e+01    1.107913e+00
  2.051540e+01    1.109653e+00
  2.053127e+01    1.095633e+00
  2.054715e+01    1.111862e+00
  2.056302e+01    1.127059e+00
  2.057890e+01    1.103849e+00
  2.059478e+01    1.082139e+00
  2.061065e+01    1.086594e+00
  2.062653e+01    1.112689e+00
  2.064240e+01    1.117275e+00
  2.065828e+01    1.102668e+00
  2.067415e+01    1.107571e+00
  2.069003e+01    1.097233e+00
  2.070590e+01    1.074019e+00
  2.072178e+01    1.075995e+00
  2.073766e+01    1.096641e+00
  2.075353e+01    1.110727e+00
  2.076941e+01    1.098135e+00
  2.078528e+01    1.070010e+00
  2.080116e+01    1.097785e+00
  2.081703e+01    1.123350e+00
  2.083291e+01    1.114778e+00
  2.084878e+01    1.117253e+00
  2.086466e+01    1.094198e+00
  2.088054e+01    1.087026e+00
  2.089641e+01    1.083666e+00
  2.091229e+01    1.090321e+00
  2.092816e+01    1.107486e+00
  2.094404e+01    1.099543e+00
  2.095991e+01    1.103489e+00
  2.097579e+01    1.092351e+00
  2.099166e+01    1.090373e+00
  2.100754e+01    1.082354e+00
  2.102342e+01    1.078906e+00
  2.103929e+01    1.101026e+00
  2.105517e+01    1.115303e+00
  2.107104e+01    1.122019e+00
  2.108692e+01    1.110635e+00
  2.110279e+01    1.083834e+00
  2.111867e+01    1.080604e+00
  2.113455e+01    1.113605e+00
  2.115042e+01    1.094353e+00
  2.116630e+01    1.124892e+00
  2.118217e+01    1.116328e+00
  2.119805e+01    1.116332e+00
  2.121392e+01    1.120423e+00
  2.122980e+01    1.114349e+00
  2.124567e+01    1.110258e+00
  2.126155e+01    1.111675e+00
  2.127743e+01    1.142319e+00
  2.129330e+01    1.130530e+00
  2.130918e+01    1.138908e+00
  2.132505e+01    1.142219e+00
  2.134093e+01    1.155457e+00
  2.135680e+01    1.189250e+00
  2.137268e+01    1.183722e+00
  2.138855e+01    1.186570e+00
  2.140443e+01    1.201330e+00
  2.142031e+01    1.197069e+00
  2.143618e+01    1.211729e+00
  2.145206e+01    1.228536e+00
  2.146793e+01    1.230678e+00
  2.148381e+01    1.264312e+00
  2.149968e+01    1.276927e+00
  2.151556e+01    1.308324e+00
  2.153143e+01    1.337771e+00
  2.154731e+01    1.359794e+00
  2.156319e+01    1.383887e+00
  2.157906e+01    1.444656e+00
  2.159494e+01    1.483658e+00
  2.161081e+01    1.549022e+00
  2.162669e+01    1.647185e+00
  2.164256e+01    1.715016e+00
  2.165844e+01    1.841522e+00
  2.167431e+01    1.986080e+00
  2.169019e+01    2.128701e+00
  2.170607e+01    2.334443e+00
  2.172194e+01    2.589935e+00
  2.173782e+01    2.911609e+00
  2.175369e+01    3.245593e+00
  2.176957e+01    3.705782e+00
  2.178544e+01    4.241639e+00
  2.180132e+01    4.942800e+00
  2.181719e+01    5.670325e+00
  2.183307e+01    6.431893e+00
  2.184895e+01    7.262986e+00
  2.186482e+01    8.189386e+00
  2.188070e+01    9.015840e+00
  2.189657e+01    9.842536e+00
  2.191245e+01    1.051926e+01
  2.192832e+01    1.084134e+01
  2.194420e+01    1.079397e+01
  2.196007e+01    1.023680e+01
  2.197595e+01    9.315682e+00
  2.199183e+01    8.118226e+00
  2.200770e+01    6.944147e+00
  2.202358e+01    5.849442e+00
  2.203945e+01    4.989230e+00
  2.205533e+01    4.220726e+00
  2.207120e+01    3.597787e+00
  2.208708e+01    3.148398e+00
  2.210296e+01    2.795871e+00
  2.211883e+01    2.506925e+00
  2.213471e+01    2.293149e+00
  2.215058e+01    2.121397e+00
  2.216646e+01    1.938331e+00
  2.218233e+01    1.811108e+00
  2.219821e+01    1.673513e+00
  2.221408e+01    1.580118e+00
  2.222996e+01    1.546693e+00
  2.224584e+01    1.497110e+00
  2.226171e+01    1.399096e+00
  2.227759e+01    1.362581e+00
  2.229346e+01    1.330081e+00
  2.230934e+01    1.311105e+00
  2.232521e+01    1.258046e+00
  2.234109e+01    1.241945e+00
  2.235696e+01    1.210299e+00
  2.237284e+01    1.175621e+00
  2.238872e+01    1.163551e+00
  2.240459e+01    1.154886e+00
  2.242047e+01    1.151990e+00
  2.243634e+01    1.126371e+00
  2.245222e+01    1.091521e+00
  2.246809e+01    1.068290e+00
  2.248397e+01    1.076920e+00
  2.249984e+01    1.075832e+00
  2.251572e+01    1.054947e+00
  2.253160e+01    1.053403e+00
  2.254747e+01    1.049332e+00
  2.256335e+01    1.035128e+00
  2.257922e+01    1.032161e+00
  2.259510e+01    1.009880e+00
  2.261097e+01    1.031033e+00
  2.262685e+01    1.009666e+00
  2.264272e+01    9.840623e-01
  2.265860e+01    9.816052e-01
  2.267448e+01    1.004232e+00
  2.269035e+01    1.005211e+00
  2.270623e+01    9.829081e-01
  2.272210e+01    9.581603e-01
  2.273798e+01    9.736201e-01
  2.275385e+01    9.730480e-01
  2.276973e+01    9.462397e-01
  2.278560e+01    9.559816e-01
  2.280148e+01    9.516508e-01
  2.281736e+01    9.611655e-01
  2.283323e+01    9.511669e-01
  2.284911e+01    9.416361e-01
  2.286498e+01    9.696661e-01
  2.288086e+01    9.513792e-01
  2.289673e+01    9.177814e-01
  2.291261e+01    9.144828e-01
  2.292848e+01    9.354157e-01
  2.294436e+01    9.229202e-01
  2.296024e+01    9.294962e-01
  2.297611e+01    9.030300e-01
  2.299199e+01    9.187807e-01
  2.300786e+01    9.107552e-01
  2.302374e+01    9.256338e-01
  2.303961e+01    9.500080e-01
  2.305549e+01    9.237522e-01
  2.307137e+01    8.960512e-01
  2.308724e+01    8.855473e-01
  2.310312e+01    9.032432e-01
  2.311899e+01    9.035692e-01
  2.313487e+01    9.148690e-01
  2.315074e+01    9.098443e-01
  2.316662e+01    9.097348e-01
  2.318249e+01    8.783987e-01
  2.319837e+01    8.578949e-01
  2.321425e+01    8.563804e-01
  2.323012e+01    8.592901e-01
  2.324600e+01    8.688625e-01
  2.326187e+01    8.692297e-01
  2.327775e+01    8.827755e-01
  2.329362e+01    9.087617e-01
  2.330950e+01    9.047866e-01
  2.332537e+01    8.871061e-01
  2.334125e+01    8.776404e-01
  2.335713e+01    8.688350e-01
  2.337300e+01    8.668911e-01
  2.338888e+01    8.838493e-01
  2.340475e+01    8.971135e-01
  2.342063e+01    8.771614e-01
  2.343650e+01    8.593758e-01
  2.345238e+01    8.704415e-01
  2.346825e+01    8.580600e-01
  2.348413e+01    8.807778e-01
  2.350001e+01    8.865885e-01
  2.351588e+01    8.549511e-01
  2.353176e+01    8.597823e-01
  2.354763e+01    8.417608e-01
  2.356351e+01    8.520510e-01
  2.357938e+01    8.577858e-01
  2.359526e+01    8.646691e-01
  2.361113e+01    8.532518e-01
  2.362701e+01    8.495472e-01
  2.364289e+01    8.463746e-01
  2.365876e+01    8.395084e-01
  2.367464e+01    8.334498e-01
  2.369051e+01    8.545125e-01
  2.370639e+01    8.351191e-01
  2.372226e+01    8.158975e-01
  2.373814e+01    8.246520e-01
  2.375401e+01    8.299724e-01
  2.376989e+01    8.378335e-01
  2.378577e+01    8.386304e-01
  2.380164e+01    8.282611e-01
  2.381752e+01    8.215357e-01
  2.383339e+01    8.141488e-01
  2.384927e+01    8.209743e-01
  2.386514e+01    8.220013e-01
  2.388102e+01    8.407840e-01
  2.389689e+01    8.177208e-01
  2.391277e+01    8.104950e-01
  2.392865e+01    8.238503e-01
  2.394452e+01    8.175300e-01
  2.396040e+01    8.021691e-01
  2.397627e+01    8.156412e-01
  2.399215e+01    8.267761e-01
  2.400802e+01    8.012314e-01
  2.402390e+01    7.900850e-01
  2.403978e+01    7.956576e-01
  2.405565e+01    7.864832e-01
  2.407153e+01    7.939745e-01
  2.408740e+01    8.083685e-01
  2.410328e+01    8.105985e-01
  2.411915e+01    8.101483e-01
  2.413503e+01    8.029312e-01
  2.415090e+01    7.972525e-01
  2.416678e+01    7.920852e-01
  2.418266e+01    7.985262e-01
  2.419853e+01    7.943180e-01
  2.421441e+01    7.994953e-01
  2.423028e+01    7.959251e-01
  2.424616e+01    8.049587e-01
  2.426203e+01    7.980304e-01
  2.427791e+01    8.088934e-01
  2.429378e+01    8.145031e-01
  2.430966e+01    8.151975e-01
  2.432554e+01    8.191498e-01
  2.434141e+01    8.092760e-01
  2.435729e+01    8.041859e-01
  2.437316e+01    7.923207e-01
  2.438904e+01    8.081046e-01
  2.440491e+01    8.049154e-01
  2.442079e+01    7.994462e-01
  2.443666e+01    7.959245e-01
  2.445254e+01    8.085990e-01
  2.446842e+01    7.995279e-01
  2.448429e+01    8.094279e-01
  2.450017e+01    8.147734e-01
  2.451604e+01    8.155175e-01
  2.453192e+01    8.149613e-01
  2.454779e+01    8.040791e-01
  2.456367e+01    7.935077e-01
  2.457954e+01    8.050888e-01
  2.459542e+01    8.119691e-01
  2.461130e+01    8.261729e-01
  2.462717e+01    8.247598e-01
  2.464305e+01    8.042605e-01
  2.465892e+01    8.032004e-01
  2.467480e+01    8.082864e-01
  2.469067e+01    7.957630e-01
  2.470655e+01    8.008506e-01
  2.472242e+01    8.212777e-01
  2.473830e+01    8.211200e-01
  2.475418e+01    8.169182e-01
  2.477005e+01    8.002626e-01
  2.478593e+01    8.033403e-01
  2.480180e+01    8.050817e-01
  2.481768e+01    8.036906e-01
  2.483355e+01    8.173945e-01
  2.484943e+01    8.006766e-01
  2.486530e+01    8.172557e-01
  2.488118e+01    8.192315e-01
  2.489706e+01    8.117960e-01
  2.491293e+01    8.233274e-01
  2.492881e+01    8.077215e-01
  2.494468e+01    8.098255e-01
  2.496056e+01    8.040730e-01
  2.497643e+01    8.006105e-01
  2.499231e+01    7.979662e-01
  2.500819e+01    7.979773e-01
  2.502406e+01    8.012834e-01
  2.503994e+01    8.281509e-01
  2.505581e+01    8.166973e-01
  2.507169e+01    8.270146e-01
  2.508756e+01    8.195050e-01
  2.510344e+01    8.018212e-01
  2.511931e+01    8.170086e-01
  2.513519e+01    8.204559e-01
  2.515107e+01    8.169845e-01
  2.516694e+01    8.292583e-01
  2.518282e+01    8.135114e-01
  2.519869e+01    8.220435e-01
  2.521457e+01    8.379461e-01
  2.523044e+01    8.574309e-01
  2.524632e+01    8.560832e-01
  2.526219e+01    8.506599e-01
  2.527807e+01    8.736332e-01
  2.529395e+01    8.885933e-01
  2.530982e+01    8.952711e-01
  2.532570e+01    8.844179e-01
  2.534157e+01    8.952407e-01
  2.535745e+01    8.880221e-01
  2.537332e+01    9.108861e-01
  2.538920e+01    9.182844e-01
  2.540507e+01    9.043251e-01
  2.542095e+01    9.293071e-01
  2.543683e+01    9.256234e-01
  2.545270e+01    9.509453e-01
  2.546858e+01    9.489806e-01
  2.548445e+01    9.538348e-01
  2.550033e+01    9.726242e-01
  2.551620e+01    9.792023e-01
  2.553208e+01    9.724029e-01
  2.554795e+01    1.000255e+00
  2.556383e+01    1.023404e+00
  2.557971e+01    1.053455e+00
  2.559558e+01    1.076384e+00
  2.561146e+01    1.118347e+00
  2.562733e+01    1.151946e+00
  2.564321e+01    1.176853e+00
  2.565908e+01    1.212080e+00
  2.567496e+01    1.275294e+00
  2.569083e+01    1.340101e+00
  2.570671e+01    1.429089e+00
  2.572259e+01    1.485881e+00
  2.573846e+01    1.575898e+00
  2.575434e+01    1.719904e+00
  2.577021e+01    1.852891e+00
  2.578609e+01    2.041413e+00
  2.580196e+01    2.285004e+00
  2.581784e+01    2.541832e+00
  2.583371e+01    2.877705e+00
  2.584959e+01    3.280566e+00
  2.586547e+01    3.737514e+00
  2.588134e+01    4.275662e+00
  2.589722e+01    4.943805e+00
  2.591309e+01    5.668472e+00
  2.592897e+01    6.380245e+00
  2.594484e+01    7.177281e+00
  2.596072e+01    7.922614e+00
  2.597660e+01    8.568971e+00
  2.599247e+01    8.982897e+00
  2.600835e+01    9.080345e+00
  2.602422e+01    8.757363e+00
  2.604010e+01    8.116182e+00
  2.605597e+01    7.275047e+00
  2.607185e+01    6.311093e+00
  2.608772e+01    5.402369e+00
  2.610360e+01    4.625721e+00
  2.611948e+01    3.920645e+00
  2.613535e+01    3.416008e+00
  2.615123e+01    2.968023e+00
  2.616710e+01    2.620173e+00
  2.618298e+01    2.336145e+00
  2.619885e+01    2.132225e+00
  2.621473e+01    1.930642e+00
  2.623060e+01    1.789894e+00
  2.624648e+01    1.650373e+00
  2.626236e+01    1.540040e+00
  2.627823e+01    1.436637e+00
  2.629411e+01    1.374229e+00
  2.630998e+01    1.296692e+00
  2.632586e+01    1.236451e+00
  2.634173e+01    1.195418e+00
  2.635761e+01    1.167743e+00
  2.637348e+01    1.152285e+00
  2.638936e+01    1.126181e+00
  2.640524e+01    1.063272e+00
  2.642111e+01    1.045851e+00
  2.643699e+01    1.042843e+00
  2.645286e+01    1.024528e+00
  2.646874e+01    9.980009e-01
  2.648461e+01    9.874868e-01
  2.650049e+01    9.973139e-01
  2.651636e+01    9.887936e-01
  2.653224e+01    9.921884e-01
  2.654812e+01    9.924048e-01
  2.656399e+01    9.539170e-01
  2.657987e+01    9.492220e-01
  2.659574e+01    9.532992e-01
  2.661162e+01    9.348728e-01
  2.662749e+01    9.207006e-01
  2.664337e+01    9.506909e-01
  2.665924e+01    9.550359e-01
  2.667512e+01    9.438834e-01
  2.669100e+01    9.381942e-01
  2.670687e+01    9.313479e-01
  2.672275e+01    9.199430e-01
  2.673862e+01    9.323170e-01
  2.675450e+01    9.407377e-01
  2.677037e+01    9.394160e-01
  2.678625e+01    9.385378e-01
  2.680212e+01    9.583228e-01
  2.681800e+01    9.290789e-01
  2.683388e+01    9.274576e-01
  2.684975e+01    9.199027e-01
  2.686563e+01    9.073621e-01
  2.688150e+01    9.255365e-01
  2.689738e+01    9.383584e-01
  2.691325e+01    9.472450e-01
  2.692913e+01    9.383243e-01
  2.694501e+01    9.502943e-01
  2.696088e+01    9.581295e-01
  2.697676e+01    9.791366e-01
  2.699263e+01    1.014317e+00
  2.700851e+01    1.036365e+00
  2.702438e+01    1.044664e+00
  2.704026e+01    1.066448e+00
  2.705613e+01    1.105163e+00
  2.707201e+01    1.139112e+00
  2.708789e+01    1.232124e+00
  2.710376e+01    1.303843e+00
  2.711964e+01    1.357300e+00
  2.713551e+01    1.507474e+00
  2.715139e+01    1.619793e+00
  2.716726e+01    1.724951e+00
  2.718314e+01    1.872707e+00
  2.719901e+01    2.063756e+00
  2.721489e+01    2.227914e+00
  2.723077e+01    2.422486e+00
  2.724664e+01    2.531867e+00
  2.726252e+01    2.567119e+00
  2.727839e+01    2.574900e+00
  2.729427e+01    2.448002e+00
  2.731014e+01    2.297123e+00
  2.732602e+01    2.103789e+00
  2.734189e+01    1.932534e+00
  2.735777e+01    1.776820e+00
  2.737365e+01    1.578860e+00
  2.738952e+01    1.438845e+00
  2.740540e+01    1.349009e+00
  2.742127e+01    1.275962e+00
  2.743715e+01    1.212432e+00
  2.745302e+01    1.166736e+00
  2.746890e+01    1.116644e+00
  2.748477e+01    1.076583e+00
  2.750065e+01    1.024882e+00
  2.751653e+01    9.772320e-01
  2.753240e+01    9.540349e-01
  2.754828e+01    9.251195e-01
  2.756415e+01    9.232739e-01
  2.758003e+01    9.232977e-01
  2.759590e+01    9.035871e-01
  2.761178e+01    8.870750e-01
  2.762765e+01    8.813630e-01
  2.764353e+01    8.905255e-01
  2.765941e+01    8.713096e-01
  2.767528e+01    8.695701e-01
  2.769116e+01    8.609816e-01
  2.770703e+01    8.630308e-01
  2.772291e+01    8.483086e-01
  2.773878e+01    8.526808e-01
  2.775466e+01    8.474519e-01
  2.777054e+01    8.435866e-01
  2.778641e+01    8.437259e-01
  2.780229e+01    8.405471e-01
  2.781816e+01    8.443590e-01
  2.783404e+01    8.358691e-01
  2.784991e+01    8.314971e-01
  2.786579e+01    8.236997e-01
  2.788166e+01    8.369290e-01
  2.789754e+01    8.312655e-01
  2.791342e+01    8.215396e-01
  2.792929e+01    8.275930e-01
  2.794517e+01    8.334563e-01
  2.796104e+01    8.366989e-01
  2.797692e+01    8.243067e-01
  2.799279e+01    8.315495e-01
  2.800867e+01    8.168616e-01
  2.802454e+01    7.906869e-01
  2.804042e+01    7.978474e-01
  2.805630e+01    8.193844e-01
  2.807217e+01    7.939501e-01
  2.808805e+01    8.096687e-01
  2.810392e+01    8.152130e-01
  2.811980e+01    8.023813e-01
  2.813567e+01    8.092390e-01
  2.815155e+01    8.018731e-01
  2.816742e+01    7.975168e-01
  2.818330e+01    7.826180e-01
  2.819918e+01    8.001450e-01
  2.821505e+01    7.849566e-01
  2.823093e+01    8.042564e-01
  2.824680e+01    7.990191e-01
  2.826268e+01    7.947691e-01
  2.827855e+01    7.958243e-01
  2.829443e+01    7.990087e-01
  2.831030e+01    7.939177e-01
  2.832618e+01    7.959475e-01
  2.834206e+01    7.853011e-01
  2.835793e+01    7.962177e-01
  2.837381e+01    7.868416e-01
  2.838968e+01    8.036413e-01
  2.840556e+01    8.000504e-01
  2.842143e+01    7.886954e-01
  2.843731e+01    7.732656e-01
  2.845318e+01    7.752098e-01
  2.846906e+01    7.787324e-01
  2.848494e+01    7.683664e-01
  2.850081e+01    7.620876e-01
  2.851669e+01    7.731771e-01
  2.853256e+01    7.676672e-01
  2.854844e+01    7.653412e-01
  2.856431e+01    7.631438e-01
  2.858019e+01    7.689634e-01
  2.859606e+01    7.550327e-01
  2.861194e+01    7.588197e-01
  2.862782e+01    7.633902e-01
  2.864369e+01    7.739568e-01
  2.865957e+01    7.669865e-01
  2.867544e+01    7.824504e-01
  2.869132e+01    7.801788e-01
  2.870719e+01    7.661256e-01
  2.872307e+01    7.645927e-01
  2.873895e+01    7.645541e-01
  2.875482e+01    7.485496e-01
  2.877070e+01    7.598990e-01
  2.878657e+01    7.484729e-01
  2.880245e+01    7.492765e-01
  2.881832e+01    7.704546e-01
  2.883420e+01    7.690915e-01
  2.885007e+01    7.810273e-01
  2.886595e+01    7.744715e-01
  2.888183e+01    7.805688e-01
  2.889770e+01    7.557300e-01
  2.891358e+01    7.429374e-01
  2.892945e+01    7.575746e-01
  2.894533e+01    7.765493e-01
  2.896120e+01    7.720524e-01
  2.897708e+01    7.675971e-01
  2.899295e+01    7.488801e-01
  2.900883e+01    7.844850e-01
  2.902471e+01    7.953554e-01
  2.904058e+01    7.559781e-01
  2.905646e+01    7.575254e-01
  2.907233e+01    7.446740e-01
  2.908821e+01    7.394539e-01
  2.910408e+01    7.444900e-01
  2.911996e+01    7.505164e-01
  2.913583e+01    7.475865e-01
  2.915171e+01    7.427575e-01
  2.916759e+01    7.533438e-01
  2.918346e+01    7.566159e-01
  2.919934e+01    7.670557e-01
  2.921521e+01    7.622527e-01
  2.923109e+01    7.441213e-01
  2.924696e+01    7.408626e-01
  2.926284e+01    7.541077e-01
  2.927871e+01    7.479365e-01
  2.929459e+01    7.491696e-01
  2.931047e+01    7.477022e-01
  2.932634e+01    7.308332e-01
  2.934222e+01    7.224235e-01
  2.935809e+01    7.568747e-01
  2.937397e+01    7.632669e-01
  2.938984e+01    7.540144e-01
  2.940572e+01    7.300202e-01
  2.942159e+01    7.345051e-01
  2.943747e+01    7.408818e-01
  2.945335e+01    7.213804e-01
  2.946922e+01    7.319814e-01
  2.948510e+01    7.387173e-01
  2.950097e+01    7.220176e-01
  2.951685e+01    7.161836e-01
  2.953272e+01    7.279720e-01
  2.954860e+01    7.222369e-01
  2.956447e+01    7.288207e-01
  2.958035e+01    7.194973e-01
  2.959623e+01    7.306889e-01
  2.961210e+01    7.457066e-01
  2.962798e+01    7.523140e-01
  2.964385e+01    7.299091e-01
  2.965973e+01    7.262970e-01
  2.967560e+01    7.458462e-01
  2.969148e+01    7.380079e-01
  2.970736e+01    7.345505e-01
  2.972323e+01    7.184860e-01
  2.973911e+01    7.205755e-01
  2.975498e+01    7.342775e-01
  2.977086e+01    7.243985e-01
  2.978673e+01    7.388729e-01
  2.980261e+01    7.351211e-01
  2.981848e+01    7.489094e-01
  2.983436e+01    7.503572e-01
  2.985024e+01    7.558722e-01
  2.986611e+01    7.474546e-01
  2.988199e+01    7.263994e-01
  2.989786e+01    7.222881e-01
  2.991374e+01    7.401566e-01
  2.992961e+01    7.399564e-01
  2.994549e+01    7.263812e-01
  2.996136e+01    7.456720e-01
  2.997724e+01    7.663795e-01
  2.999312e+01    7.644425e-01
  3.000899e+01    7.373181e-01
  3.002487e+01    7.369950e-01
  3.004074e+01    7.243018e-01
  3.005662e+01    7.434108e-01
  3.007249e+01    7.349566e-01
  3.008837e+01    7.317601e-01
  3.010424e+01    7.320457e-01
  3.012012e+01    7.313303e-01
  3.013600e+01    7.238841e-01
  3.015187e+01    7.366922e-01
  3.016775e+01    7.430516e-01
  3.018362e+01    7.290646e-01
  3.019950e+01    7.298920e-01
  3.021537e+01    7.442294e-01
  3.023125e+01    7.081186e-01
  3.024712e+01    7.160700e-01
  3.026300e+01    7.181120e-01
  3.027888e+01    7.358686e-01
  3.029475e+01    7.282326e-01
  3.031063e+01    7.212992e-01
  3.032650e+01    7.109990e-01
  3.034238e+01    7.231060e-01
  3.035825e+01    7.185137e-01
  3.037413e+01    7.309526e-01
  3.039000e+01    7.230935e-01
  3.040588e+01    7.323228e-01
  3.042176e+01    7.312114e-01
  3.043763e+01    7.294244e-01
  3.045351e+01    7.214965e-01
  3.046938e+01    7.277496e-01
  3.048526e+01    7.260074e-01
  3.050113e+01    7.341582e-01
  3.051701e+01    7.249525e-01
  3.053288e+01    7.182849e-01
  3.054876e+01    7.249069e-01
  3.056464e+01    7.255149e-01
  3.058051e+01    7.088022e-01
  3.059639e+01    6.879892e-01
  3.061226e+01    7.188460e-01
  3.062814e+01    7.261865e-01
  3.064401e+01    6.999693e-01
  3.065989e+01    7.313253e-01
  3.067577e+01    7.338860e-01
  3.069164e+01    7.299160e-01
  3.070752e+01    7.299581e-01
  3.072339e+01    7.226341e-01
  3.073927e+01    7.328140e-01
  3.075514e+01    7.352474e-01
  3.077102e+01    7.368180e-01
  3.078689e+01    7.226593e-01
  3.080277e+01    7.361426e-01
  3.081865e+01    7.421097e-01
  3.083452e+01    7.185288e-01
  3.085040e+01    7.271936e-01
  3.086627e+01    7.412419e-01
  3.088215e+01    7.394143e-01
  3.089802e+01    7.360088e-01
  3.091390e+01    7.258907e-01
  3.092977e+01    7.287070e-01
  3.094565e+01    7.288980e-01
  3.096153e+01    7.197518e-01
  3.097740e+01    7.209791e-01
  3.099328e+01    7.259312e-01
  3.100915e+01    7.384544e-01
  3.102503e+01    7.348141e-01
  3.104090e+01    7.126520e-01
  3.105678e+01    7.122285e-01
  3.107265e+01    7.260693e-01
  3.108853e+01    7.414309e-01
  3.110441e+01    7.463868e-01
  3.112028e+01    7.294266e-01
  3.113616e+01    7.150969e-01
  3.115203e+01    7.175065e-01
  3.116791e+01    7.421179e-01
  3.118378e+01    7.336398e-01
  3.119966e+01    7.272877e-01
  3.121553e+01    7.142375e-01
  3.123141e+01    7.385743e-01
  3.124729e+01    7.618626e-01
  3.126316e+01    7.498910e-01
  3.127904e+01    7.368811e-01
  3.129491e+01    7.563789e-01
  3.131079e+01    7.481589e-01
  3.132666e+01    7.302602e-01
  3.134254e+01    7.429970e-01
  3.135841e+01    7.411536e-01
  3.137429e+01    7.567713e-01
  3.139017e+01    7.673346e-01
  3.140604e+01    7.522733e-01
  3.142192e+01    7.638916e-01
  3.143779e+01    7.805426e-01
  3.145367e+01    7.694691e-01
  3.146954e+01    7.726213e-01
  3.148542e+01    7.652819e-01
  3.150129e+01    7.723345e-01
  3.151717e+01    7.915090e-01
  3.153305e+01    7.988502e-01
  3.154892e+01    8.113360e-01
  3.156480e+01    8.106598e-01
  3.158067e+01    8.236470e-01
  3.159655e+01    8.300632e-01
  3.161242e+01    8.321368e-01
  3.162830e+01    8.372939e-01
  3.164418e+01    8.505168e-01
  3.166005e+01    8.518106e-01
  3.167593e+01    8.587433e-01
  3.169180e+01    9.211041e-01
  3.170768e+01    9.368910e-01
  3.172355e+01    9.516587e-01
  3.173943e+01    9.772020e-01
  3.175530e+01    1.058450e+00
  3.177118e+01    1.103042e+00
  3.178706e+01    1.127799e+00
  3.180293e+01    1.216946e+00
  3.181881e+01    1.311157e+00
  3.183468e+01    1.419025e+00
  3.185056e+01    1.545686e+00
  3.186643e+01    1.716522e+00
  3.188231e+01    1.894078e+00
  3.189818e+01    2.097025e+00
  3.191406e+01    2.306440e+00
  3.192994e+01    2.425608e+00
  3.194581e+01    2.525384e+00
  3.196169e+01    2.554870e+00
  3.197756e+01    2.539051e+00
  3.199344e+01    2.402310e+00
  3.200931e+01    2.224326e+00
  3.202519e+01    2.071834e+00
  3.204106e+01    1.893375e+00
  3.205694e+01    1.680546e+00
  3.207282e+01    1.535485e+00
  3.208869e+01    1.376750e+00
  3.210457e+01    1.274785e+00
  3.212044e+01    1.167216e+00
  3.213632e+01    1.103968e+00
  3.215219e+01    1.031201e+00
  3.216807e+01    9.949679e-01
  3.218394e+01    9.558297e-01
  3.219982e+01    8.977475e-01
  3.221570e+01    8.725991e-01
  3.223157e+01    8.734235e-01
  3.224745e+01    8.676669e-01
  3.226332e+01    8.243416e-01
  3.227920e+01    8.450662e-01
  3.229507e+01    8.125154e-01
  3.231095e+01    8.279740e-01
  3.232682e+01    7.979671e-01
  3.234270e+01    7.601056e-01
  3.235858e+01    7.809842e-01
  3.237445e+01    7.937300e-01
  3.239033e+01    7.695663e-01
  3.240620e+01    7.719817e-01
  3.242208e+01    7.812513e-01
  3.243795e+01    7.852125e-01
  3.245383e+01    7.531746e-01
  3.246970e+01    7.471142e-01
  3.248558e+01    7.214236e-01
  3.250146e+01    7.248571e-01
  3.251733e+01    7.503055e-01
  3.253321e+01    7.548678e-01
  3.254908e+01    7.445855e-01
