# == pyFAI calibration ==
# Distance Sample to Detector: 0.3999999939076516 m
# PONI: 9.750e-02, 1.135e-01 m
# Rotations: -0.000175 0.000000 -0.000000 rad
# 
# == Fit2d calibration ==
# Distance Sample-beamCenter: 400.000 mm
# Center: x=1514.000, y=1300.000 pix
# Tilt: 0.010 deg  TiltPlanRot: 0.010 deg
# 
# Detector Detector	 Spline= None	 PixelSize= 7.500e-05, 7.500e-05 m
#    Detector has a mask: False 
#    Detector has a dark current: False 
#    detector has a flat field: False 
# 
# Wavelength: 6.888e-11 m
# Mask applied: user provided
# Dark current applied: False
# Flat field applied: False
# Polarization factor: 0.99
# Normalization factor: 1.0
# --> /home/myspot/data/2024_07_Rosario/Ru-CGO-ex/2024-07-27_002_Ru-CGO-ex_Activtation_ramp_000002_data_000150.dat
#       q_nm^-1             I 
  2.003187e-02    0.000000e+00
  3.590745e-02    0.000000e+00
  5.178302e-02    1.210592e-01
  6.765859e-02    1.420581e-01
  8.353417e-02    2.592503e-03
  9.940974e-02    0.000000e+00
  1.152853e-01    4.858284e-02
  1.311609e-01    8.950920e-02
  1.470365e-01    4.738371e-02
  1.629120e-01    8.020601e-02
  1.787876e-01    4.226905e-02
  1.946632e-01    9.983838e-02
  2.105388e-01    4.445216e-02
  2.264143e-01    6.567941e-02
  2.422899e-01    4.637802e-02
  2.581655e-01    2.320749e-02
  2.740411e-01    8.741640e-03
  2.899166e-01    1.493016e-02
  3.057922e-01    2.440934e-02
  3.216678e-01    3.754994e-02
  3.375433e-01    4.012853e-02
  3.534189e-01    3.015928e-02
  3.692945e-01    1.897428e-02
  3.851701e-01    3.509704e-02
  4.010456e-01    1.478906e-02
  4.169212e-01    2.266036e-02
  4.327968e-01    3.047222e-02
  4.486724e-01    2.660406e-02
  4.645479e-01    1.704769e-02
  4.804235e-01    2.349037e-02
  4.962991e-01    5.466764e-02
  5.121747e-01    6.240918e-02
  5.280502e-01    3.007238e-02
  5.439258e-01    3.127847e-02
  5.598014e-01    6.678291e-02
  5.756770e-01    3.640202e-02
  5.915525e-01    5.118584e-02
  6.074281e-01    4.528061e-02
  6.233037e-01    6.405675e-02
  6.391793e-01    4.360621e-02
  6.550548e-01    8.457161e-03
  6.709304e-01    4.292214e-02
  6.868060e-01    4.556322e-02
  7.026815e-01    5.140424e-02
  7.185571e-01    3.886211e-02
  7.344327e-01    1.933868e-02
  7.503083e-01    1.473379e-02
  7.661838e-01    5.402369e-02
  7.820594e-01    9.352314e-02
  7.979350e-01    1.748292e-01
  8.138106e-01    2.109993e-01
  8.296861e-01    2.183737e-01
  8.455617e-01    3.190714e-01
  8.614373e-01    4.093415e-01
  8.773129e-01    4.979407e-01
  8.931884e-01    5.720685e-01
  9.090640e-01    5.929188e-01
  9.249396e-01    7.055593e-01
  9.408152e-01    7.651379e-01
  9.566907e-01    7.542032e-01
  9.725663e-01    8.538471e-01
  9.884419e-01    8.730313e-01
  1.004317e+00    1.044252e+00
  1.020193e+00    1.189458e+00
  1.036069e+00    1.165699e+00
  1.051944e+00    1.144423e+00
  1.067820e+00    1.257366e+00
  1.083695e+00    1.349876e+00
  1.099571e+00    1.452849e+00
  1.115446e+00    1.447572e+00
  1.131322e+00    1.420317e+00
  1.147198e+00    1.486756e+00
  1.163073e+00    1.508226e+00
  1.178949e+00    1.526454e+00
  1.194824e+00    1.645588e+00
  1.210700e+00    1.766305e+00
  1.226575e+00    1.934801e+00
  1.242451e+00    2.151784e+00
  1.258327e+00    2.344886e+00
  1.274202e+00    2.405247e+00
  1.290078e+00    2.478933e+00
  1.305953e+00    2.395193e+00
  1.321829e+00    2.543852e+00
  1.337705e+00    2.540376e+00
  1.353580e+00    2.436090e+00
  1.369456e+00    2.530828e+00
  1.385331e+00    2.568814e+00
  1.401207e+00    2.580167e+00
  1.417082e+00    2.579279e+00
  1.432958e+00    2.665663e+00
  1.448834e+00    2.748749e+00
  1.464709e+00    2.815058e+00
  1.480585e+00    2.898948e+00
  1.496460e+00    2.930868e+00
  1.512336e+00    2.931762e+00
  1.528211e+00    2.981807e+00
  1.544087e+00    3.105582e+00
  1.559963e+00    3.033380e+00
  1.575838e+00    2.940077e+00
  1.591714e+00    2.938653e+00
  1.607589e+00    3.000701e+00
  1.623465e+00    3.022946e+00
  1.639340e+00    2.878691e+00
  1.655216e+00    2.850861e+00
  1.671092e+00    2.684472e+00
  1.686967e+00    2.711330e+00
  1.702843e+00    2.770608e+00
  1.718718e+00    2.761679e+00
  1.734594e+00    2.621884e+00
  1.750469e+00    2.743747e+00
  1.766345e+00    2.892504e+00
  1.782221e+00    2.946776e+00
  1.798096e+00    2.858917e+00
  1.813972e+00    2.674665e+00
  1.829847e+00    2.787527e+00
  1.845723e+00    2.941543e+00
  1.861598e+00    2.851405e+00
  1.877474e+00    2.781927e+00
  1.893350e+00    2.703217e+00
  1.909225e+00    2.730347e+00
  1.925101e+00    2.753703e+00
  1.940976e+00    2.691691e+00
  1.956852e+00    2.713268e+00
  1.972727e+00    2.801636e+00
  1.988603e+00    2.820857e+00
  2.004479e+00    2.827256e+00
  2.020354e+00    2.733639e+00
  2.036230e+00    2.722560e+00
  2.052105e+00    2.729423e+00
  2.067981e+00    2.666713e+00
  2.083856e+00    2.656884e+00
  2.099732e+00    2.749320e+00
  2.115608e+00    2.779154e+00
  2.131483e+00    2.737535e+00
  2.147359e+00    2.778031e+00
  2.163234e+00    2.692010e+00
  2.179110e+00    2.828116e+00
  2.194985e+00    2.729031e+00
  2.210861e+00    2.809762e+00
  2.226737e+00    2.776088e+00
  2.242612e+00    2.727496e+00
  2.258488e+00    2.782309e+00
  2.274363e+00    2.781459e+00
  2.290239e+00    2.780772e+00
  2.306115e+00    2.763404e+00
  2.321990e+00    2.712378e+00
  2.337866e+00    2.823793e+00
  2.353741e+00    2.798750e+00
  2.369617e+00    2.735499e+00
  2.385492e+00    2.687760e+00
  2.401368e+00    2.763522e+00
  2.417244e+00    2.624713e+00
  2.433119e+00    2.641810e+00
  2.448995e+00    2.719974e+00
  2.464870e+00    2.747021e+00
  2.480746e+00    2.768172e+00
  2.496621e+00    2.774800e+00
  2.512497e+00    2.748495e+00
  2.528373e+00    2.870206e+00
  2.544248e+00    2.857687e+00
  2.560124e+00    2.784647e+00
  2.575999e+00    2.722492e+00
  2.591875e+00    2.754020e+00
  2.607750e+00    2.784215e+00
  2.623626e+00    2.842434e+00
  2.639502e+00    2.871630e+00
  2.655377e+00    2.804863e+00
  2.671253e+00    2.848784e+00
  2.687128e+00    2.899039e+00
  2.703004e+00    2.762543e+00
  2.718879e+00    2.822093e+00
  2.734755e+00    2.783807e+00
  2.750631e+00    2.765234e+00
  2.766506e+00    2.837773e+00
  2.782382e+00    2.816017e+00
  2.798257e+00    2.797155e+00
  2.814133e+00    2.815906e+00
  2.830008e+00    2.868840e+00
  2.845884e+00    2.867486e+00
  2.861760e+00    2.945637e+00
  2.877635e+00    2.834296e+00
  2.893511e+00    2.832372e+00
  2.909386e+00    2.892637e+00
  2.925262e+00    2.798243e+00
  2.941137e+00    2.872413e+00
  2.957013e+00    2.902285e+00
  2.972889e+00    2.906111e+00
  2.988764e+00    2.839792e+00
  3.004640e+00    2.834924e+00
  3.020515e+00    2.838627e+00
  3.036391e+00    2.859796e+00
  3.052266e+00    2.813167e+00
  3.068142e+00    2.850092e+00
  3.084018e+00    2.924257e+00
  3.099893e+00    2.873344e+00
  3.115769e+00    2.886212e+00
  3.131644e+00    2.952254e+00
  3.147520e+00    2.986439e+00
  3.163395e+00    2.826435e+00
  3.179271e+00    2.848780e+00
  3.195147e+00    2.920400e+00
  3.211022e+00    2.898916e+00
  3.226898e+00    2.851976e+00
  3.242773e+00    2.868668e+00
  3.258649e+00    2.955660e+00
  3.274525e+00    2.874167e+00
  3.290400e+00    2.906803e+00
  3.306276e+00    2.873445e+00
  3.322151e+00    2.912133e+00
  3.338027e+00    2.972664e+00
  3.353902e+00    2.906795e+00
  3.369778e+00    2.755272e+00
  3.385654e+00    2.943353e+00
  3.401529e+00    3.028427e+00
  3.417405e+00    2.953624e+00
  3.433280e+00    2.916097e+00
  3.449156e+00    2.918978e+00
  3.465031e+00    2.883432e+00
  3.480907e+00    2.957296e+00
  3.496783e+00    2.953524e+00
  3.512658e+00    2.976514e+00
  3.528534e+00    2.979277e+00
  3.544409e+00    2.957028e+00
  3.560285e+00    2.988871e+00
  3.576160e+00    3.061016e+00
  3.592036e+00    3.074488e+00
  3.607912e+00    2.957974e+00
  3.623787e+00    3.013237e+00
  3.639663e+00    3.013116e+00
  3.655538e+00    2.971982e+00
  3.671414e+00    2.995965e+00
  3.687289e+00    2.988736e+00
  3.703165e+00    2.958943e+00
  3.719041e+00    2.977760e+00
  3.734916e+00    2.989080e+00
  3.750792e+00    3.102611e+00
  3.766667e+00    3.071276e+00
  3.782543e+00    3.025149e+00
  3.798418e+00    3.005944e+00
  3.814294e+00    2.940176e+00
  3.830170e+00    3.031625e+00
  3.846045e+00    3.097208e+00
  3.861921e+00    3.045034e+00
  3.877796e+00    2.990263e+00
  3.893672e+00    3.089218e+00
  3.909547e+00    2.991132e+00
  3.925423e+00    3.021884e+00
  3.941299e+00    2.982275e+00
  3.957174e+00    2.993183e+00
  3.973050e+00    3.000428e+00
  3.988925e+00    3.073023e+00
  4.004801e+00    3.067123e+00
  4.020676e+00    3.101638e+00
  4.036552e+00    3.094852e+00
  4.052428e+00    2.933949e+00
  4.068303e+00    2.860193e+00
  4.084179e+00    2.995286e+00
  4.100054e+00    3.017550e+00
  4.115930e+00    3.058962e+00
  4.131806e+00    3.101788e+00
  4.147681e+00    3.063216e+00
  4.163557e+00    3.092221e+00
  4.179432e+00    3.093451e+00
  4.195308e+00    3.060650e+00
  4.211183e+00    3.023896e+00
  4.227059e+00    3.078825e+00
  4.242935e+00    3.081735e+00
  4.258810e+00    3.057549e+00
  4.274686e+00    3.090083e+00
  4.290561e+00    3.115183e+00
  4.306437e+00    3.060132e+00
  4.322312e+00    2.988205e+00
  4.338188e+00    3.069253e+00
  4.354064e+00    3.091859e+00
  4.369939e+00    2.996113e+00
  4.385815e+00    3.068517e+00
  4.401690e+00    3.134860e+00
  4.417566e+00    3.021991e+00
  4.433441e+00    3.089550e+00
  4.449317e+00    2.989383e+00
  4.465193e+00    3.044984e+00
  4.481068e+00    3.124299e+00
  4.496944e+00    3.095907e+00
  4.512819e+00    3.076058e+00
  4.528695e+00    3.140744e+00
  4.544570e+00    3.077170e+00
  4.560446e+00    3.041509e+00
  4.576322e+00    3.035832e+00
  4.592197e+00    3.070960e+00
  4.608073e+00    3.048855e+00
  4.623948e+00    3.101844e+00
  4.639824e+00    3.164036e+00
  4.655699e+00    3.176961e+00
  4.671575e+00    3.098136e+00
  4.687451e+00    3.082428e+00
  4.703326e+00    3.143658e+00
  4.719202e+00    3.188526e+00
  4.735077e+00    3.122556e+00
  4.750953e+00    3.079719e+00
  4.766828e+00    3.117161e+00
  4.782704e+00    3.077862e+00
  4.798580e+00    3.152262e+00
  4.814455e+00    3.095456e+00
  4.830331e+00    3.019304e+00
  4.846206e+00    3.192863e+00
  4.862082e+00    3.221103e+00
  4.877957e+00    3.104128e+00
  4.893833e+00    3.163932e+00
  4.909709e+00    3.154155e+00
  4.925584e+00    3.203544e+00
  4.941460e+00    3.161040e+00
  4.957335e+00    3.117352e+00
  4.973211e+00    3.151690e+00
  4.989086e+00    3.124850e+00
  5.004962e+00    3.155021e+00
  5.020838e+00    3.195186e+00
  5.036713e+00    3.157072e+00
  5.052589e+00    3.136976e+00
  5.068464e+00    3.091658e+00
  5.084340e+00    3.120162e+00
  5.100216e+00    3.106047e+00
  5.116091e+00    3.096498e+00
  5.131967e+00    3.159342e+00
  5.147842e+00    3.159659e+00
  5.163718e+00    3.208911e+00
  5.179593e+00    3.151654e+00
  5.195469e+00    3.121304e+00
  5.211345e+00    3.148976e+00
  5.227220e+00    3.121444e+00
  5.243096e+00    3.085896e+00
  5.258971e+00    3.151664e+00
  5.274847e+00    3.118918e+00
  5.290722e+00    3.214112e+00
  5.306598e+00    3.190824e+00
  5.322474e+00    3.089129e+00
  5.338349e+00    3.141875e+00
  5.354225e+00    3.174670e+00
  5.370100e+00    3.136453e+00
  5.385976e+00    3.150737e+00
  5.401851e+00    3.209051e+00
  5.417727e+00    3.169635e+00
  5.433603e+00    3.043439e+00
  5.449478e+00    3.086666e+00
  5.465354e+00    3.139951e+00
  5.481229e+00    3.082171e+00
  5.497105e+00    3.089059e+00
  5.512980e+00    3.092377e+00
  5.528856e+00    3.113389e+00
  5.544732e+00    3.103222e+00
  5.560607e+00    3.059501e+00
  5.576483e+00    3.057306e+00
  5.592358e+00    3.191398e+00
  5.608234e+00    3.123449e+00
  5.624109e+00    3.107961e+00
  5.639985e+00    3.185253e+00
  5.655861e+00    3.167447e+00
  5.671736e+00    3.137294e+00
  5.687612e+00    3.045795e+00
  5.703487e+00    3.067206e+00
  5.719363e+00    3.117835e+00
  5.735238e+00    3.015988e+00
  5.751114e+00    3.066268e+00
  5.766990e+00    3.086965e+00
  5.782865e+00    3.096059e+00
  5.798741e+00    3.095414e+00
  5.814616e+00    3.073782e+00
  5.830492e+00    3.107769e+00
  5.846367e+00    3.170761e+00
  5.862243e+00    3.171475e+00
  5.878119e+00    3.063785e+00
  5.893994e+00    3.058775e+00
  5.909870e+00    3.029024e+00
  5.925745e+00    3.053148e+00
  5.941621e+00    3.068555e+00
  5.957497e+00    3.027853e+00
  5.973372e+00    3.012995e+00
  5.989248e+00    3.024772e+00
  6.005123e+00    3.008428e+00
  6.020999e+00    3.007810e+00
  6.036874e+00    2.997499e+00
  6.052750e+00    3.034004e+00
  6.068626e+00    3.105240e+00
  6.084501e+00    3.102251e+00
  6.100377e+00    3.097535e+00
  6.116252e+00    3.170363e+00
  6.132128e+00    3.081948e+00
  6.148003e+00    3.028085e+00
  6.163879e+00    3.040573e+00
  6.179755e+00    3.030504e+00
  6.195630e+00    3.055252e+00
  6.211506e+00    3.098910e+00
  6.227381e+00    3.100550e+00
  6.243257e+00    3.069857e+00
  6.259132e+00    3.065809e+00
  6.275008e+00    3.063968e+00
  6.290884e+00    3.115071e+00
  6.306759e+00    3.140931e+00
  6.322635e+00    3.060872e+00
  6.338510e+00    3.115695e+00
  6.354386e+00    3.100530e+00
  6.370261e+00    3.005869e+00
  6.386137e+00    3.030622e+00
  6.402013e+00    3.049828e+00
  6.417888e+00    3.041127e+00
  6.433764e+00    3.038970e+00
  6.449639e+00    2.980848e+00
  6.465515e+00    3.023587e+00
  6.481390e+00    3.056497e+00
  6.497266e+00    3.056967e+00
  6.513142e+00    3.090976e+00
  6.529017e+00    3.060451e+00
  6.544893e+00    2.991425e+00
  6.560768e+00    3.045933e+00
  6.576644e+00    3.045240e+00
  6.592519e+00    3.077593e+00
  6.608395e+00    3.064968e+00
  6.624271e+00    3.063506e+00
  6.640146e+00    3.125896e+00
  6.656022e+00    3.125331e+00
  6.671897e+00    3.104469e+00
  6.687773e+00    3.102760e+00
  6.703648e+00    3.129602e+00
  6.719524e+00    3.106632e+00
  6.735400e+00    3.055245e+00
  6.751275e+00    3.082187e+00
  6.767151e+00    3.113240e+00
  6.783026e+00    3.086256e+00
  6.798902e+00    3.003681e+00
  6.814777e+00    2.990935e+00
  6.830653e+00    3.066324e+00
  6.846529e+00    3.024284e+00
  6.862404e+00    3.021721e+00
  6.878280e+00    3.058203e+00
  6.894155e+00    3.045077e+00
  6.910031e+00    3.067496e+00
  6.925907e+00    3.067147e+00
  6.941782e+00    3.130793e+00
  6.957658e+00    3.109494e+00
  6.973533e+00    3.089890e+00
  6.989409e+00    3.001621e+00
  7.005284e+00    2.999681e+00
  7.021160e+00    3.021888e+00
  7.037036e+00    3.058045e+00
  7.052911e+00    3.074268e+00
  7.068787e+00    3.038574e+00
  7.084662e+00    3.039914e+00
  7.100538e+00    3.001595e+00
  7.116413e+00    3.024733e+00
  7.132289e+00    3.025758e+00
  7.148165e+00    3.030502e+00
  7.164040e+00    3.011378e+00
  7.179916e+00    3.008909e+00
  7.195791e+00    3.084222e+00
  7.211667e+00    3.009798e+00
  7.227542e+00    2.974368e+00
  7.243418e+00    2.971657e+00
  7.259294e+00    3.030748e+00
  7.275169e+00    3.014429e+00
  7.291045e+00    3.050536e+00
  7.306920e+00    3.048488e+00
  7.322796e+00    3.034986e+00
  7.338671e+00    2.986030e+00
  7.354547e+00    3.012868e+00
  7.370423e+00    3.021684e+00
  7.386298e+00    2.994696e+00
  7.402174e+00    2.967439e+00
  7.418049e+00    2.992570e+00
  7.433925e+00    3.014668e+00
  7.449800e+00    2.997834e+00
  7.465676e+00    3.040900e+00
  7.481552e+00    3.022676e+00
  7.497427e+00    3.005504e+00
  7.513303e+00    2.937646e+00
  7.529178e+00    2.959403e+00
  7.545054e+00    3.001892e+00
  7.560929e+00    2.991724e+00
  7.576805e+00    2.997322e+00
  7.592681e+00    3.025831e+00
  7.608556e+00    2.982292e+00
  7.624432e+00    2.968841e+00
  7.640307e+00    3.007244e+00
  7.656183e+00    3.047824e+00
  7.672058e+00    3.022183e+00
  7.687934e+00    2.942222e+00
  7.703810e+00    2.949911e+00
  7.719685e+00    2.919359e+00
  7.735561e+00    2.983628e+00
  7.751436e+00    3.052903e+00
  7.767312e+00    2.943734e+00
  7.783187e+00    2.978643e+00
  7.799063e+00    2.974470e+00
  7.814939e+00    2.986119e+00
  7.830814e+00    2.952385e+00
  7.846690e+00    2.963300e+00
  7.862565e+00    2.961967e+00
  7.878441e+00    2.983907e+00
  7.894317e+00    2.951476e+00
  7.910192e+00    2.945942e+00
  7.926068e+00    2.930963e+00
  7.941943e+00    2.890250e+00
  7.957819e+00    2.895277e+00
  7.973694e+00    2.936966e+00
  7.989570e+00    2.924531e+00
  8.005446e+00    2.902638e+00
  8.021321e+00    2.936869e+00
  8.037197e+00    2.941641e+00
  8.053072e+00    2.954734e+00
  8.068948e+00    2.936778e+00
  8.084823e+00    2.931821e+00
  8.100699e+00    2.955739e+00
  8.116575e+00    3.012125e+00
  8.132450e+00    3.010484e+00
  8.148326e+00    3.006425e+00
  8.164201e+00    2.976256e+00
  8.180077e+00    2.940416e+00
  8.195952e+00    3.000024e+00
  8.211828e+00    2.974620e+00
  8.227704e+00    2.928244e+00
  8.243579e+00    2.936434e+00
  8.259455e+00    2.977636e+00
  8.275330e+00    2.990634e+00
  8.291206e+00    2.931046e+00
  8.307081e+00    2.946555e+00
  8.322957e+00    2.969350e+00
  8.338833e+00    2.915951e+00
  8.354708e+00    2.979462e+00
  8.370584e+00    2.952137e+00
  8.386459e+00    2.953628e+00
  8.402335e+00    2.946762e+00
  8.418210e+00    2.939206e+00
  8.434086e+00    2.904744e+00
  8.449962e+00    2.874262e+00
  8.465837e+00    2.880439e+00
  8.481713e+00    2.925537e+00
  8.497588e+00    2.917084e+00
  8.513464e+00    2.948254e+00
  8.529339e+00    2.922012e+00
  8.545215e+00    2.906815e+00
  8.561091e+00    2.885913e+00
  8.576966e+00    2.853877e+00
  8.592842e+00    2.871125e+00
  8.608717e+00    2.879363e+00
  8.624593e+00    2.845793e+00
  8.640468e+00    2.876174e+00
  8.656344e+00    2.875453e+00
  8.672220e+00    2.889015e+00
  8.688095e+00    2.941393e+00
  8.703971e+00    2.898916e+00
  8.719846e+00    2.858373e+00
  8.735722e+00    2.865479e+00
  8.751598e+00    2.825520e+00
  8.767473e+00    2.796106e+00
  8.783349e+00    2.812188e+00
  8.799224e+00    2.910423e+00
  8.815100e+00    2.926854e+00
  8.830975e+00    2.846082e+00
  8.846851e+00    2.855566e+00
  8.862727e+00    2.812395e+00
  8.878602e+00    2.807027e+00
  8.894478e+00    2.785724e+00
  8.910353e+00    2.844548e+00
  8.926229e+00    2.819918e+00
  8.942104e+00    2.849024e+00
  8.957980e+00    2.867133e+00
  8.973856e+00    2.840086e+00
  8.989731e+00    2.834529e+00
  9.005607e+00    2.852515e+00
  9.021482e+00    2.884222e+00
  9.037358e+00    2.824099e+00
  9.053233e+00    2.817869e+00
  9.069109e+00    2.851736e+00
  9.084985e+00    2.857022e+00
  9.100860e+00    2.805752e+00
  9.116736e+00    2.802787e+00
  9.132611e+00    2.788428e+00
  9.148487e+00    2.781182e+00
  9.164362e+00    2.832585e+00
  9.180238e+00    2.767872e+00
  9.196114e+00    2.732701e+00
  9.211989e+00    2.799380e+00
  9.227865e+00    2.862212e+00
  9.243740e+00    2.784774e+00
  9.259616e+00    2.821911e+00
  9.275491e+00    2.783611e+00
  9.291367e+00    2.774444e+00
  9.307243e+00    2.804103e+00
  9.323118e+00    2.792596e+00
  9.338994e+00    2.791382e+00
  9.354869e+00    2.792108e+00
  9.370745e+00    2.805793e+00
  9.386620e+00    2.785395e+00
  9.402496e+00    2.830159e+00
  9.418372e+00    2.788665e+00
  9.434247e+00    2.748708e+00
  9.450123e+00    2.768757e+00
  9.465998e+00    2.771132e+00
  9.481874e+00    2.825557e+00
  9.497749e+00    2.778621e+00
  9.513625e+00    2.760060e+00
  9.529501e+00    2.787448e+00
  9.545376e+00    2.796008e+00
  9.561252e+00    2.766224e+00
  9.577127e+00    2.705483e+00
  9.593003e+00    2.727633e+00
  9.608878e+00    2.806125e+00
  9.624754e+00    2.798230e+00
  9.640630e+00    2.711128e+00
  9.656505e+00    2.740312e+00
  9.672381e+00    2.703998e+00
  9.688256e+00    2.724341e+00
  9.704132e+00    2.659491e+00
  9.720008e+00    2.691817e+00
  9.735883e+00    2.710674e+00
  9.751759e+00    2.738874e+00
  9.767634e+00    2.729825e+00
  9.783510e+00    2.736607e+00
  9.799385e+00    2.746650e+00
  9.815261e+00    2.696974e+00
  9.831137e+00    2.760886e+00
  9.847012e+00    2.786831e+00
  9.862888e+00    2.762575e+00
  9.878763e+00    2.705446e+00
  9.894639e+00    2.686178e+00
  9.910514e+00    2.687834e+00
  9.926390e+00    2.674994e+00
  9.942266e+00    2.698515e+00
  9.958141e+00    2.691814e+00
  9.974017e+00    2.712319e+00
  9.989892e+00    2.677442e+00
  1.000577e+01    2.672682e+00
  1.002164e+01    2.696595e+00
  1.003752e+01    2.693542e+00
  1.005339e+01    2.657623e+00
  1.006927e+01    2.621304e+00
  1.008515e+01    2.664501e+00
  1.010102e+01    2.688679e+00
  1.011690e+01    2.663674e+00
  1.013277e+01    2.642573e+00
  1.014865e+01    2.652378e+00
  1.016452e+01    2.651957e+00
  1.018040e+01    2.638183e+00
  1.019627e+01    2.625102e+00
  1.021215e+01    2.663166e+00
  1.022803e+01    2.628475e+00
  1.024390e+01    2.592130e+00
  1.025978e+01    2.593122e+00
  1.027565e+01    2.623963e+00
  1.029153e+01    2.606380e+00
  1.030740e+01    2.630009e+00
  1.032328e+01    2.635572e+00
  1.033915e+01    2.644579e+00
  1.035503e+01    2.660365e+00
  1.037091e+01    2.575355e+00
  1.038678e+01    2.592775e+00
  1.040266e+01    2.667215e+00
  1.041853e+01    2.669268e+00
  1.043441e+01    2.652419e+00
  1.045028e+01    2.639439e+00
  1.046616e+01    2.628063e+00
  1.048204e+01    2.635300e+00
  1.049791e+01    2.626091e+00
  1.051379e+01    2.623475e+00
  1.052966e+01    2.574590e+00
  1.054554e+01    2.600704e+00
  1.056141e+01    2.576343e+00
  1.057729e+01    2.643557e+00
  1.059316e+01    2.616852e+00
  1.060904e+01    2.591832e+00
  1.062492e+01    2.604454e+00
  1.064079e+01    2.578394e+00
  1.065667e+01    2.550440e+00
  1.067254e+01    2.583241e+00
  1.068842e+01    2.600546e+00
  1.070429e+01    2.590438e+00
  1.072017e+01    2.604127e+00
  1.073604e+01    2.580730e+00
  1.075192e+01    2.514981e+00
  1.076780e+01    2.550713e+00
  1.078367e+01    2.596364e+00
  1.079955e+01    2.522321e+00
  1.081542e+01    2.530366e+00
  1.083130e+01    2.563776e+00
  1.084717e+01    2.522773e+00
  1.086305e+01    2.485157e+00
  1.087892e+01    2.500870e+00
  1.089480e+01    2.539616e+00
  1.091068e+01    2.551301e+00
  1.092655e+01    2.511810e+00
  1.094243e+01    2.521713e+00
  1.095830e+01    2.561814e+00
  1.097418e+01    2.558701e+00
  1.099005e+01    2.545349e+00
  1.100593e+01    2.551260e+00
  1.102180e+01    2.544435e+00
  1.103768e+01    2.533245e+00
  1.105356e+01    2.529980e+00
  1.106943e+01    2.496314e+00
  1.108531e+01    2.455637e+00
  1.110118e+01    2.524368e+00
  1.111706e+01    2.511067e+00
  1.113293e+01    2.492488e+00
  1.114881e+01    2.492221e+00
  1.116468e+01    2.466435e+00
  1.118056e+01    2.467240e+00
  1.119644e+01    2.490611e+00
  1.121231e+01    2.443351e+00
  1.122819e+01    2.440332e+00
  1.124406e+01    2.422354e+00
  1.125994e+01    2.440124e+00
  1.127581e+01    2.442549e+00
  1.129169e+01    2.468669e+00
  1.130756e+01    2.469916e+00
  1.132344e+01    2.416029e+00
  1.133932e+01    2.450785e+00
  1.135519e+01    2.445764e+00
  1.137107e+01    2.387346e+00
  1.138694e+01    2.415694e+00
  1.140282e+01    2.461046e+00
  1.141869e+01    2.482880e+00
  1.143457e+01    2.472475e+00
  1.145045e+01    2.455029e+00
  1.146632e+01    2.448423e+00
  1.148220e+01    2.454784e+00
  1.149807e+01    2.419927e+00
  1.151395e+01    2.399959e+00
  1.152982e+01    2.422330e+00
  1.154570e+01    2.416590e+00
  1.156157e+01    2.402191e+00
  1.157745e+01    2.433748e+00
  1.159333e+01    2.425983e+00
  1.160920e+01    2.388402e+00
  1.162508e+01    2.383669e+00
  1.164095e+01    2.423584e+00
  1.165683e+01    2.412082e+00
  1.167270e+01    2.364298e+00
  1.168858e+01    2.374006e+00
  1.170445e+01    2.368669e+00
  1.172033e+01    2.399027e+00
  1.173621e+01    2.358027e+00
  1.175208e+01    2.349070e+00
  1.176796e+01    2.355814e+00
  1.178383e+01    2.422350e+00
  1.179971e+01    2.416728e+00
  1.181558e+01    2.370604e+00
  1.183146e+01    2.365854e+00
  1.184733e+01    2.394365e+00
  1.186321e+01    2.402059e+00
  1.187909e+01    2.333706e+00
  1.189496e+01    2.337755e+00
  1.191084e+01    2.316728e+00
  1.192671e+01    2.320298e+00
  1.194259e+01    2.364519e+00
  1.195846e+01    2.385331e+00
  1.197434e+01    2.321731e+00
  1.199021e+01    2.354453e+00
  1.200609e+01    2.381845e+00
  1.202197e+01    2.348113e+00
  1.203784e+01    2.301834e+00
  1.205372e+01    2.346399e+00
  1.206959e+01    2.352901e+00
  1.208547e+01    2.369815e+00
  1.210134e+01    2.335460e+00
  1.211722e+01    2.336506e+00
  1.213309e+01    2.332731e+00
  1.214897e+01    2.368769e+00
  1.216485e+01    2.351199e+00
  1.218072e+01    2.319121e+00
  1.219660e+01    2.304599e+00
  1.221247e+01    2.307475e+00
  1.222835e+01    2.311867e+00
  1.224422e+01    2.303371e+00
  1.226010e+01    2.338751e+00
  1.227597e+01    2.352206e+00
  1.229185e+01    2.339554e+00
  1.230773e+01    2.332684e+00
  1.232360e+01    2.334179e+00
  1.233948e+01    2.301701e+00
  1.235535e+01    2.327037e+00
  1.237123e+01    2.321616e+00
  1.238710e+01    2.318728e+00
  1.240298e+01    2.350961e+00
  1.241886e+01    2.387409e+00
  1.243473e+01    2.379584e+00
  1.245061e+01    2.348177e+00
  1.246648e+01    2.330668e+00
  1.248236e+01    2.351640e+00
  1.249823e+01    2.378319e+00
  1.251411e+01    2.377049e+00
  1.252998e+01    2.397143e+00
  1.254586e+01    2.400681e+00
  1.256174e+01    2.391950e+00
  1.257761e+01    2.421794e+00
  1.259349e+01    2.396619e+00
  1.260936e+01    2.437294e+00
  1.262524e+01    2.410245e+00
  1.264111e+01    2.363717e+00
  1.265699e+01    2.408880e+00
  1.267286e+01    2.420618e+00
  1.268874e+01    2.408194e+00
  1.270462e+01    2.490820e+00
  1.272049e+01    2.544764e+00
  1.273637e+01    2.546376e+00
  1.275224e+01    2.549156e+00
  1.276812e+01    2.574979e+00
  1.278399e+01    2.591707e+00
  1.279987e+01    2.651260e+00
  1.281574e+01    2.722241e+00
  1.283162e+01    2.766282e+00
  1.284750e+01    2.859980e+00
  1.286337e+01    2.921445e+00
  1.287925e+01    3.051574e+00
  1.289512e+01    3.217274e+00
  1.291100e+01    3.351141e+00
  1.292687e+01    3.523192e+00
  1.294275e+01    3.718598e+00
  1.295862e+01    4.049397e+00
  1.297450e+01    4.491374e+00
  1.299038e+01    4.953120e+00
  1.300625e+01    5.550144e+00
  1.302213e+01    6.314545e+00
  1.303800e+01    7.232704e+00
  1.305388e+01    8.374161e+00
  1.306975e+01    9.725133e+00
  1.308563e+01    1.106314e+01
  1.310150e+01    1.231098e+01
  1.311738e+01    1.351513e+01
  1.313326e+01    1.461639e+01
  1.314913e+01    1.573451e+01
  1.316501e+01    1.653021e+01
  1.318088e+01    1.692564e+01
  1.319676e+01    1.637631e+01
  1.321263e+01    1.519010e+01
  1.322851e+01    1.329291e+01
  1.324438e+01    1.125457e+01
  1.326026e+01    9.429776e+00
  1.327614e+01    7.976799e+00
  1.329201e+01    6.832147e+00
  1.330789e+01    5.911119e+00
  1.332376e+01    5.181238e+00
  1.333964e+01    4.628288e+00
  1.335551e+01    4.249915e+00
  1.337139e+01    3.906681e+00
  1.338727e+01    3.608891e+00
  1.340314e+01    3.341578e+00
  1.341902e+01    3.189689e+00
  1.343489e+01    3.063293e+00
  1.345077e+01    2.940497e+00
  1.346664e+01    2.817248e+00
  1.348252e+01    2.758609e+00
  1.349839e+01    2.682401e+00
  1.351427e+01    2.627891e+00
  1.353015e+01    2.524169e+00
  1.354602e+01    2.455877e+00
  1.356190e+01    2.471278e+00
  1.357777e+01    2.436586e+00
  1.359365e+01    2.382779e+00
  1.360952e+01    2.354529e+00
  1.362540e+01    2.298269e+00
  1.364127e+01    2.261954e+00
  1.365715e+01    2.271192e+00
  1.367303e+01    2.254870e+00
  1.368890e+01    2.197585e+00
  1.370478e+01    2.182806e+00
  1.372065e+01    2.208857e+00
  1.373653e+01    2.195298e+00
  1.375240e+01    2.173985e+00
  1.376828e+01    2.189470e+00
  1.378415e+01    2.185328e+00
  1.380003e+01    2.166195e+00
  1.381591e+01    2.141212e+00
  1.383178e+01    2.153109e+00
  1.384766e+01    2.161927e+00
  1.386353e+01    2.068013e+00
  1.387941e+01    2.092074e+00
  1.389528e+01    2.118189e+00
  1.391116e+01    2.143188e+00
  1.392703e+01    2.113941e+00
  1.394291e+01    2.113682e+00
  1.395879e+01    2.074562e+00
  1.397466e+01    2.080017e+00
  1.399054e+01    2.071565e+00
  1.400641e+01    2.071746e+00
  1.402229e+01    2.070565e+00
  1.403816e+01    2.048201e+00
  1.405404e+01    2.028022e+00
  1.406991e+01    1.999377e+00
  1.408579e+01    2.005813e+00
  1.410167e+01    2.010466e+00
  1.411754e+01    2.038997e+00
  1.413342e+01    2.024292e+00
  1.414929e+01    2.010204e+00
  1.416517e+01    2.019917e+00
  1.418104e+01    2.001102e+00
  1.419692e+01    1.975372e+00
  1.421279e+01    1.973671e+00
  1.422867e+01    1.982205e+00
  1.424455e+01    2.002331e+00
  1.426042e+01    2.008309e+00
  1.427630e+01    2.000516e+00
  1.429217e+01    1.966716e+00
  1.430805e+01    1.975033e+00
  1.432392e+01    1.953631e+00
  1.433980e+01    1.963380e+00
  1.435568e+01    1.970421e+00
  1.437155e+01    1.970932e+00
  1.438743e+01    1.955011e+00
  1.440330e+01    1.934541e+00
  1.441918e+01    1.946878e+00
  1.443505e+01    1.936921e+00
  1.445093e+01    1.910686e+00
  1.446680e+01    1.930000e+00
  1.448268e+01    1.921464e+00
  1.449856e+01    1.942668e+00
  1.451443e+01    1.929577e+00
  1.453031e+01    1.918461e+00
  1.454618e+01    1.918817e+00
  1.456206e+01    1.918096e+00
  1.457793e+01    1.916762e+00
  1.459381e+01    1.912668e+00
  1.460968e+01    1.914912e+00
  1.462556e+01    1.925947e+00
  1.464144e+01    1.925271e+00
  1.465731e+01    1.913601e+00
  1.467319e+01    1.920692e+00
  1.468906e+01    1.938817e+00
  1.470494e+01    1.960587e+00
  1.472081e+01    1.909460e+00
  1.473669e+01    1.926820e+00
  1.475256e+01    1.912181e+00
  1.476844e+01    1.896907e+00
  1.478432e+01    1.887010e+00
  1.480019e+01    1.923048e+00
  1.481607e+01    1.962343e+00
  1.483194e+01    1.932956e+00
  1.484782e+01    1.936315e+00
  1.486369e+01    1.905417e+00
  1.487957e+01    1.920469e+00
  1.489544e+01    1.904674e+00
  1.491132e+01    1.925897e+00
  1.492720e+01    2.000318e+00
  1.494307e+01    2.045059e+00
  1.495895e+01    2.044801e+00
  1.497482e+01    2.026593e+00
  1.499070e+01    2.116536e+00
  1.500657e+01    2.199039e+00
  1.502245e+01    2.240447e+00
  1.503832e+01    2.300403e+00
  1.505420e+01    2.445641e+00
  1.507008e+01    2.606633e+00
  1.508595e+01    2.691485e+00
  1.510183e+01    2.924881e+00
  1.511770e+01    3.210920e+00
  1.513358e+01    3.471720e+00
  1.514945e+01    3.817169e+00
  1.516533e+01    4.197182e+00
  1.518120e+01    4.598247e+00
  1.519708e+01    4.968353e+00
  1.521296e+01    5.162700e+00
  1.522883e+01    5.398888e+00
  1.524471e+01    5.580593e+00
  1.526058e+01    5.732901e+00
  1.527646e+01    5.685278e+00
  1.529233e+01    5.493723e+00
  1.530821e+01    5.194510e+00
  1.532409e+01    4.702338e+00
  1.533996e+01    4.139829e+00
  1.535584e+01    3.729654e+00
  1.537171e+01    3.318383e+00
  1.538759e+01    2.996263e+00
  1.540346e+01    2.774391e+00
  1.541934e+01    2.589354e+00
  1.543521e+01    2.433955e+00
  1.545109e+01    2.326722e+00
  1.546697e+01    2.214118e+00
  1.548284e+01    2.123835e+00
  1.549872e+01    2.051090e+00
  1.551459e+01    1.988459e+00
  1.553047e+01    1.912416e+00
  1.554634e+01    1.915018e+00
  1.556222e+01    1.941583e+00
  1.557809e+01    1.857850e+00
  1.559397e+01    1.866477e+00
  1.560985e+01    1.818628e+00
  1.562572e+01    1.809704e+00
  1.564160e+01    1.801380e+00
  1.565747e+01    1.800964e+00
  1.567335e+01    1.762156e+00
  1.568922e+01    1.727481e+00
  1.570510e+01    1.718837e+00
  1.572097e+01    1.727255e+00
  1.573685e+01    1.727153e+00
  1.575273e+01    1.699497e+00
  1.576860e+01    1.710338e+00
  1.578448e+01    1.672685e+00
  1.580035e+01    1.674618e+00
  1.581623e+01    1.677673e+00
  1.583210e+01    1.666953e+00
  1.584798e+01    1.679822e+00
  1.586385e+01    1.652222e+00
  1.587973e+01    1.665922e+00
  1.589561e+01    1.658891e+00
  1.591148e+01    1.639192e+00
  1.592736e+01    1.640197e+00
  1.594323e+01    1.645287e+00
  1.595911e+01    1.626980e+00
  1.597498e+01    1.626388e+00
  1.599086e+01    1.594069e+00
  1.600673e+01    1.584422e+00
  1.602261e+01    1.630377e+00
  1.603849e+01    1.631081e+00
  1.605436e+01    1.622224e+00
  1.607024e+01    1.651215e+00
  1.608611e+01    1.625816e+00
  1.610199e+01    1.626497e+00
  1.611786e+01    1.611148e+00
  1.613374e+01    1.596385e+00
  1.614961e+01    1.593611e+00
  1.616549e+01    1.572892e+00
  1.618137e+01    1.567262e+00
  1.619724e+01    1.572665e+00
  1.621312e+01    1.565616e+00
  1.622899e+01    1.569268e+00
  1.624487e+01    1.615569e+00
  1.626074e+01    1.559129e+00
  1.627662e+01    1.549159e+00
  1.629250e+01    1.565564e+00
  1.630837e+01    1.554823e+00
  1.632425e+01    1.530729e+00
  1.634012e+01    1.540587e+00
  1.635600e+01    1.538635e+00
  1.637187e+01    1.543408e+00
  1.638775e+01    1.527206e+00
  1.640362e+01    1.522149e+00
  1.641950e+01    1.543372e+00
  1.643538e+01    1.555531e+00
  1.645125e+01    1.513447e+00
  1.646713e+01    1.525582e+00
  1.648300e+01    1.526306e+00
  1.649888e+01    1.524662e+00
  1.651475e+01    1.522548e+00
  1.653063e+01    1.498831e+00
  1.654650e+01    1.506558e+00
  1.656238e+01    1.516708e+00
  1.657826e+01    1.522060e+00
  1.659413e+01    1.508564e+00
  1.661001e+01    1.500921e+00
  1.662588e+01    1.500873e+00
  1.664176e+01    1.473324e+00
  1.665763e+01    1.458065e+00
  1.667351e+01    1.498319e+00
  1.668938e+01    1.492727e+00
  1.670526e+01    1.464891e+00
  1.672114e+01    1.468822e+00
  1.673701e+01    1.465431e+00
  1.675289e+01    1.467868e+00
  1.676876e+01    1.492363e+00
  1.678464e+01    1.494656e+00
  1.680051e+01    1.501785e+00
  1.681639e+01    1.472023e+00
  1.683226e+01    1.470950e+00
  1.684814e+01    1.464256e+00
  1.686402e+01    1.495576e+00
  1.687989e+01    1.497193e+00
  1.689577e+01    1.476166e+00
  1.691164e+01    1.458524e+00
  1.692752e+01    1.448456e+00
  1.694339e+01    1.436146e+00
  1.695927e+01    1.437408e+00
  1.697514e+01    1.467395e+00
  1.699102e+01    1.461519e+00
  1.700690e+01    1.448037e+00
  1.702277e+01    1.440756e+00
  1.703865e+01    1.463007e+00
  1.705452e+01    1.447500e+00
  1.707040e+01    1.419798e+00
  1.708627e+01    1.430039e+00
  1.710215e+01    1.426747e+00
  1.711802e+01    1.424531e+00
  1.713390e+01    1.424239e+00
  1.714978e+01    1.408132e+00
  1.716565e+01    1.428449e+00
  1.718153e+01    1.408472e+00
  1.719740e+01    1.394322e+00
  1.721328e+01    1.399822e+00
  1.722915e+01    1.412124e+00
  1.724503e+01    1.408320e+00
  1.726091e+01    1.406146e+00
  1.727678e+01    1.432425e+00
  1.729266e+01    1.390330e+00
  1.730853e+01    1.365417e+00
  1.732441e+01    1.394738e+00
  1.734028e+01    1.415085e+00
  1.735616e+01    1.403074e+00
  1.737203e+01    1.378931e+00
  1.738791e+01    1.380521e+00
  1.740379e+01    1.359641e+00
  1.741966e+01    1.362417e+00
  1.743554e+01    1.366646e+00
  1.745141e+01    1.386813e+00
  1.746729e+01    1.402166e+00
  1.748316e+01    1.398785e+00
  1.749904e+01    1.352908e+00
  1.751491e+01    1.358851e+00
  1.753079e+01    1.386609e+00
  1.754667e+01    1.365345e+00
  1.756254e+01    1.357830e+00
  1.757842e+01    1.372719e+00
  1.759429e+01    1.343369e+00
  1.761017e+01    1.327176e+00
  1.762604e+01    1.343508e+00
  1.764192e+01    1.369421e+00
  1.765779e+01    1.354327e+00
  1.767367e+01    1.336231e+00
  1.768955e+01    1.343399e+00
  1.770542e+01    1.333952e+00
  1.772130e+01    1.339934e+00
  1.773717e+01    1.332348e+00
  1.775305e+01    1.302167e+00
  1.776892e+01    1.330732e+00
  1.778480e+01    1.353360e+00
  1.780067e+01    1.330372e+00
  1.781655e+01    1.319841e+00
  1.783243e+01    1.318811e+00
  1.784830e+01    1.318882e+00
  1.786418e+01    1.352505e+00
  1.788005e+01    1.331413e+00
  1.789593e+01    1.305650e+00
  1.791180e+01    1.316372e+00
  1.792768e+01    1.334758e+00
  1.794355e+01    1.324566e+00
  1.795943e+01    1.322104e+00
  1.797531e+01    1.336865e+00
  1.799118e+01    1.332999e+00
  1.800706e+01    1.299465e+00
  1.802293e+01    1.292222e+00
  1.803881e+01    1.323546e+00
  1.805468e+01    1.312201e+00
  1.807056e+01    1.300575e+00
  1.808643e+01    1.306849e+00
  1.810231e+01    1.335485e+00
  1.811819e+01    1.309157e+00
  1.813406e+01    1.293046e+00
  1.814994e+01    1.286979e+00
  1.816581e+01    1.257145e+00
  1.818169e+01    1.257962e+00
  1.819756e+01    1.285217e+00
  1.821344e+01    1.306461e+00
  1.822932e+01    1.299237e+00
  1.824519e+01    1.294008e+00
  1.826107e+01    1.291400e+00
  1.827694e+01    1.277154e+00
  1.829282e+01    1.283151e+00
  1.830869e+01    1.307058e+00
  1.832457e+01    1.289079e+00
  1.834044e+01    1.241979e+00
  1.835632e+01    1.253052e+00
  1.837220e+01    1.293200e+00
  1.838807e+01    1.261184e+00
  1.840395e+01    1.262588e+00
  1.841982e+01    1.289420e+00
  1.843570e+01    1.292094e+00
  1.845157e+01    1.224087e+00
  1.846745e+01    1.252656e+00
  1.848332e+01    1.280080e+00
  1.849920e+01    1.265540e+00
  1.851508e+01    1.238738e+00
  1.853095e+01    1.230034e+00
  1.854683e+01    1.242619e+00
  1.856270e+01    1.251118e+00
  1.857858e+01    1.245909e+00
  1.859445e+01    1.263649e+00
  1.861033e+01    1.234635e+00
  1.862620e+01    1.232106e+00
  1.864208e+01    1.246501e+00
  1.865796e+01    1.261862e+00
  1.867383e+01    1.262470e+00
  1.868971e+01    1.220168e+00
  1.870558e+01    1.228044e+00
  1.872146e+01    1.210941e+00
  1.873733e+01    1.214025e+00
  1.875321e+01    1.220138e+00
  1.876908e+01    1.221613e+00
  1.878496e+01    1.216442e+00
  1.880084e+01    1.251258e+00
  1.881671e+01    1.232383e+00
  1.883259e+01    1.226721e+00
  1.884846e+01    1.224117e+00
  1.886434e+01    1.187988e+00
  1.888021e+01    1.221370e+00
  1.889609e+01    1.235365e+00
  1.891196e+01    1.230585e+00
  1.892784e+01    1.229128e+00
  1.894372e+01    1.248049e+00
  1.895959e+01    1.236135e+00
  1.897547e+01    1.212923e+00
  1.899134e+01    1.227571e+00
  1.900722e+01    1.206273e+00
  1.902309e+01    1.193602e+00
  1.903897e+01    1.217590e+00
  1.905484e+01    1.190118e+00
  1.907072e+01    1.210429e+00
  1.908660e+01    1.205056e+00
  1.910247e+01    1.192454e+00
  1.911835e+01    1.180433e+00
  1.913422e+01    1.189850e+00
  1.915010e+01    1.194829e+00
  1.916597e+01    1.197355e+00
  1.918185e+01    1.205121e+00
  1.919773e+01    1.184444e+00
  1.921360e+01    1.162799e+00
  1.922948e+01    1.169696e+00
  1.924535e+01    1.168046e+00
  1.926123e+01    1.171843e+00
  1.927710e+01    1.167916e+00
  1.929298e+01    1.176860e+00
  1.930885e+01    1.177078e+00
  1.932473e+01    1.177910e+00
  1.934061e+01    1.176288e+00
  1.935648e+01    1.174258e+00
  1.937236e+01    1.170676e+00
  1.938823e+01    1.190588e+00
  1.940411e+01    1.200313e+00
  1.941998e+01    1.182123e+00
  1.943586e+01    1.170691e+00
  1.945173e+01    1.153644e+00
  1.946761e+01    1.169916e+00
  1.948349e+01    1.177777e+00
  1.949936e+01    1.147627e+00
  1.951524e+01    1.134502e+00
  1.953111e+01    1.157214e+00
  1.954699e+01    1.165659e+00
  1.956286e+01    1.157982e+00
  1.957874e+01    1.141249e+00
  1.959461e+01    1.152107e+00
  1.961049e+01    1.165071e+00
  1.962637e+01    1.149013e+00
  1.964224e+01    1.150291e+00
  1.965812e+01    1.133235e+00
  1.967399e+01    1.149206e+00
  1.968987e+01    1.151378e+00
  1.970574e+01    1.143203e+00
  1.972162e+01    1.153302e+00
  1.973749e+01    1.134201e+00
  1.975337e+01    1.123152e+00
  1.976925e+01    1.147377e+00
  1.978512e+01    1.134867e+00
  1.980100e+01    1.153361e+00
  1.981687e+01    1.156251e+00
  1.983275e+01    1.124759e+00
  1.984862e+01    1.113803e+00
  1.986450e+01    1.119642e+00
  1.988037e+01    1.132455e+00
  1.989625e+01    1.134006e+00
  1.991213e+01    1.138046e+00
  1.992800e+01    1.139599e+00
  1.994388e+01    1.142921e+00
  1.995975e+01    1.114721e+00
  1.997563e+01    1.121386e+00
  1.999150e+01    1.117287e+00
  2.000738e+01    1.122334e+00
  2.002325e+01    1.102389e+00
  2.003913e+01    1.111765e+00
  2.005501e+01    1.110747e+00
  2.007088e+01    1.115495e+00
  2.008676e+01    1.104809e+00
  2.010263e+01    1.132537e+00
  2.011851e+01    1.101035e+00
  2.013438e+01    1.100022e+00
  2.015026e+01    1.088632e+00
  2.016614e+01    1.096425e+00
  2.018201e+01    1.092706e+00
  2.019789e+01    1.132499e+00
  2.021376e+01    1.122378e+00
  2.022964e+01    1.115031e+00
  2.024551e+01    1.100010e+00
  2.026139e+01    1.101148e+00
  2.027726e+01    1.103570e+00
  2.029314e+01    1.117531e+00
  2.030902e+01    1.102564e+00
  2.032489e+01    1.111817e+00
  2.034077e+01    1.113027e+00
  2.035664e+01    1.103558e+00
  2.037252e+01    1.103598e+00
  2.038839e+01    1.103526e+00
  2.040427e+01    1.112656e+00
  2.042014e+01    1.105279e+00
  2.043602e+01    1.082153e+00
  2.045190e+01    1.106010e+00
  2.046777e+01    1.106791e+00
  2.048365e+01    1.101378e+00
  2.049952e+01    1.087983e+00
  2.051540e+01    1.100612e+00
  2.053127e+01    1.092974e+00
  2.054715e+01    1.090006e+00
  2.056302e+01    1.113380e+00
  2.057890e+01    1.074657e+00
  2.059478e+01    1.074639e+00
  2.061065e+01    1.078602e+00
  2.062653e+01    1.090032e+00
  2.064240e+01    1.094669e+00
  2.065828e+01    1.096827e+00
  2.067415e+01    1.066727e+00
  2.069003e+01    1.084494e+00
  2.070590e+01    1.088704e+00
  2.072178e+01    1.075568e+00
  2.073766e+01    1.074872e+00
  2.075353e+01    1.087792e+00
  2.076941e+01    1.093792e+00
  2.078528e+01    1.086104e+00
  2.080116e+01    1.092391e+00
  2.081703e+01    1.091053e+00
  2.083291e+01    1.064692e+00
  2.084878e+01    1.052363e+00
  2.086466e+01    1.059064e+00
  2.088054e+01    1.087896e+00
  2.089641e+01    1.083751e+00
  2.091229e+01    1.073889e+00
  2.092816e+01    1.080362e+00
  2.094404e+01    1.076192e+00
  2.095991e+01    1.102145e+00
  2.097579e+01    1.111970e+00
  2.099166e+01    1.096508e+00
  2.100754e+01    1.100073e+00
  2.102342e+01    1.089310e+00
  2.103929e+01    1.074550e+00
  2.105517e+01    1.061575e+00
  2.107104e+01    1.064536e+00
  2.108692e+01    1.079554e+00
  2.110279e+01    1.106128e+00
  2.111867e+01    1.091136e+00
  2.113455e+01    1.078401e+00
  2.115042e+01    1.096830e+00
  2.116630e+01    1.101072e+00
  2.118217e+01    1.109789e+00
  2.119805e+01    1.105107e+00
  2.121392e+01    1.097399e+00
  2.122980e+01    1.106459e+00
  2.124567e+01    1.115777e+00
  2.126155e+01    1.101326e+00
  2.127743e+01    1.132589e+00
  2.129330e+01    1.131934e+00
  2.130918e+01    1.127723e+00
  2.132505e+01    1.133440e+00
  2.134093e+01    1.159787e+00
  2.135680e+01    1.152381e+00
  2.137268e+01    1.156108e+00
  2.138855e+01    1.180098e+00
  2.140443e+01    1.203334e+00
  2.142031e+01    1.196001e+00
  2.143618e+01    1.193417e+00
  2.145206e+01    1.213037e+00
  2.146793e+01    1.246749e+00
  2.148381e+01    1.281823e+00
  2.149968e+01    1.331565e+00
  2.151556e+01    1.341409e+00
  2.153143e+01    1.352736e+00
  2.154731e+01    1.384523e+00
  2.156319e+01    1.444159e+00
  2.157906e+01    1.518547e+00
  2.159494e+01    1.557752e+00
  2.161081e+01    1.643490e+00
  2.162669e+01    1.769285e+00
  2.164256e+01    1.873289e+00
  2.165844e+01    1.968899e+00
  2.167431e+01    2.158610e+00
  2.169019e+01    2.375726e+00
  2.170607e+01    2.609767e+00
  2.172194e+01    2.957284e+00
  2.173782e+01    3.338782e+00
  2.175369e+01    3.844377e+00
  2.176957e+01    4.402184e+00
  2.178544e+01    5.004452e+00
  2.180132e+01    5.670577e+00
  2.181719e+01    6.351821e+00
  2.183307e+01    7.038061e+00
  2.184895e+01    7.780083e+00
  2.186482e+01    8.415603e+00
  2.188070e+01    8.964994e+00
  2.189657e+01    9.199010e+00
  2.191245e+01    9.072265e+00
  2.192832e+01    8.686101e+00
  2.194420e+01    7.919629e+00
  2.196007e+01    6.936887e+00
  2.197595e+01    5.886477e+00
  2.199183e+01    4.996664e+00
  2.200770e+01    4.243248e+00
  2.202358e+01    3.653517e+00
  2.203945e+01    3.188468e+00
  2.205533e+01    2.795047e+00
  2.207120e+01    2.528255e+00
  2.208708e+01    2.267547e+00
  2.210296e+01    2.065923e+00
  2.211883e+01    1.909333e+00
  2.213471e+01    1.775606e+00
  2.215058e+01    1.671691e+00
  2.216646e+01    1.570977e+00
  2.218233e+01    1.488393e+00
  2.219821e+01    1.417693e+00
  2.221408e+01    1.361652e+00
  2.222996e+01    1.351111e+00
  2.224584e+01    1.325946e+00
  2.226171e+01    1.263613e+00
  2.227759e+01    1.238940e+00
  2.229346e+01    1.219478e+00
  2.230934e+01    1.184840e+00
  2.232521e+01    1.172247e+00
  2.234109e+01    1.161648e+00
  2.235696e+01    1.143051e+00
  2.237284e+01    1.107310e+00
  2.238872e+01    1.098337e+00
  2.240459e+01    1.099231e+00
  2.242047e+01    1.072988e+00
  2.243634e+01    1.065900e+00
  2.245222e+01    1.060146e+00
  2.246809e+01    1.022710e+00
  2.248397e+01    9.979203e-01
  2.249984e+01    1.016548e+00
  2.251572e+01    1.009303e+00
  2.253160e+01    9.875147e-01
  2.254747e+01    1.019676e+00
  2.256335e+01    1.016864e+00
  2.257922e+01    9.911080e-01
  2.259510e+01    9.829806e-01
  2.261097e+01    1.005275e+00
  2.262685e+01    9.868028e-01
  2.264272e+01    9.827725e-01
  2.265860e+01    9.852104e-01
  2.267448e+01    9.505281e-01
  2.269035e+01    9.441897e-01
  2.270623e+01    9.676579e-01
  2.272210e+01    9.728389e-01
  2.273798e+01    9.549606e-01
  2.275385e+01    9.526199e-01
  2.276973e+01    9.477733e-01
  2.278560e+01    9.235350e-01
  2.280148e+01    9.290921e-01
  2.281736e+01    9.484934e-01
  2.283323e+01    9.495181e-01
  2.284911e+01    9.154596e-01
  2.286498e+01    9.275302e-01
  2.288086e+01    9.204941e-01
  2.289673e+01    9.368920e-01
  2.291261e+01    9.305735e-01
  2.292848e+01    9.207405e-01
  2.294436e+01    9.231968e-01
  2.296024e+01    9.057537e-01
  2.297611e+01    9.073831e-01
  2.299199e+01    9.190794e-01
  2.300786e+01    9.321717e-01
  2.302374e+01    9.065552e-01
  2.303961e+01    8.957735e-01
  2.305549e+01    8.931928e-01
  2.307137e+01    9.031918e-01
  2.308724e+01    8.817084e-01
  2.310312e+01    8.736535e-01
  2.311899e+01    8.887206e-01
  2.313487e+01    9.038222e-01
  2.315074e+01    9.014329e-01
  2.316662e+01    8.820174e-01
  2.318249e+01    8.906621e-01
  2.319837e+01    8.660789e-01
  2.321425e+01    8.805159e-01
  2.323012e+01    8.821741e-01
  2.324600e+01    8.882583e-01
  2.326187e+01    8.736261e-01
  2.327775e+01    8.689197e-01
  2.329362e+01    8.845362e-01
  2.330950e+01    8.708421e-01
  2.332537e+01    8.592139e-01
  2.334125e+01    8.726857e-01
  2.335713e+01    8.780429e-01
  2.337300e+01    8.775972e-01
  2.338888e+01    8.509246e-01
  2.340475e+01    8.517138e-01
  2.342063e+01    8.495356e-01
  2.343650e+01    8.462260e-01
  2.345238e+01    8.595810e-01
  2.346825e+01    8.683434e-01
  2.348413e+01    8.624134e-01
  2.350001e+01    8.465266e-01
  2.351588e+01    8.386938e-01
  2.353176e+01    8.522281e-01
  2.354763e+01    8.518527e-01
  2.356351e+01    8.501970e-01
  2.357938e+01    8.399105e-01
  2.359526e+01    8.565717e-01
  2.361113e+01    8.224811e-01
  2.362701e+01    8.103237e-01
  2.364289e+01    8.213452e-01
  2.365876e+01    8.326409e-01
  2.367464e+01    8.267279e-01
  2.369051e+01    8.403004e-01
  2.370639e+01    8.400518e-01
  2.372226e+01    8.241041e-01
  2.373814e+01    8.358569e-01
  2.375401e+01    8.455887e-01
  2.376989e+01    8.311021e-01
  2.378577e+01    7.985522e-01
  2.380164e+01    8.015584e-01
  2.381752e+01    8.267394e-01
  2.383339e+01    8.081192e-01
  2.384927e+01    8.122536e-01
  2.386514e+01    8.168346e-01
  2.388102e+01    8.241864e-01
  2.389689e+01    8.194850e-01
  2.391277e+01    8.132692e-01
  2.392865e+01    8.060673e-01
  2.394452e+01    8.200613e-01
  2.396040e+01    8.047025e-01
  2.397627e+01    7.934553e-01
  2.399215e+01    7.795317e-01
  2.400802e+01    7.943388e-01
  2.402390e+01    7.833120e-01
  2.403978e+01    7.927899e-01
  2.405565e+01    7.827845e-01
  2.407153e+01    7.840071e-01
  2.408740e+01    7.949964e-01
  2.410328e+01    7.954591e-01
  2.411915e+01    7.874768e-01
  2.413503e+01    7.830882e-01
  2.415090e+01    7.910910e-01
  2.416678e+01    7.914686e-01
  2.418266e+01    7.892977e-01
  2.419853e+01    7.961299e-01
  2.421441e+01    7.818164e-01
  2.423028e+01    7.661263e-01
  2.424616e+01    7.761846e-01
  2.426203e+01    7.694363e-01
  2.427791e+01    7.759714e-01
  2.429378e+01    7.995126e-01
  2.430966e+01    8.040089e-01
  2.432554e+01    8.015183e-01
  2.434141e+01    7.897708e-01
  2.435729e+01    7.955930e-01
  2.437316e+01    7.828634e-01
  2.438904e+01    7.877133e-01
  2.440491e+01    7.975547e-01
  2.442079e+01    7.960762e-01
  2.443666e+01    7.983036e-01
  2.445254e+01    7.771298e-01
  2.446842e+01    7.799428e-01
  2.448429e+01    7.831298e-01
  2.450017e+01    7.689134e-01
  2.451604e+01    7.867287e-01
  2.453192e+01    8.026552e-01
  2.454779e+01    7.898327e-01
  2.456367e+01    8.069840e-01
  2.457954e+01    7.891766e-01
  2.459542e+01    7.747699e-01
  2.461130e+01    7.750797e-01
  2.462717e+01    7.898170e-01
  2.464305e+01    7.969321e-01
  2.465892e+01    7.977853e-01
  2.467480e+01    7.928537e-01
  2.469067e+01    7.852288e-01
  2.470655e+01    7.902409e-01
  2.472242e+01    7.968643e-01
  2.473830e+01    7.938198e-01
  2.475418e+01    7.874265e-01
  2.477005e+01    8.016430e-01
  2.478593e+01    8.021221e-01
  2.480180e+01    8.098224e-01
  2.481768e+01    8.213377e-01
  2.483355e+01    8.421046e-01
  2.484943e+01    8.049744e-01
  2.486530e+01    7.964293e-01
  2.488118e+01    7.915108e-01
  2.489706e+01    7.927320e-01
  2.491293e+01    8.020909e-01
  2.492881e+01    8.071092e-01
  2.494468e+01    8.093969e-01
  2.496056e+01    8.138782e-01
  2.497643e+01    8.076345e-01
  2.499231e+01    7.954922e-01
  2.500819e+01    7.993028e-01
  2.502406e+01    8.073397e-01
  2.503994e+01    8.095877e-01
  2.505581e+01    8.186239e-01
  2.507169e+01    8.231803e-01
  2.508756e+01    8.326923e-01
  2.510344e+01    8.232394e-01
  2.511931e+01    8.248429e-01
  2.513519e+01    8.286994e-01
  2.515107e+01    8.165450e-01
  2.516694e+01    8.079485e-01
  2.518282e+01    8.302867e-01
  2.519869e+01    8.476028e-01
  2.521457e+01    8.392478e-01
  2.523044e+01    8.429068e-01
  2.524632e+01    8.348252e-01
  2.526219e+01    8.405485e-01
  2.527807e+01    8.638808e-01
  2.529395e+01    8.740455e-01
  2.530982e+01    8.728511e-01
  2.532570e+01    8.730141e-01
  2.534157e+01    8.853489e-01
  2.535745e+01    8.872150e-01
  2.537332e+01    8.798102e-01
  2.538920e+01    8.991512e-01
  2.540507e+01    9.157639e-01
  2.542095e+01    9.211038e-01
  2.543683e+01    9.383944e-01
  2.545270e+01    9.264572e-01
  2.546858e+01    9.651875e-01
  2.548445e+01    9.627156e-01
  2.550033e+01    9.585686e-01
  2.551620e+01    9.918932e-01
  2.553208e+01    1.007400e+00
  2.554795e+01    1.034908e+00
  2.556383e+01    1.055161e+00
  2.557971e+01    1.078715e+00
  2.559558e+01    1.105501e+00
  2.561146e+01    1.156882e+00
  2.562733e+01    1.193060e+00
  2.564321e+01    1.228883e+00
  2.565908e+01    1.273047e+00
  2.567496e+01    1.335527e+00
  2.569083e+01    1.414865e+00
  2.570671e+01    1.528484e+00
  2.572259e+01    1.639550e+00
  2.573846e+01    1.756612e+00
  2.575434e+01    1.949270e+00
  2.577021e+01    2.175218e+00
  2.578609e+01    2.441096e+00
  2.580196e+01    2.714100e+00
  2.581784e+01    3.079343e+00
  2.583371e+01    3.481142e+00
  2.584959e+01    3.984221e+00
  2.586547e+01    4.585959e+00
  2.588134e+01    5.208397e+00
  2.589722e+01    5.797002e+00
  2.591309e+01    6.372024e+00
  2.592897e+01    6.871366e+00
  2.594484e+01    7.341414e+00
  2.596072e+01    7.520540e+00
  2.597660e+01    7.446053e+00
  2.599247e+01    7.106347e+00
  2.600835e+01    6.492917e+00
  2.602422e+01    5.732641e+00
  2.604010e+01    4.965387e+00
  2.605597e+01    4.214583e+00
  2.607185e+01    3.658670e+00
  2.608772e+01    3.099715e+00
  2.610360e+01    2.701965e+00
  2.611948e+01    2.407301e+00
  2.613535e+01    2.179486e+00
  2.615123e+01    1.929173e+00
  2.616710e+01    1.756826e+00
  2.618298e+01    1.664558e+00
  2.619885e+01    1.555937e+00
  2.621473e+01    1.427557e+00
  2.623060e+01    1.329977e+00
  2.624648e+01    1.275179e+00
  2.626236e+01    1.216460e+00
  2.627823e+01    1.191012e+00
  2.629411e+01    1.173937e+00
  2.630998e+01    1.127731e+00
  2.632586e+01    1.059633e+00
  2.634173e+01    1.046549e+00
  2.635761e+01    1.018942e+00
  2.637348e+01    1.007690e+00
  2.638936e+01    1.018639e+00
  2.640524e+01    9.931012e-01
  2.642111e+01    9.756220e-01
  2.643699e+01    9.656181e-01
  2.645286e+01    9.482372e-01
  2.646874e+01    9.482704e-01
  2.648461e+01    9.450847e-01
  2.650049e+01    9.461960e-01
  2.651636e+01    9.444776e-01
  2.653224e+01    9.291566e-01
  2.654812e+01    9.133064e-01
  2.656399e+01    9.130461e-01
  2.657987e+01    9.049396e-01
  2.659574e+01    9.126177e-01
  2.661162e+01    9.337803e-01
  2.662749e+01    8.993120e-01
  2.664337e+01    9.136917e-01
  2.665924e+01    8.894662e-01
  2.667512e+01    9.015674e-01
  2.669100e+01    9.036769e-01
  2.670687e+01    9.021546e-01
  2.672275e+01    8.856048e-01
  2.673862e+01    9.029332e-01
  2.675450e+01    8.875176e-01
  2.677037e+01    8.684544e-01
  2.678625e+01    8.672450e-01
  2.680212e+01    8.900001e-01
  2.681800e+01    9.095666e-01
  2.683388e+01    8.695180e-01
  2.684975e+01    9.038754e-01
  2.686563e+01    9.021029e-01
  2.688150e+01    9.140295e-01
  2.689738e+01    9.111691e-01
  2.691325e+01    9.605056e-01
  2.692913e+01    9.499023e-01
  2.694501e+01    9.390123e-01
  2.696088e+01    9.774841e-01
  2.697676e+01    9.812131e-01
  2.699263e+01    1.002638e+00
  2.700851e+01    1.019663e+00
  2.702438e+01    1.068145e+00
  2.704026e+01    1.110327e+00
  2.705613e+01    1.163117e+00
  2.707201e+01    1.235136e+00
  2.708789e+01    1.289977e+00
  2.710376e+01    1.389246e+00
  2.711964e+01    1.526170e+00
  2.713551e+01    1.659566e+00
  2.715139e+01    1.804986e+00
  2.716726e+01    1.903543e+00
  2.718314e+01    2.061247e+00
  2.719901e+01    2.178487e+00
  2.721489e+01    2.245963e+00
  2.723077e+01    2.236724e+00
  2.724664e+01    2.171486e+00
  2.726252e+01    2.084182e+00
  2.727839e+01    1.900868e+00
  2.729427e+01    1.749313e+00
  2.731014e+01    1.621084e+00
  2.732602e+01    1.472904e+00
  2.734189e+01    1.335995e+00
  2.735777e+01    1.249396e+00
  2.737365e+01    1.174388e+00
  2.738952e+01    1.115823e+00
  2.740540e+01    1.042495e+00
  2.742127e+01    1.019871e+00
  2.743715e+01    9.984645e-01
  2.745302e+01    9.852199e-01
  2.746890e+01    9.657484e-01
  2.748477e+01    9.180503e-01
  2.750065e+01    9.087338e-01
  2.751653e+01    9.090355e-01
  2.753240e+01    8.925835e-01
  2.754828e+01    8.744726e-01
  2.756415e+01    8.684838e-01
  2.758003e+01    8.534393e-01
  2.759590e+01    8.481068e-01
  2.761178e+01    8.503861e-01
  2.762765e+01    8.384060e-01
  2.764353e+01    8.411627e-01
  2.765941e+01    8.252514e-01
  2.767528e+01    8.443537e-01
  2.769116e+01    8.486806e-01
  2.770703e+01    8.401327e-01
  2.772291e+01    8.209377e-01
  2.773878e+01    8.099656e-01
  2.775466e+01    8.159663e-01
  2.777054e+01    8.164100e-01
  2.778641e+01    8.055006e-01
  2.780229e+01    8.142658e-01
  2.781816e+01    7.956648e-01
  2.783404e+01    8.021418e-01
  2.784991e+01    7.973264e-01
  2.786579e+01    8.015789e-01
  2.788166e+01    8.056607e-01
  2.789754e+01    8.130443e-01
  2.791342e+01    7.980282e-01
  2.792929e+01    7.939748e-01
  2.794517e+01    7.956015e-01
  2.796104e+01    7.889054e-01
  2.797692e+01    7.980272e-01
  2.799279e+01    7.893209e-01
  2.800867e+01    7.927312e-01
  2.802454e+01    8.087915e-01
  2.804042e+01    8.073633e-01
  2.805630e+01    7.987102e-01
  2.807217e+01    7.715412e-01
  2.808805e+01    7.651050e-01
  2.810392e+01    7.894633e-01
  2.811980e+01    7.811305e-01
  2.813567e+01    7.724077e-01
  2.815155e+01    7.539772e-01
  2.816742e+01    7.815325e-01
  2.818330e+01    7.737031e-01
  2.819918e+01    7.724383e-01
  2.821505e+01    8.011474e-01
  2.823093e+01    7.841576e-01
  2.824680e+01    8.001560e-01
  2.826268e+01    7.768555e-01
  2.827855e+01    7.390370e-01
  2.829443e+01    7.499506e-01
  2.831030e+01    7.624514e-01
  2.832618e+01    7.661319e-01
  2.834206e+01    7.738684e-01
  2.835793e+01    7.782460e-01
  2.837381e+01    7.764522e-01
  2.838968e+01    7.777064e-01
  2.840556e+01    7.829743e-01
  2.842143e+01    7.531670e-01
  2.843731e+01    7.398074e-01
  2.845318e+01    7.577580e-01
  2.846906e+01    7.638322e-01
  2.848494e+01    7.624078e-01
  2.850081e+01    7.641577e-01
  2.851669e+01    7.441848e-01
  2.853256e+01    7.578880e-01
  2.854844e+01    7.589201e-01
  2.856431e+01    7.676095e-01
  2.858019e+01    7.486992e-01
  2.859606e+01    7.567670e-01
  2.861194e+01    7.623536e-01
  2.862782e+01    7.535830e-01
  2.864369e+01    7.627805e-01
  2.865957e+01    7.330681e-01
  2.867544e+01    7.582287e-01
  2.869132e+01    7.627372e-01
  2.870719e+01    7.643068e-01
  2.872307e+01    7.547951e-01
  2.873895e+01    7.437710e-01
  2.875482e+01    7.325216e-01
  2.877070e+01    7.556548e-01
  2.878657e+01    7.594742e-01
  2.880245e+01    7.605255e-01
  2.881832e+01    7.524067e-01
  2.883420e+01    7.477792e-01
  2.885007e+01    7.414670e-01
  2.886595e+01    7.367912e-01
  2.888183e+01    7.635666e-01
  2.889770e+01    7.585093e-01
  2.891358e+01    7.500883e-01
  2.892945e+01    7.312383e-01
  2.894533e+01    7.337077e-01
  2.896120e+01    7.599645e-01
  2.897708e+01    7.404708e-01
  2.899295e+01    7.225146e-01
  2.900883e+01    7.372319e-01
  2.902471e+01    7.557129e-01
  2.904058e+01    7.523443e-01
  2.905646e+01    7.290909e-01
  2.907233e+01    7.294368e-01
  2.908821e+01    7.500847e-01
  2.910408e+01    7.494671e-01
  2.911996e+01    7.426082e-01
  2.913583e+01    7.381477e-01
  2.915171e+01    7.378771e-01
  2.916759e+01    7.302307e-01
  2.918346e+01    7.423868e-01
  2.919934e+01    7.566254e-01
  2.921521e+01    7.472860e-01
  2.923109e+01    7.317097e-01
  2.924696e+01    7.322701e-01
  2.926284e+01    7.521701e-01
  2.927871e+01    7.394140e-01
  2.929459e+01    7.243593e-01
  2.931047e+01    7.181926e-01
  2.932634e+01    7.352761e-01
  2.934222e+01    7.450498e-01
  2.935809e+01    7.265854e-01
  2.937397e+01    7.129409e-01
  2.938984e+01    7.175457e-01
  2.940572e+01    7.146345e-01
  2.942159e+01    7.215743e-01
  2.943747e+01    7.193398e-01
  2.945335e+01    7.368917e-01
  2.946922e+01    7.207132e-01
  2.948510e+01    7.319676e-01
  2.950097e+01    7.329328e-01
  2.951685e+01    7.474151e-01
  2.953272e+01    7.344359e-01
  2.954860e+01    7.336537e-01
  2.956447e+01    7.415893e-01
  2.958035e+01    7.353922e-01
  2.959623e+01    7.209899e-01
  2.961210e+01    7.281750e-01
  2.962798e+01    7.158675e-01
  2.964385e+01    7.002432e-01
  2.965973e+01    7.275755e-01
  2.967560e+01    7.269385e-01
  2.969148e+01    7.207077e-01
  2.970736e+01    7.251743e-01
  2.972323e+01    7.376832e-01
  2.973911e+01    7.295279e-01
  2.975498e+01    7.249270e-01
  2.977086e+01    7.208599e-01
  2.978673e+01    7.220151e-01
  2.980261e+01    7.233720e-01
  2.981848e+01    6.999314e-01
  2.983436e+01    7.038862e-01
  2.985024e+01    7.268205e-01
  2.986611e+01    7.260134e-01
  2.988199e+01    7.256413e-01
  2.989786e+01    7.088543e-01
  2.991374e+01    7.222706e-01
  2.992961e+01    7.253047e-01
  2.994549e+01    7.242696e-01
  2.996136e+01    7.327621e-01
  2.997724e+01    7.098625e-01
  2.999312e+01    7.154889e-01
  3.000899e+01    7.252956e-01
  3.002487e+01    7.350846e-01
  3.004074e+01    7.424834e-01
  3.005662e+01    7.467999e-01
  3.007249e+01    7.194135e-01
  3.008837e+01    7.259935e-01
  3.010424e+01    7.381634e-01
  3.012012e+01    7.313375e-01
  3.013600e+01    7.230868e-01
  3.015187e+01    7.294702e-01
  3.016775e+01    7.267259e-01
  3.018362e+01    7.116082e-01
  3.019950e+01    7.156758e-01
  3.021537e+01    7.148908e-01
  3.023125e+01    7.107506e-01
  3.024712e+01    7.107292e-01
  3.026300e+01    7.082270e-01
  3.027888e+01    7.134274e-01
  3.029475e+01    7.099708e-01
  3.031063e+01    7.099356e-01
  3.032650e+01    7.148234e-01
  3.034238e+01    7.325444e-01
  3.035825e+01    7.190847e-01
  3.037413e+01    7.255703e-01
  3.039000e+01    7.303823e-01
  3.040588e+01    7.165722e-01
  3.042176e+01    7.106475e-01
  3.043763e+01    7.190226e-01
  3.045351e+01    7.118288e-01
  3.046938e+01    7.180697e-01
  3.048526e+01    7.255145e-01
  3.050113e+01    7.210018e-01
  3.051701e+01    6.990007e-01
  3.053288e+01    7.040123e-01
  3.054876e+01    7.063410e-01
  3.056464e+01    7.236213e-01
  3.058051e+01    7.099716e-01
  3.059639e+01    6.999782e-01
  3.061226e+01    7.270336e-01
  3.062814e+01    7.155778e-01
  3.064401e+01    7.168815e-01
  3.065989e+01    7.104817e-01
  3.067577e+01    7.173437e-01
  3.069164e+01    7.089114e-01
  3.070752e+01    7.127312e-01
  3.072339e+01    6.912518e-01
  3.073927e+01    6.944550e-01
  3.075514e+01    6.993963e-01
  3.077102e+01    7.287904e-01
  3.078689e+01    7.272512e-01
  3.080277e+01    6.948313e-01
  3.081865e+01    7.187076e-01
  3.083452e+01    7.334934e-01
  3.085040e+01    7.251750e-01
  3.086627e+01    7.155929e-01
  3.088215e+01    7.167116e-01
  3.089802e+01    7.391785e-01
  3.091390e+01    7.223117e-01
  3.092977e+01    7.253661e-01
  3.094565e+01    7.371731e-01
  3.096153e+01    7.235056e-01
  3.097740e+01    7.187287e-01
  3.099328e+01    7.091486e-01
  3.100915e+01    7.207724e-01
  3.102503e+01    6.991112e-01
  3.104090e+01    7.333202e-01
  3.105678e+01    7.310026e-01
  3.107265e+01    7.286370e-01
  3.108853e+01    7.366279e-01
  3.110441e+01    7.199359e-01
  3.112028e+01    7.062250e-01
  3.113616e+01    7.232989e-01
  3.115203e+01    7.273810e-01
  3.116791e+01    7.281615e-01
  3.118378e+01    7.382996e-01
  3.119966e+01    7.273383e-01
  3.121553e+01    7.365920e-01
  3.123141e+01    7.317482e-01
  3.124729e+01    7.302456e-01
  3.126316e+01    7.300173e-01
  3.127904e+01    7.303579e-01
  3.129491e+01    7.502104e-01
  3.131079e+01    7.510151e-01
  3.132666e+01    7.396103e-01
  3.134254e+01    7.403500e-01
  3.135841e+01    7.429135e-01
  3.137429e+01    7.447479e-01
  3.139017e+01    7.402011e-01
  3.140604e+01    7.238702e-01
  3.142192e+01    7.421077e-01
  3.143779e+01    7.596791e-01
  3.145367e+01    7.542565e-01
  3.146954e+01    7.525440e-01
  3.148542e+01    7.692848e-01
  3.150129e+01    7.773002e-01
  3.151717e+01    7.761022e-01
  3.153305e+01    7.851215e-01
  3.154892e+01    7.825727e-01
  3.156480e+01    8.148745e-01
  3.158067e+01    7.813214e-01
  3.159655e+01    8.041567e-01
  3.161242e+01    8.337173e-01
  3.162830e+01    8.419423e-01
  3.164418e+01    8.602537e-01
  3.166005e+01    8.782369e-01
  3.167593e+01    9.129635e-01
  3.169180e+01    9.350559e-01
  3.170768e+01    9.663591e-01
  3.172355e+01    1.019838e+00
  3.173943e+01    1.076915e+00
  3.175530e+01    1.149377e+00
  3.177118e+01    1.201557e+00
  3.178706e+01    1.311545e+00
  3.180293e+01    1.389024e+00
  3.181881e+01    1.557729e+00
  3.183468e+01    1.709237e+00
  3.185056e+01    1.824911e+00
  3.186643e+01    1.971255e+00
  3.188231e+01    2.105344e+00
  3.189818e+01    2.198766e+00
  3.191406e+01    2.220924e+00
  3.192994e+01    2.180923e+00
  3.194581e+01    2.063614e+00
  3.196169e+01    1.949586e+00
  3.197756e+01    1.806121e+00
  3.199344e+01    1.641749e+00
  3.200931e+01    1.488698e+00
  3.202519e+01    1.340033e+00
  3.204106e+01    1.239022e+00
  3.205694e+01    1.159731e+00
  3.207282e+01    1.053452e+00
  3.208869e+01    9.899999e-01
  3.210457e+01    9.555961e-01
  3.212044e+01    9.242787e-01
  3.213632e+01    8.872194e-01
  3.215219e+01    8.622288e-01
  3.216807e+01    8.332288e-01
  3.218394e+01    8.376142e-01
  3.219982e+01    8.375500e-01
  3.221570e+01    8.076926e-01
  3.223157e+01    7.940455e-01
  3.224745e+01    7.872375e-01
  3.226332e+01    7.716313e-01
  3.227920e+01    7.663767e-01
  3.229507e+01    7.743931e-01
  3.231095e+01    7.752803e-01
  3.232682e+01    7.599738e-01
  3.234270e+01    7.520944e-01
  3.235858e+01    7.351691e-01
  3.237445e+01    7.314332e-01
  3.239033e+01    7.390034e-01
  3.240620e+01    7.209494e-01
  3.242208e+01    7.313805e-01
  3.243795e+01    7.237986e-01
  3.245383e+01    7.219630e-01
  3.246970e+01    7.295105e-01
  3.248558e+01    7.376110e-01
  3.250146e+01    7.454007e-01
  3.251733e+01    7.239466e-01
  3.253321e+01    7.353480e-01
  3.254908e+01    7.326844e-01
