# == pyFAI calibration ==
# Distance Sample to Detector: 0.3999999939076516 m
# PONI: 9.750e-02, 1.135e-01 m
# Rotations: -0.000175 0.000000 -0.000000 rad
# 
# == Fit2d calibration ==
# Distance Sample-beamCenter: 400.000 mm
# Center: x=1514.000, y=1300.000 pix
# Tilt: 0.010 deg  TiltPlanRot: 0.010 deg
# 
# Detector Detector	 Spline= None	 PixelSize= 7.500e-05, 7.500e-05 m
#    Detector has a mask: False 
#    Detector has a dark current: False 
#    detector has a flat field: False 
# 
# Wavelength: 6.888e-11 m
# Mask applied: user provided
# Dark current applied: False
# Flat field applied: False
# Polarization factor: 0.99
# Normalization factor: 1.0
# --> /home/myspot/data/2024_07_Rosario/Ru-CGO-ex/2024-07-27_002_Ru-CGO-ex_Activtation_ramp_000002_data_000135.dat
#       q_nm^-1             I 
  2.003187e-02    0.000000e+00
  3.590745e-02    3.427850e-02
  5.178302e-02    1.909255e-01
  6.765859e-02    2.882238e-01
  8.353417e-02    8.470646e-02
  9.940974e-02    0.000000e+00
  1.152853e-01    0.000000e+00
  1.311609e-01    0.000000e+00
  1.470365e-01    1.571192e-02
  1.629120e-01    3.497541e-02
  1.787876e-01    5.424045e-02
  1.946632e-01    2.597204e-02
  2.105388e-01    9.025171e-03
  2.264143e-01    2.222349e-02
  2.422899e-01    5.646945e-02
  2.581655e-01    3.107136e-02
  2.740411e-01    1.280187e-03
  2.899166e-01    1.612905e-02
  3.057922e-01    2.341191e-02
  3.216678e-01    1.587478e-02
  3.375433e-01    1.498351e-02
  3.534189e-01    2.110513e-02
  3.692945e-01    4.015093e-02
  3.851701e-01    2.618762e-02
  4.010456e-01    2.309790e-02
  4.169212e-01    1.862034e-02
  4.327968e-01    2.343735e-02
  4.486724e-01    3.857249e-02
  4.645479e-01    3.840003e-02
  4.804235e-01    4.939794e-02
  4.962991e-01    4.494494e-02
  5.121747e-01    4.332136e-02
  5.280502e-01    3.729666e-02
  5.439258e-01    1.761498e-02
  5.598014e-01    2.620964e-02
  5.756770e-01    3.565724e-02
  5.915525e-01    1.761168e-02
  6.074281e-01    2.702127e-02
  6.233037e-01    1.345043e-02
  6.391793e-01    2.879241e-02
  6.550548e-01    3.409183e-02
  6.709304e-01    2.646894e-02
  6.868060e-01    3.599530e-02
  7.026815e-01    2.368128e-02
  7.185571e-01    1.172916e-02
  7.344327e-01    2.208617e-02
  7.503083e-01    4.425606e-02
  7.661838e-01    6.299388e-02
  7.820594e-01    1.121749e-01
  7.979350e-01    1.249447e-01
  8.138106e-01    1.537366e-01
  8.296861e-01    2.370071e-01
  8.455617e-01    2.584672e-01
  8.614373e-01    3.464471e-01
  8.773129e-01    4.126507e-01
  8.931884e-01    4.820606e-01
  9.090640e-01    5.676963e-01
  9.249396e-01    5.732569e-01
  9.408152e-01    5.569689e-01
  9.566907e-01    7.869071e-01
  9.725663e-01    7.900344e-01
  9.884419e-01    9.090372e-01
  1.004317e+00    1.003465e+00
  1.020193e+00    1.073548e+00
  1.036069e+00    1.156171e+00
  1.051944e+00    1.237687e+00
  1.067820e+00    1.368963e+00
  1.083695e+00    1.379679e+00
  1.099571e+00    1.367743e+00
  1.115446e+00    1.387744e+00
  1.131322e+00    1.369579e+00
  1.147198e+00    1.413635e+00
  1.163073e+00    1.388257e+00
  1.178949e+00    1.524636e+00
  1.194824e+00    1.673035e+00
  1.210700e+00    1.733229e+00
  1.226575e+00    2.046894e+00
  1.242451e+00    2.284938e+00
  1.258327e+00    2.330045e+00
  1.274202e+00    2.319888e+00
  1.290078e+00    2.402977e+00
  1.305953e+00    2.385413e+00
  1.321829e+00    2.339795e+00
  1.337705e+00    2.506915e+00
  1.353580e+00    2.531079e+00
  1.369456e+00    2.477053e+00
  1.385331e+00    2.551966e+00
  1.401207e+00    2.541969e+00
  1.417082e+00    2.574567e+00
  1.432958e+00    2.645530e+00
  1.448834e+00    2.693078e+00
  1.464709e+00    2.843000e+00
  1.480585e+00    2.856850e+00
  1.496460e+00    2.780154e+00
  1.512336e+00    3.027430e+00
  1.528211e+00    2.892224e+00
  1.544087e+00    2.864395e+00
  1.559963e+00    2.909878e+00
  1.575838e+00    2.909022e+00
  1.591714e+00    2.978920e+00
  1.607589e+00    2.887764e+00
  1.623465e+00    2.874337e+00
  1.639340e+00    2.815206e+00
  1.655216e+00    2.756701e+00
  1.671092e+00    2.868816e+00
  1.686967e+00    2.852371e+00
  1.702843e+00    2.896839e+00
  1.718718e+00    2.774998e+00
  1.734594e+00    2.784327e+00
  1.750469e+00    2.748298e+00
  1.766345e+00    2.698226e+00
  1.782221e+00    2.644122e+00
  1.798096e+00    2.638610e+00
  1.813972e+00    2.653021e+00
  1.829847e+00    2.717266e+00
  1.845723e+00    2.766872e+00
  1.861598e+00    2.771109e+00
  1.877474e+00    2.810446e+00
  1.893350e+00    2.795939e+00
  1.909225e+00    2.767727e+00
  1.925101e+00    2.738538e+00
  1.940976e+00    2.648632e+00
  1.956852e+00    2.738152e+00
  1.972727e+00    2.714038e+00
  1.988603e+00    2.625070e+00
  2.004479e+00    2.632875e+00
  2.020354e+00    2.676225e+00
  2.036230e+00    2.711681e+00
  2.052105e+00    2.680384e+00
  2.067981e+00    2.717462e+00
  2.083856e+00    2.810380e+00
  2.099732e+00    2.790066e+00
  2.115608e+00    2.741370e+00
  2.131483e+00    2.672745e+00
  2.147359e+00    2.698383e+00
  2.163234e+00    2.751956e+00
  2.179110e+00    2.868297e+00
  2.194985e+00    2.730670e+00
  2.210861e+00    2.707546e+00
  2.226737e+00    2.693359e+00
  2.242612e+00    2.710116e+00
  2.258488e+00    2.690257e+00
  2.274363e+00    2.735087e+00
  2.290239e+00    2.702056e+00
  2.306115e+00    2.716578e+00
  2.321990e+00    2.749012e+00
  2.337866e+00    2.710950e+00
  2.353741e+00    2.688476e+00
  2.369617e+00    2.744560e+00
  2.385492e+00    2.807156e+00
  2.401368e+00    2.706903e+00
  2.417244e+00    2.582346e+00
  2.433119e+00    2.612654e+00
  2.448995e+00    2.752975e+00
  2.464870e+00    2.766432e+00
  2.480746e+00    2.832416e+00
  2.496621e+00    2.752756e+00
  2.512497e+00    2.731387e+00
  2.528373e+00    2.803074e+00
  2.544248e+00    2.796224e+00
  2.560124e+00    2.729437e+00
  2.575999e+00    2.596651e+00
  2.591875e+00    2.705912e+00
  2.607750e+00    2.813144e+00
  2.623626e+00    2.837452e+00
  2.639502e+00    2.782738e+00
  2.655377e+00    2.668173e+00
  2.671253e+00    2.761988e+00
  2.687128e+00    2.885873e+00
  2.703004e+00    2.778868e+00
  2.718879e+00    2.780993e+00
  2.734755e+00    2.753086e+00
  2.750631e+00    2.665293e+00
  2.766506e+00    2.647004e+00
  2.782382e+00    2.806407e+00
  2.798257e+00    2.776051e+00
  2.814133e+00    2.705247e+00
  2.830008e+00    2.732782e+00
  2.845884e+00    2.794020e+00
  2.861760e+00    2.864291e+00
  2.877635e+00    2.870391e+00
  2.893511e+00    2.871107e+00
  2.909386e+00    2.754114e+00
  2.925262e+00    2.771451e+00
  2.941137e+00    2.855550e+00
  2.957013e+00    2.848478e+00
  2.972889e+00    2.802218e+00
  2.988764e+00    2.739942e+00
  3.004640e+00    2.854965e+00
  3.020515e+00    2.948351e+00
  3.036391e+00    2.983461e+00
  3.052266e+00    2.970225e+00
  3.068142e+00    2.922622e+00
  3.084018e+00    2.819824e+00
  3.099893e+00    2.938865e+00
  3.115769e+00    2.962532e+00
  3.131644e+00    2.869497e+00
  3.147520e+00    2.902869e+00
  3.163395e+00    2.907130e+00
  3.179271e+00    2.946457e+00
  3.195147e+00    2.898590e+00
  3.211022e+00    2.844621e+00
  3.226898e+00    2.763618e+00
  3.242773e+00    2.933536e+00
  3.258649e+00    2.951301e+00
  3.274525e+00    2.863039e+00
  3.290400e+00    2.832066e+00
  3.306276e+00    2.935342e+00
  3.322151e+00    3.019044e+00
  3.338027e+00    2.950232e+00
  3.353902e+00    2.951570e+00
  3.369778e+00    2.987059e+00
  3.385654e+00    2.836662e+00
  3.401529e+00    2.865075e+00
  3.417405e+00    2.895117e+00
  3.433280e+00    2.852924e+00
  3.449156e+00    2.891109e+00
  3.465031e+00    2.974349e+00
  3.480907e+00    2.971510e+00
  3.496783e+00    2.904470e+00
  3.512658e+00    2.889597e+00
  3.528534e+00    2.983944e+00
  3.544409e+00    3.075405e+00
  3.560285e+00    2.975083e+00
  3.576160e+00    2.998346e+00
  3.592036e+00    2.980857e+00
  3.607912e+00    2.918253e+00
  3.623787e+00    2.985630e+00
  3.639663e+00    2.899441e+00
  3.655538e+00    2.956080e+00
  3.671414e+00    2.949255e+00
  3.687289e+00    2.906487e+00
  3.703165e+00    2.980958e+00
  3.719041e+00    2.898969e+00
  3.734916e+00    2.977445e+00
  3.750792e+00    2.935177e+00
  3.766667e+00    2.878532e+00
  3.782543e+00    2.885581e+00
  3.798418e+00    2.952217e+00
  3.814294e+00    2.959828e+00
  3.830170e+00    2.960037e+00
  3.846045e+00    3.004829e+00
  3.861921e+00    2.942335e+00
  3.877796e+00    3.020109e+00
  3.893672e+00    3.057791e+00
  3.909547e+00    2.985839e+00
  3.925423e+00    2.963055e+00
  3.941299e+00    2.923653e+00
  3.957174e+00    2.952986e+00
  3.973050e+00    2.976621e+00
  3.988925e+00    2.989326e+00
  4.004801e+00    3.029363e+00
  4.020676e+00    3.034526e+00
  4.036552e+00    3.009549e+00
  4.052428e+00    2.916414e+00
  4.068303e+00    2.976818e+00
  4.084179e+00    3.048363e+00
  4.100054e+00    3.074170e+00
  4.115930e+00    3.045419e+00
  4.131806e+00    2.968912e+00
  4.147681e+00    2.890932e+00
  4.163557e+00    2.959572e+00
  4.179432e+00    2.942245e+00
  4.195308e+00    2.871467e+00
  4.211183e+00    2.975871e+00
  4.227059e+00    3.030699e+00
  4.242935e+00    3.034197e+00
  4.258810e+00    2.954208e+00
  4.274686e+00    3.029963e+00
  4.290561e+00    3.035834e+00
  4.306437e+00    2.991335e+00
  4.322312e+00    3.019239e+00
  4.338188e+00    3.077095e+00
  4.354064e+00    3.057609e+00
  4.369939e+00    2.942496e+00
  4.385815e+00    2.986817e+00
  4.401690e+00    3.026525e+00
  4.417566e+00    3.017190e+00
  4.433441e+00    2.994897e+00
  4.449317e+00    2.941938e+00
  4.465193e+00    3.047852e+00
  4.481068e+00    3.048850e+00
  4.496944e+00    3.022682e+00
  4.512819e+00    2.994880e+00
  4.528695e+00    2.965921e+00
  4.544570e+00    3.026773e+00
  4.560446e+00    3.049845e+00
  4.576322e+00    3.081530e+00
  4.592197e+00    3.065246e+00
  4.608073e+00    3.021421e+00
  4.623948e+00    3.110381e+00
  4.639824e+00    3.092064e+00
  4.655699e+00    3.183678e+00
  4.671575e+00    3.031770e+00
  4.687451e+00    2.950946e+00
  4.703326e+00    3.004477e+00
  4.719202e+00    3.097615e+00
  4.735077e+00    3.122609e+00
  4.750953e+00    3.017382e+00
  4.766828e+00    3.067783e+00
  4.782704e+00    3.117412e+00
  4.798580e+00    3.054244e+00
  4.814455e+00    3.147647e+00
  4.830331e+00    3.058974e+00
  4.846206e+00    3.041964e+00
  4.862082e+00    3.140919e+00
  4.877957e+00    3.113814e+00
  4.893833e+00    3.119395e+00
  4.909709e+00    3.057137e+00
  4.925584e+00    3.101625e+00
  4.941460e+00    3.101061e+00
  4.957335e+00    3.068609e+00
  4.973211e+00    3.126737e+00
  4.989086e+00    3.132551e+00
  5.004962e+00    3.086625e+00
  5.020838e+00    3.105327e+00
  5.036713e+00    3.127450e+00
  5.052589e+00    3.164186e+00
  5.068464e+00    3.114322e+00
  5.084340e+00    3.099530e+00
  5.100216e+00    3.085458e+00
  5.116091e+00    3.106491e+00
  5.131967e+00    3.108264e+00
  5.147842e+00    3.122825e+00
  5.163718e+00    3.097559e+00
  5.179593e+00    3.119387e+00
  5.195469e+00    3.127724e+00
  5.211345e+00    3.134818e+00
  5.227220e+00    3.123878e+00
  5.243096e+00    3.106388e+00
  5.258971e+00    3.126969e+00
  5.274847e+00    3.036948e+00
  5.290722e+00    2.937951e+00
  5.306598e+00    3.049545e+00
  5.322474e+00    3.151814e+00
  5.338349e+00    3.111878e+00
  5.354225e+00    3.064813e+00
  5.370100e+00    3.136470e+00
  5.385976e+00    3.043024e+00
  5.401851e+00    3.130271e+00
  5.417727e+00    3.160757e+00
  5.433603e+00    3.070380e+00
  5.449478e+00    3.043300e+00
  5.465354e+00    3.003152e+00
  5.481229e+00    3.053965e+00
  5.497105e+00    2.997766e+00
  5.512980e+00    3.050141e+00
  5.528856e+00    2.987023e+00
  5.544732e+00    3.078896e+00
  5.560607e+00    3.149365e+00
  5.576483e+00    3.129274e+00
  5.592358e+00    3.106509e+00
  5.608234e+00    3.133463e+00
  5.624109e+00    2.995023e+00
  5.639985e+00    2.992398e+00
  5.655861e+00    3.055891e+00
  5.671736e+00    3.056139e+00
  5.687612e+00    3.094290e+00
  5.703487e+00    3.099691e+00
  5.719363e+00    3.031385e+00
  5.735238e+00    3.060911e+00
  5.751114e+00    3.054777e+00
  5.766990e+00    3.067666e+00
  5.782865e+00    3.059786e+00
  5.798741e+00    3.009730e+00
  5.814616e+00    3.013793e+00
  5.830492e+00    2.946258e+00
  5.846367e+00    2.948040e+00
  5.862243e+00    3.018751e+00
  5.878119e+00    3.021508e+00
  5.893994e+00    3.061021e+00
  5.909870e+00    3.056778e+00
  5.925745e+00    3.070525e+00
  5.941621e+00    3.054623e+00
  5.957497e+00    2.995908e+00
  5.973372e+00    3.003539e+00
  5.989248e+00    3.010724e+00
  6.005123e+00    3.103099e+00
  6.020999e+00    3.080300e+00
  6.036874e+00    3.032656e+00
  6.052750e+00    2.995846e+00
  6.068626e+00    2.944642e+00
  6.084501e+00    2.986895e+00
  6.100377e+00    3.049441e+00
  6.116252e+00    3.057996e+00
  6.132128e+00    3.061019e+00
  6.148003e+00    3.030932e+00
  6.163879e+00    3.040241e+00
  6.179755e+00    3.038642e+00
  6.195630e+00    3.069515e+00
  6.211506e+00    3.087817e+00
  6.227381e+00    3.060980e+00
  6.243257e+00    3.033715e+00
  6.259132e+00    3.015284e+00
  6.275008e+00    3.033103e+00
  6.290884e+00    3.017891e+00
  6.306759e+00    2.997050e+00
  6.322635e+00    3.006024e+00
  6.338510e+00    2.996832e+00
  6.354386e+00    3.008602e+00
  6.370261e+00    3.012967e+00
  6.386137e+00    2.965543e+00
  6.402013e+00    2.962632e+00
  6.417888e+00    3.009626e+00
  6.433764e+00    2.994077e+00
  6.449639e+00    2.961259e+00
  6.465515e+00    2.989502e+00
  6.481390e+00    2.990956e+00
  6.497266e+00    3.008824e+00
  6.513142e+00    3.132546e+00
  6.529017e+00    3.067555e+00
  6.544893e+00    3.000150e+00
  6.560768e+00    3.006358e+00
  6.576644e+00    2.949227e+00
  6.592519e+00    2.989883e+00
  6.608395e+00    3.003206e+00
  6.624271e+00    2.921015e+00
  6.640146e+00    2.919188e+00
  6.656022e+00    2.946985e+00
  6.671897e+00    3.008090e+00
  6.687773e+00    2.951917e+00
  6.703648e+00    2.977515e+00
  6.719524e+00    2.957958e+00
  6.735400e+00    3.043739e+00
  6.751275e+00    3.083530e+00
  6.767151e+00    2.992044e+00
  6.783026e+00    2.989830e+00
  6.798902e+00    3.020116e+00
  6.814777e+00    3.023190e+00
  6.830653e+00    3.022431e+00
  6.846529e+00    2.987909e+00
  6.862404e+00    2.969618e+00
  6.878280e+00    2.926098e+00
  6.894155e+00    2.961569e+00
  6.910031e+00    3.038932e+00
  6.925907e+00    3.078650e+00
  6.941782e+00    2.989581e+00
  6.957658e+00    2.996957e+00
  6.973533e+00    2.973612e+00
  6.989409e+00    2.988415e+00
  7.005284e+00    2.963109e+00
  7.021160e+00    2.951616e+00
  7.037036e+00    2.919657e+00
  7.052911e+00    2.972962e+00
  7.068787e+00    3.004190e+00
  7.084662e+00    2.968211e+00
  7.100538e+00    2.983726e+00
  7.116413e+00    3.062125e+00
  7.132289e+00    3.008952e+00
  7.148165e+00    2.940015e+00
  7.164040e+00    2.970507e+00
  7.179916e+00    2.926838e+00
  7.195791e+00    2.968096e+00
  7.211667e+00    2.966192e+00
  7.227542e+00    2.908346e+00
  7.243418e+00    2.904473e+00
  7.259294e+00    2.974530e+00
  7.275169e+00    2.973148e+00
  7.291045e+00    2.963452e+00
  7.306920e+00    2.954402e+00
  7.322796e+00    3.002202e+00
  7.338671e+00    3.000701e+00
  7.354547e+00    2.902462e+00
  7.370423e+00    2.968547e+00
  7.386298e+00    2.985214e+00
  7.402174e+00    2.962954e+00
  7.418049e+00    2.971416e+00
  7.433925e+00    3.008804e+00
  7.449800e+00    3.017564e+00
  7.465676e+00    3.010954e+00
  7.481552e+00    2.994000e+00
  7.497427e+00    2.840450e+00
  7.513303e+00    2.866900e+00
  7.529178e+00    2.952241e+00
  7.545054e+00    2.932452e+00
  7.560929e+00    2.933038e+00
  7.576805e+00    2.898067e+00
  7.592681e+00    2.896532e+00
  7.608556e+00    2.940819e+00
  7.624432e+00    2.874228e+00
  7.640307e+00    2.906417e+00
  7.656183e+00    2.932611e+00
  7.672058e+00    2.939871e+00
  7.687934e+00    2.947458e+00
  7.703810e+00    2.938625e+00
  7.719685e+00    2.942598e+00
  7.735561e+00    2.909230e+00
  7.751436e+00    2.914637e+00
  7.767312e+00    2.885375e+00
  7.783187e+00    2.946873e+00
  7.799063e+00    2.944298e+00
  7.814939e+00    2.932633e+00
  7.830814e+00    2.925846e+00
  7.846690e+00    2.883843e+00
  7.862565e+00    2.862229e+00
  7.878441e+00    2.892938e+00
  7.894317e+00    2.909297e+00
  7.910192e+00    2.942649e+00
  7.926068e+00    2.885366e+00
  7.941943e+00    2.941015e+00
  7.957819e+00    2.862465e+00
  7.973694e+00    2.821145e+00
  7.989570e+00    2.877314e+00
  8.005446e+00    2.904987e+00
  8.021321e+00    2.922667e+00
  8.037197e+00    2.908069e+00
  8.053072e+00    2.861980e+00
  8.068948e+00    2.860219e+00
  8.084823e+00    2.919775e+00
  8.100699e+00    2.913700e+00
  8.116575e+00    2.941304e+00
  8.132450e+00    2.922322e+00
  8.148326e+00    2.934815e+00
  8.164201e+00    2.953344e+00
  8.180077e+00    2.960874e+00
  8.195952e+00    2.994420e+00
  8.211828e+00    2.983771e+00
  8.227704e+00    2.956147e+00
  8.243579e+00    2.931576e+00
  8.259455e+00    2.862650e+00
  8.275330e+00    2.840246e+00
  8.291206e+00    2.800537e+00
  8.307081e+00    2.855614e+00
  8.322957e+00    2.848708e+00
  8.338833e+00    2.928705e+00
  8.354708e+00    2.917335e+00
  8.370584e+00    2.849627e+00
  8.386459e+00    2.857269e+00
  8.402335e+00    2.861456e+00
  8.418210e+00    2.806229e+00
  8.434086e+00    2.859494e+00
  8.449962e+00    2.909210e+00
  8.465837e+00    2.823394e+00
  8.481713e+00    2.844464e+00
  8.497588e+00    2.876981e+00
  8.513464e+00    2.827550e+00
  8.529339e+00    2.810806e+00
  8.545215e+00    2.801964e+00
  8.561091e+00    2.814084e+00
  8.576966e+00    2.813296e+00
  8.592842e+00    2.819739e+00
  8.608717e+00    2.813356e+00
  8.624593e+00    2.899189e+00
  8.640468e+00    2.923014e+00
  8.656344e+00    2.849915e+00
  8.672220e+00    2.844346e+00
  8.688095e+00    2.864387e+00
  8.703971e+00    2.880302e+00
  8.719846e+00    2.851518e+00
  8.735722e+00    2.814717e+00
  8.751598e+00    2.863430e+00
  8.767473e+00    2.859639e+00
  8.783349e+00    2.774298e+00
  8.799224e+00    2.811661e+00
  8.815100e+00    2.870448e+00
  8.830975e+00    2.874614e+00
  8.846851e+00    2.847719e+00
  8.862727e+00    2.827825e+00
  8.878602e+00    2.829321e+00
  8.894478e+00    2.805946e+00
  8.910353e+00    2.823695e+00
  8.926229e+00    2.790163e+00
  8.942104e+00    2.806357e+00
  8.957980e+00    2.788183e+00
  8.973856e+00    2.766761e+00
  8.989731e+00    2.791006e+00
  9.005607e+00    2.813964e+00
  9.021482e+00    2.807039e+00
  9.037358e+00    2.810185e+00
  9.053233e+00    2.821674e+00
  9.069109e+00    2.741352e+00
  9.084985e+00    2.789566e+00
  9.100860e+00    2.794281e+00
  9.116736e+00    2.806917e+00
  9.132611e+00    2.750440e+00
  9.148487e+00    2.770398e+00
  9.164362e+00    2.765466e+00
  9.180238e+00    2.771011e+00
  9.196114e+00    2.777561e+00
  9.211989e+00    2.761594e+00
  9.227865e+00    2.799586e+00
  9.243740e+00    2.844722e+00
  9.259616e+00    2.813982e+00
  9.275491e+00    2.806820e+00
  9.291367e+00    2.808162e+00
  9.307243e+00    2.797887e+00
  9.323118e+00    2.767587e+00
  9.338994e+00    2.754290e+00
  9.354869e+00    2.743851e+00
  9.370745e+00    2.764570e+00
  9.386620e+00    2.735367e+00
  9.402496e+00    2.758762e+00
  9.418372e+00    2.776097e+00
  9.434247e+00    2.793255e+00
  9.450123e+00    2.773737e+00
  9.465998e+00    2.733890e+00
  9.481874e+00    2.741930e+00
  9.497749e+00    2.761244e+00
  9.513625e+00    2.741818e+00
  9.529501e+00    2.703632e+00
  9.545376e+00    2.691445e+00
  9.561252e+00    2.686549e+00
  9.577127e+00    2.756848e+00
  9.593003e+00    2.785371e+00
  9.608878e+00    2.752130e+00
  9.624754e+00    2.722721e+00
  9.640630e+00    2.737232e+00
  9.656505e+00    2.735341e+00
  9.672381e+00    2.723623e+00
  9.688256e+00    2.674189e+00
  9.704132e+00    2.699766e+00
  9.720008e+00    2.714375e+00
  9.735883e+00    2.686046e+00
  9.751759e+00    2.647470e+00
  9.767634e+00    2.689819e+00
  9.783510e+00    2.685266e+00
  9.799385e+00    2.714012e+00
  9.815261e+00    2.681475e+00
  9.831137e+00    2.676690e+00
  9.847012e+00    2.680109e+00
  9.862888e+00    2.669644e+00
  9.878763e+00    2.591649e+00
  9.894639e+00    2.619158e+00
  9.910514e+00    2.618395e+00
  9.926390e+00    2.640785e+00
  9.942266e+00    2.665017e+00
  9.958141e+00    2.631449e+00
  9.974017e+00    2.673556e+00
  9.989892e+00    2.676460e+00
  1.000577e+01    2.641045e+00
  1.002164e+01    2.626384e+00
  1.003752e+01    2.673737e+00
  1.005339e+01    2.690741e+00
  1.006927e+01    2.634572e+00
  1.008515e+01    2.632788e+00
  1.010102e+01    2.609431e+00
  1.011690e+01    2.605125e+00
  1.013277e+01    2.613946e+00
  1.014865e+01    2.562686e+00
  1.016452e+01    2.602975e+00
  1.018040e+01    2.663501e+00
  1.019627e+01    2.630137e+00
  1.021215e+01    2.661822e+00
  1.022803e+01    2.640150e+00
  1.024390e+01    2.589011e+00
  1.025978e+01    2.590292e+00
  1.027565e+01    2.624153e+00
  1.029153e+01    2.654816e+00
  1.030740e+01    2.621974e+00
  1.032328e+01    2.609277e+00
  1.033915e+01    2.585815e+00
  1.035503e+01    2.606987e+00
  1.037091e+01    2.615654e+00
  1.038678e+01    2.588696e+00
  1.040266e+01    2.560243e+00
  1.041853e+01    2.555057e+00
  1.043441e+01    2.550732e+00
  1.045028e+01    2.598414e+00
  1.046616e+01    2.591482e+00
  1.048204e+01    2.592242e+00
  1.049791e+01    2.579914e+00
  1.051379e+01    2.562792e+00
  1.052966e+01    2.592502e+00
  1.054554e+01    2.580335e+00
  1.056141e+01    2.601182e+00
  1.057729e+01    2.595780e+00
  1.059316e+01    2.545329e+00
  1.060904e+01    2.561308e+00
  1.062492e+01    2.575202e+00
  1.064079e+01    2.542364e+00
  1.065667e+01    2.548975e+00
  1.067254e+01    2.514322e+00
  1.068842e+01    2.560331e+00
  1.070429e+01    2.562341e+00
  1.072017e+01    2.544659e+00
  1.073604e+01    2.535774e+00
  1.075192e+01    2.544505e+00
  1.076780e+01    2.514839e+00
  1.078367e+01    2.554151e+00
  1.079955e+01    2.551103e+00
  1.081542e+01    2.525866e+00
  1.083130e+01    2.569468e+00
  1.084717e+01    2.482424e+00
  1.086305e+01    2.468869e+00
  1.087892e+01    2.476512e+00
  1.089480e+01    2.448136e+00
  1.091068e+01    2.533499e+00
  1.092655e+01    2.524172e+00
  1.094243e+01    2.505490e+00
  1.095830e+01    2.490088e+00
  1.097418e+01    2.533337e+00
  1.099005e+01    2.490527e+00
  1.100593e+01    2.464381e+00
  1.102180e+01    2.448264e+00
  1.103768e+01    2.470354e+00
  1.105356e+01    2.475947e+00
  1.106943e+01    2.466647e+00
  1.108531e+01    2.480022e+00
  1.110118e+01    2.489450e+00
  1.111706e+01    2.514149e+00
  1.113293e+01    2.488476e+00
  1.114881e+01    2.485744e+00
  1.116468e+01    2.448167e+00
  1.118056e+01    2.477036e+00
  1.119644e+01    2.433345e+00
  1.121231e+01    2.422243e+00
  1.122819e+01    2.426524e+00
  1.124406e+01    2.415896e+00
  1.125994e+01    2.403354e+00
  1.127581e+01    2.449114e+00
  1.129169e+01    2.425845e+00
  1.130756e+01    2.397274e+00
  1.132344e+01    2.429085e+00
  1.133932e+01    2.425065e+00
  1.135519e+01    2.457042e+00
  1.137107e+01    2.435150e+00
  1.138694e+01    2.439959e+00
  1.140282e+01    2.425237e+00
  1.141869e+01    2.371695e+00
  1.143457e+01    2.359198e+00
  1.145045e+01    2.412566e+00
  1.146632e+01    2.404625e+00
  1.148220e+01    2.370259e+00
  1.149807e+01    2.381696e+00
  1.151395e+01    2.348353e+00
  1.152982e+01    2.391312e+00
  1.154570e+01    2.364472e+00
  1.156157e+01    2.341626e+00
  1.157745e+01    2.357902e+00
  1.159333e+01    2.352093e+00
  1.160920e+01    2.323464e+00
  1.162508e+01    2.322568e+00
  1.164095e+01    2.359733e+00
  1.165683e+01    2.366464e+00
  1.167270e+01    2.332698e+00
  1.168858e+01    2.333728e+00
  1.170445e+01    2.363475e+00
  1.172033e+01    2.377924e+00
  1.173621e+01    2.334589e+00
  1.175208e+01    2.325599e+00
  1.176796e+01    2.292136e+00
  1.178383e+01    2.326303e+00
  1.179971e+01    2.306418e+00
  1.181558e+01    2.315956e+00
  1.183146e+01    2.345051e+00
  1.184733e+01    2.319053e+00
  1.186321e+01    2.339862e+00
  1.187909e+01    2.325675e+00
  1.189496e+01    2.322775e+00
  1.191084e+01    2.331643e+00
  1.192671e+01    2.315148e+00
  1.194259e+01    2.323518e+00
  1.195846e+01    2.295632e+00
  1.197434e+01    2.334778e+00
  1.199021e+01    2.341611e+00
  1.200609e+01    2.318494e+00
  1.202197e+01    2.337373e+00
  1.203784e+01    2.322687e+00
  1.205372e+01    2.365738e+00
  1.206959e+01    2.303152e+00
  1.208547e+01    2.299563e+00
  1.210134e+01    2.336911e+00
  1.211722e+01    2.311344e+00
  1.213309e+01    2.322441e+00
  1.214897e+01    2.345087e+00
  1.216485e+01    2.347879e+00
  1.218072e+01    2.330389e+00
  1.219660e+01    2.299352e+00
  1.221247e+01    2.302788e+00
  1.222835e+01    2.294030e+00
  1.224422e+01    2.318622e+00
  1.226010e+01    2.333802e+00
  1.227597e+01    2.297232e+00
  1.229185e+01    2.307139e+00
  1.230773e+01    2.293000e+00
  1.232360e+01    2.316545e+00
  1.233948e+01    2.313330e+00
  1.235535e+01    2.301149e+00
  1.237123e+01    2.313248e+00
  1.238710e+01    2.310207e+00
  1.240298e+01    2.316119e+00
  1.241886e+01    2.293560e+00
  1.243473e+01    2.294002e+00
  1.245061e+01    2.291577e+00
  1.246648e+01    2.320176e+00
  1.248236e+01    2.342887e+00
  1.249823e+01    2.324647e+00
  1.251411e+01    2.316007e+00
  1.252998e+01    2.337240e+00
  1.254586e+01    2.369437e+00
  1.256174e+01    2.347900e+00
  1.257761e+01    2.361794e+00
  1.259349e+01    2.319476e+00
  1.260936e+01    2.320804e+00
  1.262524e+01    2.378541e+00
  1.264111e+01    2.391173e+00
  1.265699e+01    2.401726e+00
  1.267286e+01    2.410665e+00
  1.268874e+01    2.393017e+00
  1.270462e+01    2.470550e+00
  1.272049e+01    2.500353e+00
  1.273637e+01    2.458119e+00
  1.275224e+01    2.496197e+00
  1.276812e+01    2.549216e+00
  1.278399e+01    2.623964e+00
  1.279987e+01    2.642239e+00
  1.281574e+01    2.679461e+00
  1.283162e+01    2.783067e+00
  1.284750e+01    2.826285e+00
  1.286337e+01    2.951925e+00
  1.287925e+01    2.993328e+00
  1.289512e+01    3.077509e+00
  1.291100e+01    3.291181e+00
  1.292687e+01    3.525068e+00
  1.294275e+01    3.774200e+00
  1.295862e+01    4.004207e+00
  1.297450e+01    4.349099e+00
  1.299038e+01    4.742877e+00
  1.300625e+01    5.375991e+00
  1.302213e+01    6.198927e+00
  1.303800e+01    7.172471e+00
  1.305388e+01    8.339063e+00
  1.306975e+01    9.512998e+00
  1.308563e+01    1.086173e+01
  1.310150e+01    1.220126e+01
  1.311738e+01    1.327310e+01
  1.313326e+01    1.458223e+01
  1.314913e+01    1.583694e+01
  1.316501e+01    1.657142e+01
  1.318088e+01    1.696154e+01
  1.319676e+01    1.667918e+01
  1.321263e+01    1.549449e+01
  1.322851e+01    1.376904e+01
  1.324438e+01    1.165346e+01
  1.326026e+01    9.673851e+00
  1.327614e+01    8.229892e+00
  1.329201e+01    6.976545e+00
  1.330789e+01    6.092941e+00
  1.332376e+01    5.350519e+00
  1.333964e+01    4.729565e+00
  1.335551e+01    4.348823e+00
  1.337139e+01    4.000866e+00
  1.338727e+01    3.665785e+00
  1.340314e+01    3.423002e+00
  1.341902e+01    3.251864e+00
  1.343489e+01    3.059707e+00
  1.345077e+01    2.876164e+00
  1.346664e+01    2.785547e+00
  1.348252e+01    2.747842e+00
  1.349839e+01    2.651715e+00
  1.351427e+01    2.610474e+00
  1.353015e+01    2.505228e+00
  1.354602e+01    2.488950e+00
  1.356190e+01    2.478322e+00
  1.357777e+01    2.443979e+00
  1.359365e+01    2.394578e+00
  1.360952e+01    2.349920e+00
  1.362540e+01    2.305677e+00
  1.364127e+01    2.268817e+00
  1.365715e+01    2.273813e+00
  1.367303e+01    2.216108e+00
  1.368890e+01    2.264524e+00
  1.370478e+01    2.248663e+00
  1.372065e+01    2.240310e+00
  1.373653e+01    2.176622e+00
  1.375240e+01    2.156544e+00
  1.376828e+01    2.183853e+00
  1.378415e+01    2.162697e+00
  1.380003e+01    2.168572e+00
  1.381591e+01    2.130044e+00
  1.383178e+01    2.111935e+00
  1.384766e+01    2.117543e+00
  1.386353e+01    2.078668e+00
  1.387941e+01    2.076226e+00
  1.389528e+01    2.074252e+00
  1.391116e+01    2.105539e+00
  1.392703e+01    2.078782e+00
  1.394291e+01    2.050518e+00
  1.395879e+01    2.016750e+00
  1.397466e+01    1.995554e+00
  1.399054e+01    2.036777e+00
  1.400641e+01    2.052127e+00
  1.402229e+01    2.050187e+00
  1.403816e+01    2.051231e+00
  1.405404e+01    2.035440e+00
  1.406991e+01    2.031546e+00
  1.408579e+01    2.006263e+00
  1.410167e+01    2.024433e+00
  1.411754e+01    2.012539e+00
  1.413342e+01    1.986785e+00
  1.414929e+01    1.966434e+00
  1.416517e+01    1.960873e+00
  1.418104e+01    1.999533e+00
  1.419692e+01    1.977347e+00
  1.421279e+01    1.967016e+00
  1.422867e+01    1.980811e+00
  1.424455e+01    1.962969e+00
  1.426042e+01    1.940997e+00
  1.427630e+01    1.978888e+00
  1.429217e+01    1.995121e+00
  1.430805e+01    1.913249e+00
  1.432392e+01    1.915631e+00
  1.433980e+01    1.954623e+00
  1.435568e+01    1.952242e+00
  1.437155e+01    1.953701e+00
  1.438743e+01    1.943888e+00
  1.440330e+01    1.945932e+00
  1.441918e+01    1.923699e+00
  1.443505e+01    1.933538e+00
  1.445093e+01    1.913820e+00
  1.446680e+01    1.919755e+00
  1.448268e+01    1.926534e+00
  1.449856e+01    1.895420e+00
  1.451443e+01    1.895666e+00
  1.453031e+01    1.884555e+00
  1.454618e+01    1.887061e+00
  1.456206e+01    1.910346e+00
  1.457793e+01    1.912559e+00
  1.459381e+01    1.912641e+00
  1.460968e+01    1.898809e+00
  1.462556e+01    1.928057e+00
  1.464144e+01    1.903705e+00
  1.465731e+01    1.915326e+00
  1.467319e+01    1.898131e+00
  1.468906e+01    1.862612e+00
  1.470494e+01    1.891615e+00
  1.472081e+01    1.859411e+00
  1.473669e+01    1.910293e+00
  1.475256e+01    1.932323e+00
  1.476844e+01    1.852449e+00
  1.478432e+01    1.879535e+00
  1.480019e+01    1.895044e+00
  1.481607e+01    1.873833e+00
  1.483194e+01    1.880295e+00
  1.484782e+01    1.903081e+00
  1.486369e+01    1.915970e+00
  1.487957e+01    1.937007e+00
  1.489544e+01    1.947207e+00
  1.491132e+01    1.982226e+00
  1.492720e+01    1.953246e+00
  1.494307e+01    1.998001e+00
  1.495895e+01    2.016358e+00
  1.497482e+01    2.054744e+00
  1.499070e+01    2.081742e+00
  1.500657e+01    2.122566e+00
  1.502245e+01    2.186728e+00
  1.503832e+01    2.299713e+00
  1.505420e+01    2.372959e+00
  1.507008e+01    2.526608e+00
  1.508595e+01    2.710362e+00
  1.510183e+01    2.885862e+00
  1.511770e+01    3.154617e+00
  1.513358e+01    3.484893e+00
  1.514945e+01    3.757786e+00
  1.516533e+01    4.130140e+00
  1.518120e+01    4.559211e+00
  1.519708e+01    4.901572e+00
  1.521296e+01    5.240610e+00
  1.522883e+01    5.448853e+00
  1.524471e+01    5.644323e+00
  1.526058e+01    5.793965e+00
  1.527646e+01    5.752994e+00
  1.529233e+01    5.596732e+00
  1.530821e+01    5.225869e+00
  1.532409e+01    4.846557e+00
  1.533996e+01    4.350298e+00
  1.535584e+01    3.775440e+00
  1.537171e+01    3.366602e+00
  1.538759e+01    3.007133e+00
  1.540346e+01    2.792349e+00
  1.541934e+01    2.566910e+00
  1.543521e+01    2.455894e+00
  1.545109e+01    2.312866e+00
  1.546697e+01    2.180354e+00
  1.548284e+01    2.113413e+00
  1.549872e+01    2.065528e+00
  1.551459e+01    1.978595e+00
  1.553047e+01    1.935608e+00
  1.554634e+01    1.897637e+00
  1.556222e+01    1.822940e+00
  1.557809e+01    1.819407e+00
  1.559397e+01    1.822520e+00
  1.560985e+01    1.819180e+00
  1.562572e+01    1.806277e+00
  1.564160e+01    1.789007e+00
  1.565747e+01    1.764641e+00
  1.567335e+01    1.748184e+00
  1.568922e+01    1.745214e+00
  1.570510e+01    1.720566e+00
  1.572097e+01    1.671924e+00
  1.573685e+01    1.686216e+00
  1.575273e+01    1.680864e+00
  1.576860e+01    1.680787e+00
  1.578448e+01    1.669628e+00
  1.580035e+01    1.663601e+00
  1.581623e+01    1.646778e+00
  1.583210e+01    1.625770e+00
  1.584798e+01    1.634903e+00
  1.586385e+01    1.654331e+00
  1.587973e+01    1.627494e+00
  1.589561e+01    1.614983e+00
  1.591148e+01    1.632936e+00
  1.592736e+01    1.654547e+00
  1.594323e+01    1.631912e+00
  1.595911e+01    1.620265e+00
  1.597498e+01    1.608476e+00
  1.599086e+01    1.608204e+00
  1.600673e+01    1.604644e+00
  1.602261e+01    1.579034e+00
  1.603849e+01    1.596163e+00
  1.605436e+01    1.611458e+00
  1.607024e+01    1.606924e+00
  1.608611e+01    1.593485e+00
  1.610199e+01    1.584644e+00
  1.611786e+01    1.583047e+00
  1.613374e+01    1.566695e+00
  1.614961e+01    1.580980e+00
  1.616549e+01    1.581191e+00
  1.618137e+01    1.561609e+00
  1.619724e+01    1.554878e+00
  1.621312e+01    1.605633e+00
  1.622899e+01    1.597796e+00
  1.624487e+01    1.568827e+00
  1.626074e+01    1.530899e+00
  1.627662e+01    1.544127e+00
  1.629250e+01    1.546216e+00
  1.630837e+01    1.507456e+00
  1.632425e+01    1.510494e+00
  1.634012e+01    1.536828e+00
  1.635600e+01    1.505771e+00
  1.637187e+01    1.490386e+00
  1.638775e+01    1.492636e+00
  1.640362e+01    1.515502e+00
  1.641950e+01    1.513037e+00
  1.643538e+01    1.492771e+00
  1.645125e+01    1.523697e+00
  1.646713e+01    1.540806e+00
  1.648300e+01    1.559222e+00
  1.649888e+01    1.505522e+00
  1.651475e+01    1.504669e+00
  1.653063e+01    1.517726e+00
  1.654650e+01    1.495724e+00
  1.656238e+01    1.478511e+00
  1.657826e+01    1.439440e+00
  1.659413e+01    1.461499e+00
  1.661001e+01    1.502177e+00
  1.662588e+01    1.475011e+00
  1.664176e+01    1.477667e+00
  1.665763e+01    1.462509e+00
  1.667351e+01    1.460425e+00
  1.668938e+01    1.458481e+00
  1.670526e+01    1.458502e+00
  1.672114e+01    1.433244e+00
  1.673701e+01    1.479815e+00
  1.675289e+01    1.495297e+00
  1.676876e+01    1.439724e+00
  1.678464e+01    1.443333e+00
  1.680051e+01    1.454569e+00
  1.681639e+01    1.444370e+00
  1.683226e+01    1.448444e+00
  1.684814e+01    1.439439e+00
  1.686402e+01    1.448402e+00
  1.687989e+01    1.490225e+00
  1.689577e+01    1.466596e+00
  1.691164e+01    1.445410e+00
  1.692752e+01    1.432161e+00
  1.694339e+01    1.452519e+00
  1.695927e+01    1.453772e+00
  1.697514e+01    1.452647e+00
  1.699102e+01    1.424158e+00
  1.700690e+01    1.407915e+00
  1.702277e+01    1.428789e+00
  1.703865e+01    1.442556e+00
  1.705452e+01    1.428739e+00
  1.707040e+01    1.421999e+00
  1.708627e+01    1.398805e+00
  1.710215e+01    1.395231e+00
  1.711802e+01    1.384490e+00
  1.713390e+01    1.408928e+00
  1.714978e+01    1.424628e+00
  1.716565e+01    1.435416e+00
  1.718153e+01    1.438639e+00
  1.719740e+01    1.430251e+00
  1.721328e+01    1.397257e+00
  1.722915e+01    1.386494e+00
  1.724503e+01    1.385577e+00
  1.726091e+01    1.389793e+00
  1.727678e+01    1.364649e+00
  1.729266e+01    1.412603e+00
  1.730853e+01    1.386561e+00
  1.732441e+01    1.377825e+00
  1.734028e+01    1.400198e+00
  1.735616e+01    1.404387e+00
  1.737203e+01    1.383321e+00
  1.738791e+01    1.392767e+00
  1.740379e+01    1.358448e+00
  1.741966e+01    1.362430e+00
  1.743554e+01    1.362129e+00
  1.745141e+01    1.355277e+00
  1.746729e+01    1.348297e+00
  1.748316e+01    1.350613e+00
  1.749904e+01    1.359407e+00
  1.751491e+01    1.377417e+00
  1.753079e+01    1.369533e+00
  1.754667e+01    1.340717e+00
  1.756254e+01    1.358895e+00
  1.757842e+01    1.351000e+00
  1.759429e+01    1.374950e+00
  1.761017e+01    1.366836e+00
  1.762604e+01    1.347145e+00
  1.764192e+01    1.312559e+00
  1.765779e+01    1.330284e+00
  1.767367e+01    1.348160e+00
  1.768955e+01    1.330092e+00
  1.770542e+01    1.335729e+00
  1.772130e+01    1.340275e+00
  1.773717e+01    1.315150e+00
  1.775305e+01    1.335609e+00
  1.776892e+01    1.344392e+00
  1.778480e+01    1.327841e+00
  1.780067e+01    1.317720e+00
  1.781655e+01    1.306908e+00
  1.783243e+01    1.308342e+00
  1.784830e+01    1.307373e+00
  1.786418e+01    1.304084e+00
  1.788005e+01    1.303663e+00
  1.789593e+01    1.314792e+00
  1.791180e+01    1.305910e+00
  1.792768e+01    1.309433e+00
  1.794355e+01    1.317122e+00
  1.795943e+01    1.312047e+00
  1.797531e+01    1.306244e+00
  1.799118e+01    1.317282e+00
  1.800706e+01    1.302199e+00
  1.802293e+01    1.292100e+00
  1.803881e+01    1.278919e+00
  1.805468e+01    1.296180e+00
  1.807056e+01    1.307998e+00
  1.808643e+01    1.297989e+00
  1.810231e+01    1.293233e+00
  1.811819e+01    1.264772e+00
  1.813406e+01    1.270758e+00
  1.814994e+01    1.263303e+00
  1.816581e+01    1.270093e+00
  1.818169e+01    1.290624e+00
  1.819756e+01    1.283355e+00
  1.821344e+01    1.276026e+00
  1.822932e+01    1.258590e+00
  1.824519e+01    1.270931e+00
  1.826107e+01    1.267895e+00
  1.827694e+01    1.271039e+00
  1.829282e+01    1.255672e+00
  1.830869e+01    1.257175e+00
  1.832457e+01    1.271135e+00
  1.834044e+01    1.262779e+00
  1.835632e+01    1.238537e+00
  1.837220e+01    1.247887e+00
  1.838807e+01    1.258389e+00
  1.840395e+01    1.289573e+00
  1.841982e+01    1.277647e+00
  1.843570e+01    1.259928e+00
  1.845157e+01    1.243275e+00
  1.846745e+01    1.256504e+00
  1.848332e+01    1.250526e+00
  1.849920e+01    1.242378e+00
  1.851508e+01    1.247225e+00
  1.853095e+01    1.230900e+00
  1.854683e+01    1.234062e+00
  1.856270e+01    1.247303e+00
  1.857858e+01    1.273424e+00
  1.859445e+01    1.234450e+00
  1.861033e+01    1.229916e+00
  1.862620e+01    1.219393e+00
  1.864208e+01    1.237141e+00
  1.865796e+01    1.213332e+00
  1.867383e+01    1.226048e+00
  1.868971e+01    1.235558e+00
  1.870558e+01    1.200846e+00
  1.872146e+01    1.186744e+00
  1.873733e+01    1.220457e+00
  1.875321e+01    1.186579e+00
  1.876908e+01    1.171672e+00
  1.878496e+01    1.195647e+00
  1.880084e+01    1.220560e+00
  1.881671e+01    1.213832e+00
  1.883259e+01    1.220862e+00
  1.884846e+01    1.215741e+00
  1.886434e+01    1.206939e+00
  1.888021e+01    1.204720e+00
  1.889609e+01    1.210723e+00
  1.891196e+01    1.207344e+00
  1.892784e+01    1.198898e+00
  1.894372e+01    1.207530e+00
  1.895959e+01    1.205180e+00
  1.897547e+01    1.201080e+00
  1.899134e+01    1.197560e+00
  1.900722e+01    1.200194e+00
  1.902309e+01    1.195561e+00
  1.903897e+01    1.179466e+00
  1.905484e+01    1.185716e+00
  1.907072e+01    1.184381e+00
  1.908660e+01    1.200790e+00
  1.910247e+01    1.198426e+00
  1.911835e+01    1.184281e+00
  1.913422e+01    1.175472e+00
  1.915010e+01    1.193883e+00
  1.916597e+01    1.186905e+00
  1.918185e+01    1.173885e+00
  1.919773e+01    1.172731e+00
  1.921360e+01    1.199989e+00
  1.922948e+01    1.209642e+00
  1.924535e+01    1.179332e+00
  1.926123e+01    1.168870e+00
  1.927710e+01    1.176292e+00
  1.929298e+01    1.166475e+00
  1.930885e+01    1.170916e+00
  1.932473e+01    1.175556e+00
  1.934061e+01    1.151792e+00
  1.935648e+01    1.177945e+00
  1.937236e+01    1.185430e+00
  1.938823e+01    1.170184e+00
  1.940411e+01    1.173064e+00
  1.941998e+01    1.173422e+00
  1.943586e+01    1.153411e+00
  1.945173e+01    1.166467e+00
  1.946761e+01    1.171477e+00
  1.948349e+01    1.163636e+00
  1.949936e+01    1.155295e+00
  1.951524e+01    1.155496e+00
  1.953111e+01    1.154496e+00
  1.954699e+01    1.139940e+00
  1.956286e+01    1.154859e+00
  1.957874e+01    1.156900e+00
  1.959461e+01    1.158829e+00
  1.961049e+01    1.140177e+00
  1.962637e+01    1.150631e+00
  1.964224e+01    1.162484e+00
  1.965812e+01    1.170099e+00
  1.967399e+01    1.146041e+00
  1.968987e+01    1.136656e+00
  1.970574e+01    1.139963e+00
  1.972162e+01    1.139356e+00
  1.973749e+01    1.135964e+00
  1.975337e+01    1.128176e+00
  1.976925e+01    1.146118e+00
  1.978512e+01    1.120732e+00
  1.980100e+01    1.134934e+00
  1.981687e+01    1.156734e+00
  1.983275e+01    1.141583e+00
  1.984862e+01    1.120379e+00
  1.986450e+01    1.118207e+00
  1.988037e+01    1.119759e+00
  1.989625e+01    1.106398e+00
  1.991213e+01    1.104216e+00
  1.992800e+01    1.112099e+00
  1.994388e+01    1.103360e+00
  1.995975e+01    1.101460e+00
  1.997563e+01    1.090923e+00
  1.999150e+01    1.099982e+00
  2.000738e+01    1.106100e+00
  2.002325e+01    1.105915e+00
  2.003913e+01    1.115077e+00
  2.005501e+01    1.118819e+00
  2.007088e+01    1.118028e+00
  2.008676e+01    1.099140e+00
  2.010263e+01    1.098434e+00
  2.011851e+01    1.096185e+00
  2.013438e+01    1.106223e+00
  2.015026e+01    1.112608e+00
  2.016614e+01    1.084391e+00
  2.018201e+01    1.082199e+00
  2.019789e+01    1.081827e+00
  2.021376e+01    1.088543e+00
  2.022964e+01    1.101645e+00
  2.024551e+01    1.117484e+00
  2.026139e+01    1.116894e+00
  2.027726e+01    1.102738e+00
  2.029314e+01    1.076047e+00
  2.030902e+01    1.077996e+00
  2.032489e+01    1.110279e+00
  2.034077e+01    1.116856e+00
  2.035664e+01    1.092587e+00
  2.037252e+01    1.089103e+00
  2.038839e+01    1.071534e+00
  2.040427e+01    1.063208e+00
  2.042014e+01    1.090067e+00
  2.043602e+01    1.102926e+00
  2.045190e+01    1.090308e+00
  2.046777e+01    1.071011e+00
  2.048365e+01    1.075505e+00
  2.049952e+01    1.090985e+00
  2.051540e+01    1.069789e+00
  2.053127e+01    1.064544e+00
  2.054715e+01    1.087771e+00
  2.056302e+01    1.102222e+00
  2.057890e+01    1.073387e+00
  2.059478e+01    1.064354e+00
  2.061065e+01    1.079310e+00
  2.062653e+01    1.077342e+00
  2.064240e+01    1.078410e+00
  2.065828e+01    1.047695e+00
  2.067415e+01    1.052871e+00
  2.069003e+01    1.067882e+00
  2.070590e+01    1.061014e+00
  2.072178e+01    1.074619e+00
  2.073766e+01    1.056195e+00
  2.075353e+01    1.057792e+00
  2.076941e+01    1.068838e+00
  2.078528e+01    1.071329e+00
  2.080116e+01    1.089707e+00
  2.081703e+01    1.087447e+00
  2.083291e+01    1.051011e+00
  2.084878e+01    1.065806e+00
  2.086466e+01    1.092990e+00
  2.088054e+01    1.085874e+00
  2.089641e+01    1.098722e+00
  2.091229e+01    1.092533e+00
  2.092816e+01    1.091711e+00
  2.094404e+01    1.080025e+00
  2.095991e+01    1.074286e+00
  2.097579e+01    1.062351e+00
  2.099166e+01    1.063099e+00
  2.100754e+01    1.054940e+00
  2.102342e+01    1.067158e+00
  2.103929e+01    1.085152e+00
  2.105517e+01    1.085528e+00
  2.107104e+01    1.081404e+00
  2.108692e+01    1.092484e+00
  2.110279e+01    1.094929e+00
  2.111867e+01    1.069348e+00
  2.113455e+01    1.065219e+00
  2.115042e+01    1.083863e+00
  2.116630e+01    1.082552e+00
  2.118217e+01    1.083111e+00
  2.119805e+01    1.086091e+00
  2.121392e+01    1.081785e+00
  2.122980e+01    1.083915e+00
  2.124567e+01    1.092576e+00
  2.126155e+01    1.099007e+00
  2.127743e+01    1.087128e+00
  2.129330e+01    1.110308e+00
  2.130918e+01    1.134010e+00
  2.132505e+01    1.125052e+00
  2.134093e+01    1.117898e+00
  2.135680e+01    1.142890e+00
  2.137268e+01    1.124571e+00
  2.138855e+01    1.124596e+00
  2.140443e+01    1.174899e+00
  2.142031e+01    1.201499e+00
  2.143618e+01    1.202430e+00
  2.145206e+01    1.212873e+00
  2.146793e+01    1.232108e+00
  2.148381e+01    1.240739e+00
  2.149968e+01    1.269858e+00
  2.151556e+01    1.293044e+00
  2.153143e+01    1.326553e+00
  2.154731e+01    1.390024e+00
  2.156319e+01    1.408210e+00
  2.157906e+01    1.484647e+00
  2.159494e+01    1.567092e+00
  2.161081e+01    1.621571e+00
  2.162669e+01    1.699261e+00
  2.164256e+01    1.829382e+00
  2.165844e+01    1.961851e+00
  2.167431e+01    2.129956e+00
  2.169019e+01    2.313856e+00
  2.170607e+01    2.555264e+00
  2.172194e+01    2.870249e+00
  2.173782e+01    3.261891e+00
  2.175369e+01    3.767477e+00
  2.176957e+01    4.252228e+00
  2.178544e+01    4.884682e+00
  2.180132e+01    5.533411e+00
  2.181719e+01    6.240263e+00
  2.183307e+01    6.950624e+00
  2.184895e+01    7.643044e+00
  2.186482e+01    8.316571e+00
  2.188070e+01    8.910785e+00
  2.189657e+01    9.245237e+00
  2.191245e+01    9.264041e+00
  2.192832e+01    8.900537e+00
  2.194420e+01    8.176232e+00
  2.196007e+01    7.225219e+00
  2.197595e+01    6.275122e+00
  2.199183e+01    5.318421e+00
  2.200770e+01    4.476977e+00
  2.202358e+01    3.864563e+00
  2.203945e+01    3.312411e+00
  2.205533e+01    2.912991e+00
  2.207120e+01    2.590133e+00
  2.208708e+01    2.345819e+00
  2.210296e+01    2.103510e+00
  2.211883e+01    1.951148e+00
  2.213471e+01    1.806108e+00
  2.215058e+01    1.690349e+00
  2.216646e+01    1.605414e+00
  2.218233e+01    1.500218e+00
  2.219821e+01    1.462171e+00
  2.221408e+01    1.420025e+00
  2.222996e+01    1.354861e+00
  2.224584e+01    1.305960e+00
  2.226171e+01    1.257382e+00
  2.227759e+01    1.210024e+00
  2.229346e+01    1.180817e+00
  2.230934e+01    1.181192e+00
  2.232521e+01    1.151267e+00
  2.234109e+01    1.111083e+00
  2.235696e+01    1.114482e+00
  2.237284e+01    1.094147e+00
  2.238872e+01    1.072475e+00
  2.240459e+01    1.074490e+00
  2.242047e+01    1.078224e+00
  2.243634e+01    1.038110e+00
  2.245222e+01    1.021724e+00
  2.246809e+01    1.031838e+00
  2.248397e+01    1.037597e+00
  2.249984e+01    1.017499e+00
  2.251572e+01    1.025107e+00
  2.253160e+01    1.006962e+00
  2.254747e+01    1.011615e+00
  2.256335e+01    9.948500e-01
  2.257922e+01    9.720302e-01
  2.259510e+01    1.011266e+00
  2.261097e+01    9.682439e-01
  2.262685e+01    9.725069e-01
  2.264272e+01    9.758590e-01
  2.265860e+01    9.683411e-01
  2.267448e+01    9.385249e-01
  2.269035e+01    9.233071e-01
  2.270623e+01    9.282761e-01
  2.272210e+01    9.347422e-01
  2.273798e+01    9.251776e-01
  2.275385e+01    9.277897e-01
  2.276973e+01    9.255146e-01
  2.278560e+01    9.322600e-01
  2.280148e+01    9.219965e-01
  2.281736e+01    9.337283e-01
  2.283323e+01    9.266061e-01
  2.284911e+01    9.291088e-01
  2.286498e+01    9.163136e-01
  2.288086e+01    9.100991e-01
  2.289673e+01    9.160908e-01
  2.291261e+01    9.112603e-01
  2.292848e+01    9.027685e-01
  2.294436e+01    9.059033e-01
  2.296024e+01    9.300594e-01
  2.297611e+01    9.221283e-01
  2.299199e+01    8.882805e-01
  2.300786e+01    8.718641e-01
  2.302374e+01    9.050281e-01
  2.303961e+01    8.922594e-01
  2.305549e+01    9.067621e-01
  2.307137e+01    8.949540e-01
  2.308724e+01    8.738077e-01
  2.310312e+01    8.822017e-01
  2.311899e+01    8.863429e-01
  2.313487e+01    8.787292e-01
  2.315074e+01    8.638576e-01
  2.316662e+01    8.678819e-01
  2.318249e+01    8.568356e-01
  2.319837e+01    8.724326e-01
  2.321425e+01    8.715016e-01
  2.323012e+01    8.815905e-01
  2.324600e+01    8.775647e-01
  2.326187e+01    8.768067e-01
  2.327775e+01    8.674752e-01
  2.329362e+01    8.491265e-01
  2.330950e+01    8.591755e-01
  2.332537e+01    8.416781e-01
  2.334125e+01    8.562217e-01
  2.335713e+01    8.568186e-01
  2.337300e+01    8.503838e-01
  2.338888e+01    8.371866e-01
  2.340475e+01    8.470991e-01
  2.342063e+01    8.546228e-01
  2.343650e+01    8.704937e-01
  2.345238e+01    8.611653e-01
  2.346825e+01    8.564700e-01
  2.348413e+01    8.507558e-01
  2.350001e+01    8.365514e-01
  2.351588e+01    8.298498e-01
  2.353176e+01    8.377429e-01
  2.354763e+01    8.458030e-01
  2.356351e+01    8.436702e-01
  2.357938e+01    8.317673e-01
  2.359526e+01    8.476301e-01
  2.361113e+01    8.426530e-01
  2.362701e+01    8.307235e-01
  2.364289e+01    8.416482e-01
  2.365876e+01    8.404342e-01
  2.367464e+01    8.529795e-01
  2.369051e+01    8.672005e-01
  2.370639e+01    8.254846e-01
  2.372226e+01    8.092042e-01
  2.373814e+01    8.293079e-01
  2.375401e+01    8.340361e-01
  2.376989e+01    8.207039e-01
  2.378577e+01    8.056974e-01
  2.380164e+01    7.883794e-01
  2.381752e+01    7.981592e-01
  2.383339e+01    8.099672e-01
  2.384927e+01    8.040491e-01
  2.386514e+01    7.959788e-01
  2.388102e+01    7.886874e-01
  2.389689e+01    7.987291e-01
  2.391277e+01    7.934098e-01
  2.392865e+01    7.928725e-01
  2.394452e+01    8.092200e-01
  2.396040e+01    7.911870e-01
  2.397627e+01    7.990004e-01
  2.399215e+01    7.943951e-01
  2.400802e+01    7.918668e-01
  2.402390e+01    7.861584e-01
  2.403978e+01    7.822120e-01
  2.405565e+01    7.855898e-01
  2.407153e+01    8.006721e-01
  2.408740e+01    7.881086e-01
  2.410328e+01    7.809359e-01
  2.411915e+01    7.765010e-01
  2.413503e+01    7.585346e-01
  2.415090e+01    7.541806e-01
  2.416678e+01    7.755850e-01
  2.418266e+01    7.764988e-01
  2.419853e+01    7.667309e-01
  2.421441e+01    7.594410e-01
  2.423028e+01    7.626505e-01
  2.424616e+01    7.734933e-01
  2.426203e+01    7.683543e-01
  2.427791e+01    7.783170e-01
  2.429378e+01    7.758782e-01
  2.430966e+01    7.655266e-01
  2.432554e+01    7.582836e-01
  2.434141e+01    7.676362e-01
  2.435729e+01    7.617054e-01
  2.437316e+01    7.476099e-01
  2.438904e+01    7.935015e-01
  2.440491e+01    7.812438e-01
  2.442079e+01    7.896286e-01
  2.443666e+01    7.774432e-01
  2.445254e+01    7.834225e-01
  2.446842e+01    7.885507e-01
  2.448429e+01    8.038681e-01
  2.450017e+01    7.951927e-01
  2.451604e+01    7.836361e-01
  2.453192e+01    7.890332e-01
  2.454779e+01    8.027475e-01
  2.456367e+01    7.947019e-01
  2.457954e+01    8.129521e-01
  2.459542e+01    8.145501e-01
  2.461130e+01    7.908466e-01
  2.462717e+01    7.687933e-01
  2.464305e+01    7.539216e-01
  2.465892e+01    7.784666e-01
  2.467480e+01    7.715051e-01
  2.469067e+01    7.540916e-01
  2.470655e+01    7.931170e-01
  2.472242e+01    7.902722e-01
  2.473830e+01    7.783713e-01
  2.475418e+01    7.701024e-01
  2.477005e+01    7.870204e-01
  2.478593e+01    7.892089e-01
  2.480180e+01    7.769282e-01
  2.481768e+01    7.999276e-01
  2.483355e+01    7.992640e-01
  2.484943e+01    7.853475e-01
  2.486530e+01    7.902278e-01
  2.488118e+01    8.188686e-01
  2.489706e+01    8.037109e-01
  2.491293e+01    7.939309e-01
  2.492881e+01    7.841864e-01
  2.494468e+01    7.881468e-01
  2.496056e+01    7.957258e-01
  2.497643e+01    7.923138e-01
  2.499231e+01    8.072831e-01
  2.500819e+01    7.946305e-01
  2.502406e+01    7.846466e-01
  2.503994e+01    7.915270e-01
  2.505581e+01    8.070623e-01
  2.507169e+01    8.031005e-01
  2.508756e+01    8.218332e-01
  2.510344e+01    8.118719e-01
  2.511931e+01    8.183253e-01
  2.513519e+01    8.135117e-01
  2.515107e+01    8.216329e-01
  2.516694e+01    8.250129e-01
  2.518282e+01    8.040425e-01
  2.519869e+01    8.177766e-01
  2.521457e+01    8.529987e-01
  2.523044e+01    8.539559e-01
  2.524632e+01    8.396230e-01
  2.526219e+01    8.383799e-01
  2.527807e+01    8.500067e-01
  2.529395e+01    8.535721e-01
  2.530982e+01    8.298735e-01
  2.532570e+01    8.487974e-01
  2.534157e+01    8.777312e-01
  2.535745e+01    8.852793e-01
  2.537332e+01    8.897477e-01
  2.538920e+01    8.883525e-01
  2.540507e+01    9.056312e-01
  2.542095e+01    9.081482e-01
  2.543683e+01    9.214952e-01
  2.545270e+01    9.159059e-01
  2.546858e+01    9.154513e-01
  2.548445e+01    9.625952e-01
  2.550033e+01    9.877404e-01
  2.551620e+01    9.726832e-01
  2.553208e+01    9.997480e-01
  2.554795e+01    1.014371e+00
  2.556383e+01    1.032219e+00
  2.557971e+01    1.073957e+00
  2.559558e+01    1.081990e+00
  2.561146e+01    1.113780e+00
  2.562733e+01    1.173779e+00
  2.564321e+01    1.234185e+00
  2.565908e+01    1.286586e+00
  2.567496e+01    1.311531e+00
  2.569083e+01    1.404407e+00
  2.570671e+01    1.512942e+00
  2.572259e+01    1.587016e+00
  2.573846e+01    1.744313e+00
  2.575434e+01    1.851770e+00
  2.577021e+01    2.057812e+00
  2.578609e+01    2.341027e+00
  2.580196e+01    2.639521e+00
  2.581784e+01    2.968097e+00
  2.583371e+01    3.391697e+00
  2.584959e+01    3.897789e+00
  2.586547e+01    4.481455e+00
  2.588134e+01    5.093050e+00
  2.589722e+01    5.640332e+00
  2.591309e+01    6.260858e+00
  2.592897e+01    6.842177e+00
  2.594484e+01    7.325192e+00
  2.596072e+01    7.670487e+00
  2.597660e+01    7.674692e+00
  2.599247e+01    7.332419e+00
  2.600835e+01    6.825760e+00
  2.602422e+01    6.103228e+00
  2.604010e+01    5.320219e+00
  2.605597e+01    4.598444e+00
  2.607185e+01    3.900605e+00
  2.608772e+01    3.337564e+00
  2.610360e+01    2.862105e+00
  2.611948e+01    2.554704e+00
  2.613535e+01    2.250349e+00
  2.615123e+01    2.021889e+00
  2.616710e+01    1.860101e+00
  2.618298e+01    1.724275e+00
  2.619885e+01    1.612135e+00
  2.621473e+01    1.490462e+00
  2.623060e+01    1.381647e+00
  2.624648e+01    1.303445e+00
  2.626236e+01    1.242418e+00
  2.627823e+01    1.184952e+00
  2.629411e+01    1.162597e+00
  2.630998e+01    1.125999e+00
  2.632586e+01    1.104004e+00
  2.634173e+01    1.067125e+00
  2.635761e+01    1.048524e+00
  2.637348e+01    1.022406e+00
  2.638936e+01    9.927498e-01
  2.640524e+01    9.727148e-01
  2.642111e+01    9.528989e-01
  2.643699e+01    9.521015e-01
  2.645286e+01    9.531959e-01
  2.646874e+01    9.662678e-01
  2.648461e+01    9.576722e-01
  2.650049e+01    9.310040e-01
  2.651636e+01    9.190060e-01
  2.653224e+01    9.047990e-01
  2.654812e+01    8.897119e-01
  2.656399e+01    8.968093e-01
  2.657987e+01    9.167509e-01
  2.659574e+01    9.019223e-01
  2.661162e+01    8.941868e-01
  2.662749e+01    9.108712e-01
  2.664337e+01    9.165401e-01
  2.665924e+01    8.993765e-01
  2.667512e+01    8.654118e-01
  2.669100e+01    8.755955e-01
  2.670687e+01    8.835313e-01
  2.672275e+01    8.536439e-01
  2.673862e+01    8.672141e-01
  2.675450e+01    9.055108e-01
  2.677037e+01    8.949721e-01
  2.678625e+01    8.875029e-01
  2.680212e+01    8.727328e-01
  2.681800e+01    8.947238e-01
  2.683388e+01    8.687007e-01
  2.684975e+01    8.793666e-01
  2.686563e+01    9.128662e-01
  2.688150e+01    9.250682e-01
  2.689738e+01    9.215220e-01
  2.691325e+01    9.402587e-01
  2.692913e+01    9.456563e-01
  2.694501e+01    9.464716e-01
  2.696088e+01    9.656786e-01
  2.697676e+01    9.791433e-01
  2.699263e+01    1.011592e+00
  2.700851e+01    1.025724e+00
  2.702438e+01    1.044471e+00
  2.704026e+01    1.091910e+00
  2.705613e+01    1.108916e+00
  2.707201e+01    1.209681e+00
  2.708789e+01    1.299833e+00
  2.710376e+01    1.380537e+00
  2.711964e+01    1.492110e+00
  2.713551e+01    1.584381e+00
  2.715139e+01    1.756954e+00
  2.716726e+01    1.905046e+00
  2.718314e+01    2.051729e+00
  2.719901e+01    2.194533e+00
  2.721489e+01    2.257698e+00
  2.723077e+01    2.256181e+00
  2.724664e+01    2.198359e+00
  2.726252e+01    2.114663e+00
  2.727839e+01    1.972171e+00
  2.729427e+01    1.778131e+00
  2.731014e+01    1.623661e+00
  2.732602e+01    1.530137e+00
  2.734189e+01    1.389900e+00
  2.735777e+01    1.291703e+00
  2.737365e+01    1.200359e+00
  2.738952e+01    1.135711e+00
  2.740540e+01    1.099650e+00
  2.742127e+01    1.040814e+00
  2.743715e+01    1.015627e+00
  2.745302e+01    9.842952e-01
  2.746890e+01    9.534776e-01
  2.748477e+01    9.476179e-01
  2.750065e+01    9.229349e-01
  2.751653e+01    9.136152e-01
  2.753240e+01    8.595947e-01
  2.754828e+01    8.672664e-01
  2.756415e+01    8.832044e-01
  2.758003e+01    8.689888e-01
  2.759590e+01    8.625988e-01
  2.761178e+01    8.562831e-01
  2.762765e+01    8.512016e-01
  2.764353e+01    8.512089e-01
  2.765941e+01    8.136063e-01
  2.767528e+01    7.925138e-01
  2.769116e+01    8.053374e-01
  2.770703e+01    8.259726e-01
  2.772291e+01    8.174722e-01
  2.773878e+01    8.011315e-01
  2.775466e+01    8.098655e-01
  2.777054e+01    8.071032e-01
  2.778641e+01    7.988362e-01
  2.780229e+01    8.171804e-01
  2.781816e+01    8.124430e-01
  2.783404e+01    7.805840e-01
  2.784991e+01    7.925189e-01
  2.786579e+01    8.017794e-01
  2.788166e+01    7.989711e-01
  2.789754e+01    7.960393e-01
  2.791342e+01    7.914519e-01
  2.792929e+01    7.833516e-01
  2.794517e+01    7.768019e-01
  2.796104e+01    7.742751e-01
  2.797692e+01    7.826918e-01
  2.799279e+01    7.895086e-01
  2.800867e+01    7.848959e-01
  2.802454e+01    7.681538e-01
  2.804042e+01    7.560686e-01
  2.805630e+01    7.605708e-01
  2.807217e+01    7.653715e-01
  2.808805e+01    7.588743e-01
  2.810392e+01    7.826093e-01
  2.811980e+01    7.873496e-01
  2.813567e+01    7.921080e-01
  2.815155e+01    7.649726e-01
  2.816742e+01    7.569876e-01
  2.818330e+01    7.614465e-01
  2.819918e+01    7.835586e-01
  2.821505e+01    7.660304e-01
  2.823093e+01    7.524598e-01
  2.824680e+01    7.531285e-01
  2.826268e+01    7.768419e-01
  2.827855e+01    7.410175e-01
  2.829443e+01    7.319561e-01
  2.831030e+01    7.369596e-01
  2.832618e+01    7.479649e-01
  2.834206e+01    7.719933e-01
  2.835793e+01    7.640429e-01
  2.837381e+01    7.458267e-01
  2.838968e+01    7.620849e-01
  2.840556e+01    7.824348e-01
  2.842143e+01    7.687339e-01
  2.843731e+01    7.648397e-01
  2.845318e+01    7.535635e-01
  2.846906e+01    7.516624e-01
  2.848494e+01    7.288749e-01
  2.850081e+01    7.241565e-01
  2.851669e+01    7.583739e-01
  2.853256e+01    7.491631e-01
  2.854844e+01    7.625980e-01
  2.856431e+01    7.377751e-01
  2.858019e+01    7.319069e-01
  2.859606e+01    7.430888e-01
  2.861194e+01    7.428603e-01
  2.862782e+01    7.452126e-01
  2.864369e+01    7.320210e-01
  2.865957e+01    7.399952e-01
  2.867544e+01    7.616596e-01
  2.869132e+01    7.649544e-01
  2.870719e+01    7.579502e-01
  2.872307e+01    7.348670e-01
  2.873895e+01    7.351949e-01
  2.875482e+01    7.300673e-01
  2.877070e+01    7.364876e-01
  2.878657e+01    7.376146e-01
  2.880245e+01    7.500365e-01
  2.881832e+01    7.615557e-01
  2.883420e+01    7.398635e-01
  2.885007e+01    7.461793e-01
  2.886595e+01    7.709413e-01
  2.888183e+01    7.560014e-01
  2.889770e+01    7.417548e-01
  2.891358e+01    7.496850e-01
  2.892945e+01    7.453294e-01
  2.894533e+01    7.330160e-01
  2.896120e+01    7.270198e-01
  2.897708e+01    7.581392e-01
  2.899295e+01    7.453468e-01
  2.900883e+01    7.498078e-01
  2.902471e+01    7.499281e-01
  2.904058e+01    7.276062e-01
  2.905646e+01    7.536619e-01
  2.907233e+01    7.554390e-01
  2.908821e+01    7.334155e-01
  2.910408e+01    7.560428e-01
  2.911996e+01    7.437242e-01
  2.913583e+01    7.325489e-01
  2.915171e+01    7.375873e-01
  2.916759e+01    7.298448e-01
  2.918346e+01    7.349002e-01
  2.919934e+01    7.372344e-01
  2.921521e+01    7.347113e-01
  2.923109e+01    7.219585e-01
  2.924696e+01    7.241023e-01
  2.926284e+01    7.401347e-01
  2.927871e+01    7.363307e-01
  2.929459e+01    7.249041e-01
  2.931047e+01    7.260886e-01
  2.932634e+01    7.226796e-01
  2.934222e+01    7.327018e-01
  2.935809e+01    7.195343e-01
  2.937397e+01    7.282661e-01
  2.938984e+01    7.336860e-01
  2.940572e+01    7.100552e-01
  2.942159e+01    7.103484e-01
  2.943747e+01    7.304360e-01
  2.945335e+01    7.283300e-01
  2.946922e+01    7.204758e-01
  2.948510e+01    7.155015e-01
  2.950097e+01    6.968944e-01
  2.951685e+01    7.009774e-01
  2.953272e+01    7.206186e-01
  2.954860e+01    7.123162e-01
  2.956447e+01    7.107530e-01
  2.958035e+01    7.327155e-01
  2.959623e+01    7.218692e-01
  2.961210e+01    7.236439e-01
  2.962798e+01    7.227266e-01
  2.964385e+01    7.162423e-01
  2.965973e+01    7.018363e-01
  2.967560e+01    7.166855e-01
  2.969148e+01    7.278271e-01
  2.970736e+01    7.217880e-01
  2.972323e+01    7.108178e-01
  2.973911e+01    7.133762e-01
  2.975498e+01    7.110267e-01
  2.977086e+01    6.956927e-01
  2.978673e+01    7.152318e-01
  2.980261e+01    7.289325e-01
  2.981848e+01    7.216092e-01
  2.983436e+01    6.947724e-01
  2.985024e+01    7.122042e-01
  2.986611e+01    7.113777e-01
  2.988199e+01    6.989474e-01
  2.989786e+01    7.228852e-01
  2.991374e+01    7.180508e-01
  2.992961e+01    7.269507e-01
  2.994549e+01    7.060302e-01
  2.996136e+01    7.107244e-01
  2.997724e+01    7.262635e-01
  2.999312e+01    7.360101e-01
  3.000899e+01    7.114193e-01
  3.002487e+01    7.223457e-01
  3.004074e+01    7.350523e-01
  3.005662e+01    7.304336e-01
  3.007249e+01    7.348711e-01
  3.008837e+01    7.378680e-01
  3.010424e+01    7.158863e-01
  3.012012e+01    7.078530e-01
  3.013600e+01    6.963158e-01
  3.015187e+01    7.152472e-01
  3.016775e+01    7.215921e-01
  3.018362e+01    7.050512e-01
  3.019950e+01    7.192791e-01
  3.021537e+01    7.259911e-01
  3.023125e+01    7.039040e-01
  3.024712e+01    7.017672e-01
  3.026300e+01    6.929547e-01
  3.027888e+01    7.123323e-01
  3.029475e+01    7.008944e-01
  3.031063e+01    6.879591e-01
  3.032650e+01    7.035227e-01
  3.034238e+01    7.111377e-01
  3.035825e+01    7.239739e-01
  3.037413e+01    7.187757e-01
  3.039000e+01    7.030767e-01
  3.040588e+01    7.249765e-01
  3.042176e+01    7.297210e-01
  3.043763e+01    7.056574e-01
  3.045351e+01    7.156960e-01
  3.046938e+01    7.106430e-01
  3.048526e+01    7.075015e-01
  3.050113e+01    7.132850e-01
  3.051701e+01    7.102048e-01
  3.053288e+01    7.031851e-01
  3.054876e+01    7.093413e-01
  3.056464e+01    7.083839e-01
  3.058051e+01    7.067508e-01
  3.059639e+01    7.141751e-01
  3.061226e+01    7.124081e-01
  3.062814e+01    7.078217e-01
  3.064401e+01    7.065264e-01
  3.065989e+01    6.934423e-01
  3.067577e+01    7.028618e-01
  3.069164e+01    7.007549e-01
  3.070752e+01    7.184187e-01
  3.072339e+01    7.346877e-01
  3.073927e+01    7.198911e-01
  3.075514e+01    7.174566e-01
  3.077102e+01    7.034910e-01
  3.078689e+01    6.975797e-01
  3.080277e+01    7.099221e-01
  3.081865e+01    7.108085e-01
  3.083452e+01    7.071757e-01
  3.085040e+01    7.067393e-01
  3.086627e+01    7.066244e-01
  3.088215e+01    7.023121e-01
  3.089802e+01    7.046675e-01
  3.091390e+01    7.037025e-01
  3.092977e+01    7.052057e-01
  3.094565e+01    7.161716e-01
  3.096153e+01    7.186068e-01
  3.097740e+01    6.900338e-01
  3.099328e+01    7.111497e-01
  3.100915e+01    7.068784e-01
  3.102503e+01    7.220256e-01
  3.104090e+01    7.087396e-01
  3.105678e+01    6.896297e-01
  3.107265e+01    7.105731e-01
  3.108853e+01    7.171433e-01
  3.110441e+01    7.212014e-01
  3.112028e+01    7.189464e-01
  3.113616e+01    7.322196e-01
  3.115203e+01    7.350164e-01
  3.116791e+01    7.224105e-01
  3.118378e+01    7.076064e-01
  3.119966e+01    7.320747e-01
  3.121553e+01    7.515779e-01
  3.123141e+01    7.316749e-01
  3.124729e+01    7.337865e-01
  3.126316e+01    7.401135e-01
  3.127904e+01    7.321007e-01
  3.129491e+01    7.058411e-01
  3.131079e+01    7.229919e-01
  3.132666e+01    7.279000e-01
  3.134254e+01    7.451062e-01
  3.135841e+01    7.440488e-01
  3.137429e+01    7.489299e-01
  3.139017e+01    7.506849e-01
  3.140604e+01    7.418236e-01
  3.142192e+01    7.361349e-01
  3.143779e+01    7.305967e-01
  3.145367e+01    7.442246e-01
  3.146954e+01    7.377791e-01
  3.148542e+01    7.504264e-01
  3.150129e+01    7.647817e-01
  3.151717e+01    7.646198e-01
  3.153305e+01    7.869553e-01
  3.154892e+01    8.042178e-01
  3.156480e+01    8.057532e-01
  3.158067e+01    7.886013e-01
  3.159655e+01    8.169170e-01
  3.161242e+01    8.197470e-01
  3.162830e+01    8.378851e-01
  3.164418e+01    8.696879e-01
  3.166005e+01    8.931102e-01
  3.167593e+01    8.935680e-01
  3.169180e+01    9.274551e-01
  3.170768e+01    9.557600e-01
  3.172355e+01    1.009033e+00
  3.173943e+01    1.052784e+00
  3.175530e+01    1.103502e+00
  3.177118e+01    1.189414e+00
  3.178706e+01    1.267817e+00
  3.180293e+01    1.409402e+00
  3.181881e+01    1.515553e+00
  3.183468e+01    1.691688e+00
  3.185056e+01    1.822029e+00
  3.186643e+01    1.947571e+00
  3.188231e+01    2.067256e+00
  3.189818e+01    2.173060e+00
  3.191406e+01    2.241122e+00
  3.192994e+01    2.212932e+00
  3.194581e+01    2.156000e+00
  3.196169e+01    2.037952e+00
  3.197756e+01    1.849680e+00
  3.199344e+01    1.706856e+00
  3.200931e+01    1.548609e+00
  3.202519e+01    1.412413e+00
  3.204106e+01    1.322645e+00
  3.205694e+01    1.185702e+00
  3.207282e+01    1.128932e+00
  3.208869e+01    1.048247e+00
  3.210457e+01    9.747755e-01
  3.212044e+01    9.331070e-01
  3.213632e+01    8.937002e-01
  3.215219e+01    8.697447e-01
  3.216807e+01    8.781551e-01
  3.218394e+01    8.593616e-01
  3.219982e+01    8.188884e-01
  3.221570e+01    7.863595e-01
  3.223157e+01    7.826859e-01
  3.224745e+01    7.780423e-01
  3.226332e+01    7.793427e-01
  3.227920e+01    7.595271e-01
  3.229507e+01    7.704734e-01
  3.231095e+01    7.601084e-01
  3.232682e+01    7.586906e-01
  3.234270e+01    7.624462e-01
  3.235858e+01    7.563881e-01
  3.237445e+01    7.568060e-01
  3.239033e+01    7.403794e-01
  3.240620e+01    7.415517e-01
  3.242208e+01    7.222658e-01
  3.243795e+01    7.467169e-01
  3.245383e+01    7.270436e-01
  3.246970e+01    7.079275e-01
  3.248558e+01    7.355662e-01
  3.250146e+01    7.245066e-01
  3.251733e+01    7.134666e-01
  3.253321e+01    7.352517e-01
  3.254908e+01    7.356716e-01
