q_nm^-1             I
2.003187e-02    0.000000e+00
3.590745e-02    0.000000e+00
5.178302e-02    7.452457e-02
6.765859e-02    1.922211e-01
8.353417e-02    4.947819e-01
9.940974e-02    1.342658e+00
1.152853e-01    1.490659e+00
1.311609e-01    1.090536e+00
1.470365e-01    7.123253e-01
1.629120e-01    4.128490e-01
1.787876e-01    1.659313e-01
1.946632e-01    7.955600e-02
2.105388e-01    8.641802e-03
2.264143e-01    0.000000e+00
2.422899e-01    0.000000e+00
2.581655e-01    0.000000e+00
2.740411e-01    0.000000e+00
2.899166e-01    0.000000e+00
3.057922e-01    0.000000e+00
3.216678e-01    0.000000e+00
3.375433e-01    0.000000e+00
3.534189e-01    6.886068e-03
3.692945e-01    2.420119e-02
3.851701e-01    1.559993e-02
4.010456e-01    0.000000e+00
4.169212e-01    1.224936e-02
4.327968e-01    2.060766e-02
4.486724e-01    7.417422e-03
4.645479e-01    0.000000e+00
4.804235e-01    0.000000e+00
4.962991e-01    0.000000e+00
5.121747e-01    1.336538e-02
5.280502e-01    9.205913e-03
5.439258e-01    7.896917e-03
5.598014e-01    2.536687e-03
5.756770e-01    1.105064e-03
5.915525e-01    8.704565e-03
6.074281e-01    6.504972e-03
6.233037e-01    3.045348e-03
6.391793e-01    2.187305e-04
6.550548e-01    5.872827e-03
6.709304e-01    2.721867e-03
6.868060e-01    3.830001e-03
7.026815e-01    1.982047e-02
7.185571e-01    1.283812e-02
7.344327e-01    4.515999e-03
7.503083e-01    0.000000e+00
7.661838e-01    3.810347e-03
7.820594e-01    3.718032e-03
7.979350e-01    2.867563e-04
8.138106e-01    5.737562e-03
8.296861e-01    1.128729e-02
8.455617e-01    6.252412e-02
8.614373e-01    5.532701e-02
8.773129e-01    4.843874e-02
8.931884e-01    4.204132e-02
9.090640e-01    4.256580e-02
9.249396e-01    3.595265e-02
9.408152e-01    4.005666e-02
9.566907e-01    4.566261e-02
9.725663e-01    4.537365e-02
9.884419e-01    4.092737e-02
1.004317e+00    4.552507e-02
1.020193e+00    4.985080e-02
1.036069e+00    5.580542e-02
1.051944e+00    4.046984e-02
1.067820e+00    3.860633e-02
1.083695e+00    4.560073e-02
1.099571e+00    5.539714e-02
1.115446e+00    4.919225e-02
1.131322e+00    6.075411e-02
1.147198e+00    4.229967e-02
1.163073e+00    4.532544e-02
1.178949e+00    6.681165e-02
1.194824e+00    6.133585e-02
1.210700e+00    5.363709e-02
1.226575e+00    8.425952e-02
1.242451e+00    8.820870e-02
1.258327e+00    1.185581e-01
1.274202e+00    1.141985e-01
1.290078e+00    1.298028e-01
1.305953e+00    1.578352e-01
1.321829e+00    1.595305e-01
1.337705e+00    1.518102e-01
1.353580e+00    1.559901e-01
1.369456e+00    1.738328e-01
1.385331e+00    1.634214e-01
1.401207e+00    1.416114e-01
1.417082e+00    1.419136e-01
1.432958e+00    1.315804e-01
1.448834e+00    1.665907e-01
1.464709e+00    2.102404e-01
1.480585e+00    1.927444e-01
1.496460e+00    1.663347e-01
1.512336e+00    1.679956e-01
1.528211e+00    1.561316e-01
1.544087e+00    1.554542e-01
1.559963e+00    1.742796e-01
1.575838e+00    1.579214e-01
1.591714e+00    1.599727e-01
1.607589e+00    1.837282e-01
1.623465e+00    1.793364e-01
1.639340e+00    1.794110e-01
1.655216e+00    1.627342e-01
1.671092e+00    1.596028e-01
1.686967e+00    1.452238e-01
1.702843e+00    1.175663e-01
1.718718e+00    1.375525e-01
1.734594e+00    1.280807e-01
1.750469e+00    1.498907e-01
1.766345e+00    1.467605e-01
1.782221e+00    1.607189e-01
1.798096e+00    1.351224e-01
1.813972e+00    1.269944e-01
1.829847e+00    1.443272e-01
1.845723e+00    1.348860e-01
1.861598e+00    1.249391e-01
1.877474e+00    1.165799e-01
1.893350e+00    1.171289e-01
1.909225e+00    1.127053e-01
1.925101e+00    1.233982e-01
1.940976e+00    1.477535e-01
1.956852e+00    1.302450e-01
1.972727e+00    1.263898e-01
1.988603e+00    1.294824e-01
2.004479e+00    1.193728e-01
2.020354e+00    1.010980e-01
2.036230e+00    1.141428e-01
2.052105e+00    1.421410e-01
2.067981e+00    1.439186e-01
2.083856e+00    1.328721e-01
2.099732e+00    1.424235e-01
2.115608e+00    1.118699e-01
2.131483e+00    1.179661e-01
2.147359e+00    1.278049e-01
2.163234e+00    1.397267e-01
2.179110e+00    1.399450e-01
2.194985e+00    1.150730e-01
2.210861e+00    1.024175e-01
2.226737e+00    9.050323e-02
2.242612e+00    8.494327e-02
2.258488e+00    8.946157e-02
2.274363e+00    1.019424e-01
2.290239e+00    1.116046e-01
2.306115e+00    1.009213e-01
2.321990e+00    1.104816e-01
2.337866e+00    1.071328e-01
2.353741e+00    1.199755e-01
2.369617e+00    1.011924e-01
2.385492e+00    1.019225e-01
2.401368e+00    1.104588e-01
2.417244e+00    1.137909e-01
2.433119e+00    1.257921e-01
2.448995e+00    1.281589e-01
2.464870e+00    1.097594e-01
2.480746e+00    1.126941e-01
2.496621e+00    1.159056e-01
2.512497e+00    1.143758e-01
2.528373e+00    1.202617e-01
2.544248e+00    9.325682e-02
2.560124e+00    1.130361e-01
2.575999e+00    1.082163e-01
2.591875e+00    1.011513e-01
2.607750e+00    1.109790e-01
2.623626e+00    1.116353e-01
2.639502e+00    1.050727e-01
2.655377e+00    1.128607e-01
2.671253e+00    1.073085e-01
2.687128e+00    1.083042e-01
2.703004e+00    1.117867e-01
2.718879e+00    1.084907e-01
2.734755e+00    8.520928e-02
2.750631e+00    9.294034e-02
2.766506e+00    1.095280e-01
2.782382e+00    1.006763e-01
2.798257e+00    9.826612e-02
2.814133e+00    1.211723e-01
2.830008e+00    9.518874e-02
2.845884e+00    9.436382e-02
2.861760e+00    1.250998e-01
2.877635e+00    1.053988e-01
2.893511e+00    9.189340e-02
2.909386e+00    1.158658e-01
2.925262e+00    1.255303e-01
2.941137e+00    1.290270e-01
2.957013e+00    1.405018e-01
2.972889e+00    1.235974e-01
2.988764e+00    1.099904e-01
3.004640e+00    1.240637e-01
3.020515e+00    1.107866e-01
3.036391e+00    1.112590e-01
3.052266e+00    1.168049e-01
3.068142e+00    1.247424e-01
3.084018e+00    1.233332e-01
3.099893e+00    1.111820e-01
3.115769e+00    9.511482e-02
3.131644e+00    1.111076e-01
3.147520e+00    1.229347e-01
3.163395e+00    9.885517e-02
3.179271e+00    1.121610e-01
3.195147e+00    1.284463e-01
3.211022e+00    1.170328e-01
3.226898e+00    1.239167e-01
3.242773e+00    1.156587e-01
3.258649e+00    1.021283e-01
3.274525e+00    1.109205e-01
3.290400e+00    1.181281e-01
3.306276e+00    1.061655e-01
3.322151e+00    1.121268e-01
3.338027e+00    1.096615e-01
3.353902e+00    1.109334e-01
3.369778e+00    1.076480e-01
3.385654e+00    1.139808e-01
3.401529e+00    1.203081e-01
3.417405e+00    1.254297e-01
3.433280e+00    1.075593e-01
3.449156e+00    1.003718e-01
3.465031e+00    9.043703e-02
3.480907e+00    9.461196e-02
3.496783e+00    8.522958e-02
3.512658e+00    8.507048e-02
3.528534e+00    8.098444e-02
3.544409e+00    9.550092e-02
3.560285e+00    1.156606e-01
3.576160e+00    1.007433e-01
3.592036e+00    1.024927e-01
3.607912e+00    1.062560e-01
3.623787e+00    1.004570e-01
3.639663e+00    1.065839e-01
3.655538e+00    1.204730e-01
3.671414e+00    1.220080e-01
3.687289e+00    1.140232e-01
3.703165e+00    1.147716e-01
3.719041e+00    1.067006e-01
3.734916e+00    9.767542e-02
3.750792e+00    1.117891e-01
3.766667e+00    1.026527e-01
3.782543e+00    9.338804e-02
3.798418e+00    1.010805e-01
3.814294e+00    1.146006e-01
3.830170e+00    1.104698e-01
3.846045e+00    1.062052e-01
3.861921e+00    9.876341e-02
3.877796e+00    9.578498e-02
3.893672e+00    1.020430e-01
3.909547e+00    1.016936e-01
3.925423e+00    9.792837e-02
3.941299e+00    1.125984e-01
3.957174e+00    1.159561e-01
3.973050e+00    9.872695e-02
3.988925e+00    1.107858e-01
4.004801e+00    1.192808e-01
4.020676e+00    1.226720e-01
4.036552e+00    9.664118e-02
4.052428e+00    1.066526e-01
4.068303e+00    1.016362e-01
4.084179e+00    1.147374e-01
4.100054e+00    1.001191e-01
4.115930e+00    9.470653e-02
4.131806e+00    9.382158e-02
4.147681e+00    8.535354e-02
4.163557e+00    9.441856e-02
4.179432e+00    1.097275e-01
4.195308e+00    1.188813e-01
4.211183e+00    1.052876e-01
4.227059e+00    1.005196e-01
4.242935e+00    1.084262e-01
4.258810e+00    1.197260e-01
4.274686e+00    1.248864e-01
4.290561e+00    1.178321e-01
4.306437e+00    1.010596e-01
4.322312e+00    9.931860e-02
4.338188e+00    1.122863e-01
4.354064e+00    1.119323e-01
4.369939e+00    1.168258e-01
4.385815e+00    1.051360e-01
4.401690e+00    1.006693e-01
4.417566e+00    1.131561e-01
4.433441e+00    1.326605e-01
4.449317e+00    1.173354e-01
4.465193e+00    8.774199e-02
4.481068e+00    9.758066e-02
4.496944e+00    1.120310e-01
4.512819e+00    1.117865e-01
4.528695e+00    1.117590e-01
4.544570e+00    1.213080e-01
4.560446e+00    1.216573e-01
4.576322e+00    1.073368e-01
4.592197e+00    1.049400e-01
4.608073e+00    1.195826e-01
4.623948e+00    1.031080e-01
4.639824e+00    9.657625e-02
4.655699e+00    1.117090e-01
4.671575e+00    1.072609e-01
4.687451e+00    1.061221e-01
4.703326e+00    1.133898e-01
4.719202e+00    1.081594e-01
4.735077e+00    1.180516e-01
4.750953e+00    1.011984e-01
4.766828e+00    1.132301e-01
4.782704e+00    1.221508e-01
4.798580e+00    1.139857e-01
4.814455e+00    1.121740e-01
4.830331e+00    1.093952e-01
4.846206e+00    9.866384e-02
4.862082e+00    1.054768e-01
4.877957e+00    1.136261e-01
4.893833e+00    1.206814e-01
4.909709e+00    1.290296e-01
4.925584e+00    1.155724e-01
4.941460e+00    1.004724e-01
4.957335e+00    1.043715e-01
4.973211e+00    1.150854e-01
4.989086e+00    1.273364e-01
5.004962e+00    1.218389e-01
5.020838e+00    1.163304e-01
5.036713e+00    1.225293e-01
5.052589e+00    1.140667e-01
5.068464e+00    1.162990e-01
5.084340e+00    1.127823e-01
5.100216e+00    1.232135e-01
5.116091e+00    1.233039e-01
5.131967e+00    1.335112e-01
5.147842e+00    1.301825e-01
5.163718e+00    1.161789e-01
5.179593e+00    1.047364e-01
5.195469e+00    1.157187e-01
5.211345e+00    1.195966e-01
5.227220e+00    1.240137e-01
5.243096e+00    1.166002e-01
5.258971e+00    1.126471e-01
5.274847e+00    1.254681e-01
5.290722e+00    1.206147e-01
5.306598e+00    1.252052e-01
5.322474e+00    1.154979e-01
5.338349e+00    1.123225e-01
5.354225e+00    1.038460e-01
5.370100e+00    1.027472e-01
5.385976e+00    1.093306e-01
5.401851e+00    1.000551e-01
5.417727e+00    1.120733e-01
5.433603e+00    1.082167e-01
5.449478e+00    1.112899e-01
5.465354e+00    1.105825e-01
5.481229e+00    1.059266e-01
5.497105e+00    1.078635e-01
5.512980e+00    1.202242e-01
5.528856e+00    1.204423e-01
5.544732e+00    1.100384e-01
5.560607e+00    1.173735e-01
5.576483e+00    1.135817e-01
5.592358e+00    1.173684e-01
5.608234e+00    1.349514e-01
5.624109e+00    1.258155e-01
5.639985e+00    1.202017e-01
5.655861e+00    1.287115e-01
5.671736e+00    1.190369e-01
5.687612e+00    1.085524e-01
5.703487e+00    1.208634e-01
5.719363e+00    1.198743e-01
5.735238e+00    1.164574e-01
5.751114e+00    1.086588e-01
5.766990e+00    1.205312e-01
5.782865e+00    1.168221e-01
5.798741e+00    1.178377e-01
5.814616e+00    1.142882e-01
5.830492e+00    1.125669e-01
5.846367e+00    1.144851e-01
5.862243e+00    1.064762e-01
5.878119e+00    1.081654e-01
5.893994e+00    1.175221e-01
5.909870e+00    1.082438e-01
5.925745e+00    1.046089e-01
5.941621e+00    1.090607e-01
5.957497e+00    1.189962e-01
5.973372e+00    1.343236e-01
5.989248e+00    1.322083e-01
6.005123e+00    1.233038e-01
6.020999e+00    1.116611e-01
6.036874e+00    1.250254e-01
6.052750e+00    1.174196e-01
6.068626e+00    1.043629e-01
6.084501e+00    1.129348e-01
6.100377e+00    1.343765e-01
6.116252e+00    1.236499e-01
6.132128e+00    1.174677e-01
6.148003e+00    1.208282e-01
6.163879e+00    1.029267e-01
6.179755e+00    1.256102e-01
6.195630e+00    1.173065e-01
6.211506e+00    1.177985e-01
6.227381e+00    1.155252e-01
6.243257e+00    1.309247e-01
6.259132e+00    1.289388e-01
6.275008e+00    1.292201e-01
6.290884e+00    1.090507e-01
6.306759e+00    1.219055e-01
6.322635e+00    1.138087e-01
6.338510e+00    1.125804e-01
6.354386e+00    1.067118e-01
6.370261e+00    1.006647e-01
6.386137e+00    1.030217e-01
6.402013e+00    1.185494e-01
6.417888e+00    1.112600e-01
6.433764e+00    1.082231e-01
6.449639e+00    1.137940e-01
6.465515e+00    1.053573e-01
6.481390e+00    1.034901e-01
6.497266e+00    1.022755e-01
6.513142e+00    1.114136e-01
6.529017e+00    1.113565e-01
6.544893e+00    1.075412e-01
6.560768e+00    1.086182e-01
6.576644e+00    1.316248e-01
6.592519e+00    1.138065e-01
6.608395e+00    1.051897e-01
6.624271e+00    1.111342e-01
6.640146e+00    1.058537e-01
6.656022e+00    1.132231e-01
6.671897e+00    1.314808e-01
6.687773e+00    1.263712e-01
6.703648e+00    1.150195e-01
6.719524e+00    1.198707e-01
6.735400e+00    1.065398e-01
6.751275e+00    1.170340e-01
6.767151e+00    1.194769e-01
6.783026e+00    1.159695e-01
6.798902e+00    1.200198e-01
6.814777e+00    1.133821e-01
6.830653e+00    1.168406e-01
6.846529e+00    1.207008e-01
6.862404e+00    1.200633e-01
6.878280e+00    1.187263e-01
6.894155e+00    1.134581e-01
6.910031e+00    1.110475e-01
6.925907e+00    1.151665e-01
6.941782e+00    1.167453e-01
6.957658e+00    1.364968e-01
6.973533e+00    1.120686e-01
6.989409e+00    1.080186e-01
7.005284e+00    1.121325e-01
7.021160e+00    1.082104e-01
7.037036e+00    1.094301e-01
7.052911e+00    1.027872e-01
7.068787e+00    1.135623e-01
7.084662e+00    1.187474e-01
7.100538e+00    1.134611e-01
7.116413e+00    1.136409e-01
7.132289e+00    1.362339e-01
7.148165e+00    1.304343e-01
7.164040e+00    1.186699e-01
7.179916e+00    1.099474e-01
7.195791e+00    1.193921e-01
7.211667e+00    1.307682e-01
7.227542e+00    1.207585e-01
7.243418e+00    1.219821e-01
7.259294e+00    1.183109e-01
7.275169e+00    1.166682e-01
7.291045e+00    1.149847e-01
7.306920e+00    1.137848e-01
7.322796e+00    1.249220e-01
7.338671e+00    1.169408e-01
7.354547e+00    1.106960e-01
7.370423e+00    1.225727e-01
7.386298e+00    1.147799e-01
7.402174e+00    1.103490e-01
7.418049e+00    1.152011e-01
7.433925e+00    1.203274e-01
7.449800e+00    1.094643e-01
7.465676e+00    1.120973e-01
7.481552e+00    1.176950e-01
7.497427e+00    1.059300e-01
7.513303e+00    1.180255e-01
7.529178e+00    1.272567e-01
7.545054e+00    1.259163e-01
7.560929e+00    1.171144e-01
7.576805e+00    1.024669e-01
7.592681e+00    1.085690e-01
7.608556e+00    1.230459e-01
7.624432e+00    1.207413e-01
7.640307e+00    1.086646e-01
7.656183e+00    1.058885e-01
7.672058e+00    1.091939e-01
7.687934e+00    1.127809e-01
7.703810e+00    1.197518e-01
7.719685e+00    1.372080e-01
7.735561e+00    1.248894e-01
7.751436e+00    1.156004e-01
7.767312e+00    1.248416e-01
7.783187e+00    1.213186e-01
7.799063e+00    1.160957e-01
7.814939e+00    1.122491e-01
7.830814e+00    1.138975e-01
7.846690e+00    1.052608e-01
7.862565e+00    1.106700e-01
7.878441e+00    1.183745e-01
7.894317e+00    1.089217e-01
7.910192e+00    1.093896e-01
7.926068e+00    1.063343e-01
7.941943e+00    1.073410e-01
7.957819e+00    1.180973e-01
7.973694e+00    1.036805e-01
7.989570e+00    1.055536e-01
8.005446e+00    1.130671e-01
8.021321e+00    1.119174e-01
8.037197e+00    1.097508e-01
8.053072e+00    1.081814e-01
8.068948e+00    1.155662e-01
8.084823e+00    1.195418e-01
8.100699e+00    1.236457e-01
8.116575e+00    1.223610e-01
8.132450e+00    1.155359e-01
8.148326e+00    1.146258e-01
8.164201e+00    1.168728e-01
8.180077e+00    1.303542e-01
8.195952e+00    1.362627e-01
8.211828e+00    1.203714e-01
8.227704e+00    1.156734e-01
8.243579e+00    1.130660e-01
8.259455e+00    1.013069e-01
8.275330e+00    1.016687e-01
8.291206e+00    1.033273e-01
8.307081e+00    1.099676e-01
8.322957e+00    1.099930e-01
8.338833e+00    9.332562e-02
8.354708e+00    1.057382e-01
8.370584e+00    1.100835e-01
8.386459e+00    1.063000e-01
8.402335e+00    1.149571e-01
8.418210e+00    1.158605e-01
8.434086e+00    1.145255e-01
8.449962e+00    1.005238e-01
8.465837e+00    1.215920e-01
8.481713e+00    1.176315e-01
8.497588e+00    1.101445e-01
8.513464e+00    1.077060e-01
8.529339e+00    1.114487e-01
8.545215e+00    1.150075e-01
8.561091e+00    1.193657e-01
8.576966e+00    1.099103e-01
8.592842e+00    1.167820e-01
8.608717e+00    1.125295e-01
8.624593e+00    1.036771e-01
8.640468e+00    1.113924e-01
8.656344e+00    1.098994e-01
8.672220e+00    1.201242e-01
8.688095e+00    1.132922e-01
8.703971e+00    1.063927e-01
8.719846e+00    1.056066e-01
8.735722e+00    9.925847e-02
8.751598e+00    9.858710e-02
8.767473e+00    1.104630e-01
8.783349e+00    1.014234e-01
8.799224e+00    9.468707e-02
8.815100e+00    9.840664e-02
8.830975e+00    1.072553e-01
8.846851e+00    1.040285e-01
8.862727e+00    1.008958e-01
8.878602e+00    1.041103e-01
8.894478e+00    9.826967e-02
8.910353e+00    9.466127e-02
8.926229e+00    1.020957e-01
8.942104e+00    1.071879e-01
8.957980e+00    1.085244e-01
8.973856e+00    1.090286e-01
8.989731e+00    1.016414e-01
9.005607e+00    1.063016e-01
9.021482e+00    1.100826e-01
9.037358e+00    1.101957e-01
9.053233e+00    1.052986e-01
9.069109e+00    9.817329e-02
9.084985e+00    9.934292e-02
9.100860e+00    1.106300e-01
9.116736e+00    9.955603e-02
9.132611e+00    9.575132e-02
9.148487e+00    9.484745e-02
9.164362e+00    1.060924e-01
9.180238e+00    1.029674e-01
9.196114e+00    9.438548e-02
9.211989e+00    1.025506e-01
9.227865e+00    9.936213e-02
9.243740e+00    9.561935e-02
9.259616e+00    9.439425e-02
9.275491e+00    9.153220e-02
9.291367e+00    1.032119e-01
9.307243e+00    9.308124e-02
9.323118e+00    9.709881e-02
9.338994e+00    1.003458e-01
9.354869e+00    9.027625e-02
9.370745e+00    9.029251e-02
9.386620e+00    9.167275e-02
9.402496e+00    1.023459e-01
9.418372e+00    1.056629e-01
9.434247e+00    1.004115e-01
9.450123e+00    8.752090e-02
9.465998e+00    9.671751e-02
9.481874e+00    1.118442e-01
9.497749e+00    1.122194e-01
9.513625e+00    1.063728e-01
9.529501e+00    9.307340e-02
9.545376e+00    1.004966e-01
9.561252e+00    1.075347e-01
9.577127e+00    1.041572e-01
9.593003e+00    1.093253e-01
9.608878e+00    1.158074e-01
9.624754e+00    1.034928e-01
9.640630e+00    9.854377e-02
9.656505e+00    1.110331e-01
9.672381e+00    1.160439e-01
9.688256e+00    1.069741e-01
9.704132e+00    9.649444e-02
9.720008e+00    1.035737e-01
9.735883e+00    1.062409e-01
9.751759e+00    1.083272e-01
9.767634e+00    1.228460e-01
9.783510e+00    1.108955e-01
9.799385e+00    1.089401e-01
9.815261e+00    1.114272e-01
9.831137e+00    1.004608e-01
9.847012e+00    1.093839e-01
9.862888e+00    1.132107e-01
9.878763e+00    1.132583e-01
9.894639e+00    1.087195e-01
9.910514e+00    1.089646e-01
9.926390e+00    1.010288e-01
9.942266e+00    1.097373e-01
9.958141e+00    1.004717e-01
9.974017e+00    1.071020e-01
9.989892e+00    1.079380e-01
1.000577e+01    1.083695e-01
1.002164e+01    1.149660e-01
1.003752e+01    1.149995e-01
1.005339e+01    1.163125e-01
1.006927e+01    1.182068e-01
1.008515e+01    1.293721e-01
1.010102e+01    1.266612e-01
1.011690e+01    1.239311e-01
1.013277e+01    1.259765e-01
1.014865e+01    1.212410e-01
1.016452e+01    1.255594e-01
1.018040e+01    1.307399e-01
1.019627e+01    1.310255e-01
1.021215e+01    1.346800e-01
1.022803e+01    1.387234e-01
1.024390e+01    1.430834e-01
1.025978e+01    1.518577e-01
1.027565e+01    1.646677e-01
1.029153e+01    1.589561e-01
1.030740e+01    1.683542e-01
1.032328e+01    1.779183e-01
1.033915e+01    1.789918e-01
1.035503e+01    1.766230e-01
1.037091e+01    1.923431e-01
1.038678e+01    2.121394e-01
1.040266e+01    2.142893e-01
1.041853e+01    2.404764e-01
1.043441e+01    2.607572e-01
1.045028e+01    2.888977e-01
1.046616e+01    3.501049e-01
1.048204e+01    3.753981e-01
1.049791e+01    4.283434e-01
1.051379e+01    5.020860e-01
1.052966e+01    6.063839e-01
1.054554e+01    7.577253e-01
1.056141e+01    9.804825e-01
1.057729e+01    1.259542e+00
1.059316e+01    1.554336e+00
1.060904e+01    1.815458e+00
1.062492e+01    2.156112e+00
1.064079e+01    2.380895e+00
1.065667e+01    2.550987e+00
1.067254e+01    2.699905e+00
1.068842e+01    2.915207e+00
1.070429e+01    3.077266e+00
1.072017e+01    3.170598e+00
1.073604e+01    3.176848e+00
1.075192e+01    2.908967e+00
1.076780e+01    2.534667e+00
1.078367e+01    2.048985e+00
1.079955e+01    1.649243e+00
1.081542e+01    1.306960e+00
1.083130e+01    1.042452e+00
1.084717e+01    8.398908e-01
1.086305e+01    7.103006e-01
1.087892e+01    6.077860e-01
1.089480e+01    5.297595e-01
1.091068e+01    4.247349e-01
1.092655e+01    3.800882e-01
1.094243e+01    3.425769e-01
1.095830e+01    3.152651e-01
1.097418e+01    2.783088e-01
1.099005e+01    2.463129e-01
1.100593e+01    2.353370e-01
1.102180e+01    2.242311e-01
1.103768e+01    1.952002e-01
1.105356e+01    1.999914e-01
1.106943e+01    2.040057e-01
1.108531e+01    1.931626e-01
1.110118e+01    1.783693e-01
1.111706e+01    1.723764e-01
1.113293e+01    1.714173e-01
1.114881e+01    1.619175e-01
1.116468e+01    1.588079e-01
1.118056e+01    1.617568e-01
1.119644e+01    1.637463e-01
1.121231e+01    1.606506e-01
1.122819e+01    1.489498e-01
1.124406e+01    1.444902e-01
1.125994e+01    1.381870e-01
1.127581e+01    1.310652e-01
1.129169e+01    1.282959e-01
1.130756e+01    1.237861e-01
1.132344e+01    1.323124e-01
1.133932e+01    1.385161e-01
1.135519e+01    1.273669e-01
1.137107e+01    1.217595e-01
1.138694e+01    1.278108e-01
1.140282e+01    1.204017e-01
1.141869e+01    1.191364e-01
1.143457e+01    1.130905e-01
1.145045e+01    1.164426e-01
1.146632e+01    1.125035e-01
1.148220e+01    1.083072e-01
1.149807e+01    1.106411e-01
1.151395e+01    1.209335e-01
1.152982e+01    1.219013e-01
1.154570e+01    1.307656e-01
1.156157e+01    1.194950e-01
1.157745e+01    1.129288e-01
1.159333e+01    1.160579e-01
1.160920e+01    1.118997e-01
1.162508e+01    1.094063e-01
1.164095e+01    1.010368e-01
1.165683e+01    1.114938e-01
1.167270e+01    1.167021e-01
1.168858e+01    1.078153e-01
1.170445e+01    1.110715e-01
1.172033e+01    1.119761e-01
1.173621e+01    9.783545e-02
1.175208e+01    9.916000e-02
1.176796e+01    9.646450e-02
1.178383e+01    1.051231e-01
1.179971e+01    1.013777e-01
1.181558e+01    1.029706e-01
1.183146e+01    1.105670e-01
1.184733e+01    1.133686e-01
1.186321e+01    1.102125e-01
1.187909e+01    1.042053e-01
1.189496e+01    9.632121e-02
1.191084e+01    1.098240e-01
1.192671e+01    1.117493e-01
1.194259e+01    1.032219e-01
1.195846e+01    1.089117e-01
1.197434e+01    1.185738e-01
1.199021e+01    1.112821e-01
1.200609e+01    1.142574e-01
1.202197e+01    1.143708e-01
1.203784e+01    1.250177e-01
1.205372e+01    1.182268e-01
1.206959e+01    1.194916e-01
1.208547e+01    1.325885e-01
1.210134e+01    1.395390e-01
1.211722e+01    1.476310e-01
1.213309e+01    1.518327e-01
1.214897e+01    1.545777e-01
1.216485e+01    1.732320e-01
1.218072e+01    1.872437e-01
1.219660e+01    2.103470e-01
1.221247e+01    2.312150e-01
1.222835e+01    2.841898e-01
1.224422e+01    3.483970e-01
1.226010e+01    4.035577e-01
1.227597e+01    4.880366e-01
1.229185e+01    5.861197e-01
1.230773e+01    6.528826e-01
1.232360e+01    6.948949e-01
1.233948e+01    7.716340e-01
1.235535e+01    8.397898e-01
1.237123e+01    8.990219e-01
1.238710e+01    9.396912e-01
1.240298e+01    9.804161e-01
1.241886e+01    1.005868e+00
1.243473e+01    9.341136e-01
1.245061e+01    8.139478e-01
1.246648e+01    6.589446e-01
1.248236e+01    5.456473e-01
1.249823e+01    4.328652e-01
1.251411e+01    3.621038e-01
1.252998e+01    3.025084e-01
1.254586e+01    2.473099e-01
1.256174e+01    2.192957e-01
1.257761e+01    2.079924e-01
1.259349e+01    1.797625e-01
1.260936e+01    1.628207e-01
1.262524e+01    1.567993e-01
1.264111e+01    1.429891e-01
1.265699e+01    1.324640e-01
1.267286e+01    1.224296e-01
1.268874e+01    1.391707e-01
1.270462e+01    1.190397e-01
1.272049e+01    1.187809e-01
1.273637e+01    1.168032e-01
1.275224e+01    1.118887e-01
1.276812e+01    1.036080e-01
1.278399e+01    1.064949e-01
1.279987e+01    9.979842e-02
1.281574e+01    1.090909e-01
1.283162e+01    1.087499e-01
1.284750e+01    9.850487e-02
1.286337e+01    9.801611e-02
1.287925e+01    8.925731e-02
1.289512e+01    9.072465e-02
1.291100e+01    8.749629e-02
1.292687e+01    8.489578e-02
1.294275e+01    8.289414e-02
1.295862e+01    8.883138e-02
1.297450e+01    9.174512e-02
1.299038e+01    9.228624e-02
1.300625e+01    8.916049e-02
1.302213e+01    8.393604e-02
1.303800e+01    7.976387e-02
1.305388e+01    8.764312e-02
1.306975e+01    9.110632e-02
1.308563e+01    8.159037e-02
1.310150e+01    8.106541e-02
1.311738e+01    8.235981e-02
1.313326e+01    7.952043e-02
1.314913e+01    8.511349e-02
1.316501e+01    7.902819e-02
1.318088e+01    7.221843e-02
1.319676e+01    8.004992e-02
1.321263e+01    8.087671e-02
1.322851e+01    8.370101e-02
1.324438e+01    7.886650e-02
1.326026e+01    7.030743e-02
1.327614e+01    7.347469e-02
1.329201e+01    7.989264e-02
1.330789e+01    7.923687e-02
1.332376e+01    7.432190e-02
1.333964e+01    7.861725e-02
1.335551e+01    7.946542e-02
1.337139e+01    7.945491e-02
1.338727e+01    7.393872e-02
1.340314e+01    7.916538e-02
1.341902e+01    7.877008e-02
1.343489e+01    8.501436e-02
1.345077e+01    8.271123e-02
1.346664e+01    8.159772e-02
1.348252e+01    7.839849e-02
1.349839e+01    7.842848e-02
1.351427e+01    7.441097e-02
1.353015e+01    8.298761e-02
1.354602e+01    7.749040e-02
1.356190e+01    7.613698e-02
1.357777e+01    7.752703e-02
1.359365e+01    7.595591e-02
1.360952e+01    7.198580e-02
1.362540e+01    8.096222e-02
1.364127e+01    7.612438e-02
1.365715e+01    7.568572e-02
1.367303e+01    8.540170e-02
1.368890e+01    7.384857e-02
1.370478e+01    7.261382e-02
1.372065e+01    6.636901e-02
1.373653e+01    7.044056e-02
1.375240e+01    7.869162e-02
1.376828e+01    7.642494e-02
1.378415e+01    7.366778e-02
1.380003e+01    7.117517e-02
1.381591e+01    7.639392e-02
1.383178e+01    6.896741e-02
1.384766e+01    7.119305e-02
1.386353e+01    7.531378e-02
1.387941e+01    7.799663e-02
1.389528e+01    7.098243e-02
1.391116e+01    7.088847e-02
1.392703e+01    7.054215e-02
1.394291e+01    7.351910e-02
1.395879e+01    7.152759e-02
1.397466e+01    6.725428e-02
1.399054e+01    6.612036e-02
1.400641e+01    7.439940e-02
1.402229e+01    7.947965e-02
1.403816e+01    7.224602e-02
1.405404e+01    7.648509e-02
1.406991e+01    7.979766e-02
1.408579e+01    6.994384e-02
1.410167e+01    6.951182e-02
1.411754e+01    7.431488e-02
1.413342e+01    6.512291e-02
1.414929e+01    6.290835e-02
1.416517e+01    7.303081e-02
1.418104e+01    7.206207e-02
1.419692e+01    7.144654e-02
1.421279e+01    6.736164e-02
1.422867e+01    7.201055e-02
1.424455e+01    6.036225e-02
1.426042e+01    6.547599e-02
1.427630e+01    7.205562e-02
1.429217e+01    6.802315e-02
1.430805e+01    6.802934e-02
1.432392e+01    6.365633e-02
1.433980e+01    6.506351e-02
1.435568e+01    6.283303e-02
1.437155e+01    6.732395e-02
1.438743e+01    6.360240e-02
1.440330e+01    6.624471e-02
1.441918e+01    6.842090e-02
1.443505e+01    6.646594e-02
1.445093e+01    6.588881e-02
1.446680e+01    6.125472e-02
1.448268e+01    6.363542e-02
1.449856e+01    6.579701e-02
1.451443e+01    6.761549e-02
1.453031e+01    7.113464e-02
1.454618e+01    6.450366e-02
1.456206e+01    6.171125e-02
1.457793e+01    7.050164e-02
1.459381e+01    7.121668e-02
1.460968e+01    6.456900e-02
1.462556e+01    6.083325e-02
1.464144e+01    7.276992e-02
1.465731e+01    6.958048e-02
1.467319e+01    6.440005e-02
1.468906e+01    6.581552e-02
1.470494e+01    6.617001e-02
1.472081e+01    6.656642e-02
1.473669e+01    6.478744e-02
1.475256e+01    6.455716e-02
1.476844e+01    6.431726e-02
1.478432e+01    6.755625e-02
1.480019e+01    7.299864e-02
1.481607e+01    7.220881e-02
1.483194e+01    6.950661e-02
1.484782e+01    6.090090e-02
1.486369e+01    6.082730e-02
1.487957e+01    6.949037e-02
1.489544e+01    6.052582e-02
1.491132e+01    6.188445e-02
1.492720e+01    6.220018e-02
1.494307e+01    6.600331e-02
1.495895e+01    6.325670e-02
1.497482e+01    5.736492e-02
1.499070e+01    5.773215e-02
1.500657e+01    5.746030e-02
1.502245e+01    6.657518e-02
1.503832e+01    6.450165e-02
1.505420e+01    6.918982e-02
1.507008e+01    6.834923e-02
1.508595e+01    6.130179e-02
1.510183e+01    6.469931e-02
1.511770e+01    6.378184e-02
1.513358e+01    6.583604e-02
1.514945e+01    6.631690e-02
1.516533e+01    5.908266e-02
1.518120e+01    5.481113e-02
1.519708e+01    6.207125e-02
1.521296e+01    5.830988e-02
1.522883e+01    6.746480e-02
1.524471e+01    6.633501e-02
1.526058e+01    6.458219e-02
1.527646e+01    6.322852e-02
1.529233e+01    6.865292e-02
1.530821e+01    6.726488e-02
1.532409e+01    5.836712e-02
1.533996e+01    5.941045e-02
1.535584e+01    6.237684e-02
1.537171e+01    6.162690e-02
1.538759e+01    5.964078e-02
1.540346e+01    5.969765e-02
1.541934e+01    6.156740e-02
1.543521e+01    5.942333e-02
1.545109e+01    5.710420e-02
1.546697e+01    5.872892e-02
1.548284e+01    6.254210e-02
1.549872e+01    6.711300e-02
1.551459e+01    6.167870e-02
1.553047e+01    6.393732e-02
1.554634e+01    6.490942e-02
1.556222e+01    6.222612e-02
1.557809e+01    5.746544e-02
1.559397e+01    5.876666e-02
1.560985e+01    6.500380e-02
1.562572e+01    8.326755e-02
1.564160e+01    1.496499e-01
1.565747e+01    7.692865e-02
1.567335e+01    5.893788e-02
1.568922e+01    6.023959e-02
1.570510e+01    5.791642e-02
1.572097e+01    6.115830e-02
1.573685e+01    6.954508e-02
1.575273e+01    6.448557e-02
1.576860e+01    6.749316e-02
1.578448e+01    6.265742e-02
1.580035e+01    6.379512e-02
1.581623e+01    6.764255e-02
1.583210e+01    5.944514e-02
1.584798e+01    6.039414e-02
1.586385e+01    6.822320e-02
1.587973e+01    6.109817e-02
1.589561e+01    6.637554e-02
1.591148e+01    6.387105e-02
1.592736e+01    6.539208e-02
1.594323e+01    6.305078e-02
1.595911e+01    6.594341e-02
1.597498e+01    6.157923e-02
1.599086e+01    6.251106e-02
1.600673e+01    6.721892e-02
1.602261e+01    6.545092e-02
1.603849e+01    6.386122e-02
1.605436e+01    6.651024e-02
1.607024e+01    6.347906e-02
1.608611e+01    6.399514e-02
1.610199e+01    5.783929e-02
1.611786e+01    5.757647e-02
1.613374e+01    6.490193e-02
1.614961e+01    6.452133e-02
1.616549e+01    6.388631e-02
1.618137e+01    6.249948e-02
1.619724e+01    6.087254e-02
1.621312e+01    5.994353e-02
1.622899e+01    5.688567e-02
1.624487e+01    6.158472e-02
1.626074e+01    6.153387e-02
1.627662e+01    5.728039e-02
1.629250e+01    5.729189e-02
1.630837e+01    6.479907e-02
1.632425e+01    6.082932e-02
1.634012e+01    6.204166e-02
1.635600e+01    5.907603e-02
1.637187e+01    6.470644e-02
1.638775e+01    6.414529e-02
1.640362e+01    6.783314e-02
1.641950e+01    6.158886e-02
1.643538e+01    6.051144e-02
1.645125e+01    5.772229e-02
1.646713e+01    5.661838e-02
1.648300e+01    6.541236e-02
1.649888e+01    6.096996e-02
1.651475e+01    6.326263e-02
1.653063e+01    6.248745e-02
1.654650e+01    5.762672e-02
1.656238e+01    6.774954e-02
1.657826e+01    6.163668e-02
1.659413e+01    6.296097e-02
1.661001e+01    6.078637e-02
1.662588e+01    6.394112e-02
1.664176e+01    6.710077e-02
1.665763e+01    6.597947e-02
1.667351e+01    7.277882e-02
1.668938e+01    7.380591e-02
1.670526e+01    7.280917e-02
1.672114e+01    7.091840e-02
1.673701e+01    6.197581e-02
1.675289e+01    6.742173e-02
1.676876e+01    6.719079e-02
1.678464e+01    6.767684e-02
1.680051e+01    7.085104e-02
1.681639e+01    7.252850e-02
1.683226e+01    7.294695e-02
1.684814e+01    6.819457e-02
1.686402e+01    6.447793e-02
1.687989e+01    6.724507e-02
1.689577e+01    6.247203e-02
1.691164e+01    6.255945e-02
1.692752e+01    6.938943e-02
1.694339e+01    7.388255e-02
1.695927e+01    7.661496e-02
1.697514e+01    7.427405e-02
1.699102e+01    7.159117e-02
1.700690e+01    6.776239e-02
1.702277e+01    7.194991e-02
1.703865e+01    7.383174e-02
1.705452e+01    7.117149e-02
1.707040e+01    7.586507e-02
1.708627e+01    8.114638e-02
1.710215e+01    7.203978e-02
1.711802e+01    7.567531e-02
1.713390e+01    8.696450e-02
1.714978e+01    7.880601e-02
1.716565e+01    8.133463e-02
1.718153e+01    8.072816e-02
1.719740e+01    9.132016e-02
1.721328e+01    8.604923e-02
1.722915e+01    9.076421e-02
1.724503e+01    9.717786e-02
1.726091e+01    9.378840e-02
1.727678e+01    9.735005e-02
1.729266e+01    9.682427e-02
1.730853e+01    9.999543e-02
1.732441e+01    1.013043e-01
1.734028e+01    1.087530e-01
1.735616e+01    1.116749e-01
1.737203e+01    1.261402e-01
1.738791e+01    1.453684e-01
1.740379e+01    1.583429e-01
1.741966e+01    1.633248e-01
1.743554e+01    1.894289e-01
1.745141e+01    2.034713e-01
1.746729e+01    2.421118e-01
1.748316e+01    2.714560e-01
1.749904e+01    3.224270e-01
1.751491e+01    3.840580e-01
1.753079e+01    4.585792e-01
1.754667e+01    5.815948e-01
1.756254e+01    7.117244e-01
1.757842e+01    8.699508e-01
1.759429e+01    1.011743e+00
1.761017e+01    1.143679e+00
1.762604e+01    1.276819e+00
1.764192e+01    1.420161e+00
1.765779e+01    1.602572e+00
1.767367e+01    1.700513e+00
1.768955e+01    1.767392e+00
1.770542e+01    1.780575e+00
1.772130e+01    1.710521e+00
1.773717e+01    1.584501e+00
1.775305e+01    1.354306e+00
1.776892e+01    1.136894e+00
1.778480e+01    9.226803e-01
1.780067e+01    7.199541e-01
1.781655e+01    5.993654e-01
1.783243e+01    4.947037e-01
1.784830e+01    4.063724e-01
1.786418e+01    3.489949e-01
1.788005e+01    3.036374e-01
1.789593e+01    2.724811e-01
1.791180e+01    2.560135e-01
1.792768e+01    2.216543e-01
1.794355e+01    1.939048e-01
1.795943e+01    1.769406e-01
1.797531e+01    1.572865e-01
1.799118e+01    1.669955e-01
1.800706e+01    1.499823e-01
1.802293e+01    1.383641e-01
1.803881e+01    1.196825e-01
1.805468e+01    1.201736e-01
1.807056e+01    1.188727e-01
1.808643e+01    1.187724e-01
1.810231e+01    1.121955e-01
1.811819e+01    1.060357e-01
1.813406e+01    9.946531e-02
1.814994e+01    1.010411e-01
1.816581e+01    1.039734e-01
1.818169e+01    9.856126e-02
1.819756e+01    1.012143e-01
1.821344e+01    9.862114e-02
1.822932e+01    9.203043e-02
1.824519e+01    8.612218e-02
1.826107e+01    8.787510e-02
1.827694e+01    8.771487e-02
1.829282e+01    7.949113e-02
1.830869e+01    8.395290e-02
1.832457e+01    8.511015e-02
1.834044e+01    8.608684e-02
1.835632e+01    8.549417e-02
1.837220e+01    7.888403e-02
1.838807e+01    7.539690e-02
1.840395e+01    7.943840e-02
1.841982e+01    7.580971e-02
1.843570e+01    7.020784e-02
1.845157e+01    7.413859e-02
1.846745e+01    6.845170e-02
1.848332e+01    6.924696e-02
1.849920e+01    7.200269e-02
1.851508e+01    7.497108e-02
1.853095e+01    7.133595e-02
1.854683e+01    6.624503e-02
1.856270e+01    7.031185e-02
1.857858e+01    7.333826e-02
1.859445e+01    7.053175e-02
1.861033e+01    7.032505e-02
1.862620e+01    6.845488e-02
1.864208e+01    6.567843e-02
1.865796e+01    6.321555e-02
1.867383e+01    6.565046e-02
1.868971e+01    6.839762e-02
1.870558e+01    5.823120e-02
1.872146e+01    6.224436e-02
1.873733e+01    6.280609e-02
1.875321e+01    6.419781e-02
1.876908e+01    6.703919e-02
1.878496e+01    6.897894e-02
1.880084e+01    6.575316e-02
1.881671e+01    6.240303e-02
1.883259e+01    5.845878e-02
1.884846e+01    5.845806e-02
1.886434e+01    5.592317e-02
1.888021e+01    6.076377e-02
1.889609e+01    5.551668e-02
1.891196e+01    5.683462e-02
1.892784e+01    5.681944e-02
1.894372e+01    5.751026e-02
1.895959e+01    5.722358e-02
1.897547e+01    5.498340e-02
1.899134e+01    6.131509e-02
1.900722e+01    5.459717e-02
1.902309e+01    5.496212e-02
1.903897e+01    5.946372e-02
1.905484e+01    5.514785e-02
1.907072e+01    5.723561e-02
1.908660e+01    5.844140e-02
1.910247e+01    5.936492e-02
1.911835e+01    6.326520e-02
1.913422e+01    5.800091e-02
1.915010e+01    5.858863e-02
1.916597e+01    6.008514e-02
1.918185e+01    5.934465e-02
1.919773e+01    5.431937e-02
1.921360e+01    5.229886e-02
1.922948e+01    5.553200e-02
1.924535e+01    5.037886e-02
1.926123e+01    5.328970e-02
1.927710e+01    5.389975e-02
1.929298e+01    5.197840e-02
1.930885e+01    5.527316e-02
1.932473e+01    5.446089e-02
1.934061e+01    4.780161e-02
1.935648e+01    4.895539e-02
1.937236e+01    5.212018e-02
1.938823e+01    5.851704e-02
1.940411e+01    6.020718e-02
1.941998e+01    6.020577e-02
1.943586e+01    5.939891e-02
1.945173e+01    5.773650e-02
1.946761e+01    5.769994e-02
1.948349e+01    6.008286e-02
1.949936e+01    6.073768e-02
1.951524e+01    5.050184e-02
1.953111e+01    5.216118e-02
1.954699e+01    5.434374e-02
1.956286e+01    5.164852e-02
1.957874e+01    5.236760e-02
1.959461e+01    5.050015e-02
1.961049e+01    5.343137e-02
1.962637e+01    5.371676e-02
1.964224e+01    5.730759e-02
1.965812e+01    5.981507e-02
1.967399e+01    5.697849e-02
1.968987e+01    5.771258e-02
1.970574e+01    5.726856e-02
1.972162e+01    5.694583e-02
1.973749e+01    5.474507e-02
1.975337e+01    5.361215e-02
1.976925e+01    5.069124e-02
1.978512e+01    5.191568e-02
1.980100e+01    5.686905e-02
1.981687e+01    5.967272e-02
1.983275e+01    5.117184e-02
1.984862e+01    5.526484e-02
1.986450e+01    6.304582e-02
1.988037e+01    5.346304e-02
1.989625e+01    4.887956e-02
1.991213e+01    5.644369e-02
1.992800e+01    6.180367e-02
1.994388e+01    6.520290e-02
1.995975e+01    5.701377e-02
1.997563e+01    6.030893e-02
1.999150e+01    6.195649e-02
2.000738e+01    5.827748e-02
2.002325e+01    6.103094e-02
2.003913e+01    6.445733e-02
2.005501e+01    6.370106e-02
2.007088e+01    5.741601e-02
2.008676e+01    6.439196e-02
2.010263e+01    6.030221e-02
2.011851e+01    6.198256e-02
2.013438e+01    6.477514e-02
2.015026e+01    6.388140e-02
2.016614e+01    6.701681e-02
2.018201e+01    6.230174e-02
2.019789e+01    6.195147e-02
2.021376e+01    5.994099e-02
2.022964e+01    6.336570e-02
2.024551e+01    6.892345e-02
2.026139e+01    6.253459e-02
2.027726e+01    6.379186e-02
2.029314e+01    7.138590e-02
2.030902e+01    7.355618e-02
2.032489e+01    7.188747e-02
2.034077e+01    7.393829e-02
2.035664e+01    7.194578e-02
2.037252e+01    7.676759e-02
2.038839e+01    7.750243e-02
2.040427e+01    7.446593e-02
2.042014e+01    7.623409e-02
2.043602e+01    8.195379e-02
2.045190e+01    8.197433e-02
2.046777e+01    8.698033e-02
2.048365e+01    8.653713e-02
2.049952e+01    9.616850e-02
2.051540e+01    9.283262e-02
2.053127e+01    1.009096e-01
2.054715e+01    1.153632e-01
2.056302e+01    1.176896e-01
2.057890e+01    1.162163e-01
2.059478e+01    1.239773e-01
2.061065e+01    1.409453e-01
2.062653e+01    1.490296e-01
2.064240e+01    1.667014e-01
2.065828e+01    1.846004e-01
2.067415e+01    2.051338e-01
2.069003e+01    2.430056e-01
2.070590e+01    3.036452e-01
2.072178e+01    3.660176e-01
2.073766e+01    4.356541e-01
2.075353e+01    5.225728e-01
2.076941e+01    6.380049e-01
2.078528e+01    7.444131e-01
2.080116e+01    8.512121e-01
2.081703e+01    9.855710e-01
2.083291e+01    1.103363e+00
2.084878e+01    1.235231e+00
2.086466e+01    1.331075e+00
2.088054e+01    1.460776e+00
2.089641e+01    1.504493e+00
2.091229e+01    1.499103e+00
2.092816e+01    1.407856e+00
2.094404e+01    1.267366e+00
2.095991e+01    1.076558e+00
2.097579e+01    9.086981e-01
2.099166e+01    7.569929e-01
2.100754e+01    6.185378e-01
2.102342e+01    5.183572e-01
2.103929e+01    4.649896e-01
2.105517e+01    4.029292e-01
2.107104e+01    3.417860e-01
2.108692e+01    2.961114e-01
2.110279e+01    2.654668e-01
2.111867e+01    2.489841e-01
2.113455e+01    2.357424e-01
2.115042e+01    2.363387e-01
2.116630e+01    2.075263e-01
2.118217e+01    1.869416e-01
2.119805e+01    1.728225e-01
2.121392e+01    1.526558e-01
2.122980e+01    1.387935e-01
2.124567e+01    1.271501e-01
2.126155e+01    1.262028e-01
2.127743e+01    1.223215e-01
2.129330e+01    1.150413e-01
2.130918e+01    1.084103e-01
2.132505e+01    1.070815e-01
2.134093e+01    1.050115e-01
2.135680e+01    1.081451e-01
2.137268e+01    1.084516e-01
2.138855e+01    1.091104e-01
2.140443e+01    1.056435e-01
2.142031e+01    9.570237e-02
2.143618e+01    9.617802e-02
2.145206e+01    9.271286e-02
2.146793e+01    9.188909e-02
2.148381e+01    9.320331e-02
2.149968e+01    9.740003e-02
2.151556e+01    8.509152e-02
2.153143e+01    8.420704e-02
2.154731e+01    9.417233e-02
2.156319e+01    9.146228e-02
2.157906e+01    8.909627e-02
2.159494e+01    8.962035e-02
2.161081e+01    9.737638e-02
2.162669e+01    9.997129e-02
2.164256e+01    9.557939e-02
2.165844e+01    9.681322e-02
2.167431e+01    1.051711e-01
2.169019e+01    1.218004e-01
2.170607e+01    1.339500e-01
2.172194e+01    1.460375e-01
2.173782e+01    1.680385e-01
2.175369e+01    1.785562e-01
2.176957e+01    2.082264e-01
2.178544e+01    2.136418e-01
2.180132e+01    2.331296e-01
2.181719e+01    2.576537e-01
2.183307e+01    2.834395e-01
2.184895e+01    3.059267e-01
2.186482e+01    3.316607e-01
2.188070e+01    3.349878e-01
2.189657e+01    3.429818e-01
2.191245e+01    3.298751e-01
2.192832e+01    2.913509e-01
2.194420e+01    2.522960e-01
2.196007e+01    2.237479e-01
2.197595e+01    1.835374e-01
2.199183e+01    1.684737e-01
2.200770e+01    1.487367e-01
2.202358e+01    1.358414e-01
2.203945e+01    1.235236e-01
2.205533e+01    1.129259e-01
2.207120e+01    1.057445e-01
2.208708e+01    1.041599e-01
2.210296e+01    8.517981e-02
2.211883e+01    7.985953e-02
2.213471e+01    8.242883e-02
2.215058e+01    8.360000e-02
2.216646e+01    7.884358e-02
2.218233e+01    8.339466e-02
2.219821e+01    7.692298e-02
2.221408e+01    7.388696e-02
2.222996e+01    7.022686e-02
2.224584e+01    6.425022e-02
2.226171e+01    6.401101e-02
2.227759e+01    6.788538e-02
2.229346e+01    6.355746e-02
2.230934e+01    6.746851e-02
2.232521e+01    6.214742e-02
2.234109e+01    6.551418e-02
2.235696e+01    6.204226e-02
2.237284e+01    6.011362e-02
2.238872e+01    5.861143e-02
2.240459e+01    5.871492e-02
2.242047e+01    5.666046e-02
2.243634e+01    6.115039e-02
2.245222e+01    6.125229e-02
2.246809e+01    5.878298e-02
2.248397e+01    5.389998e-02
2.249984e+01    5.434306e-02
2.251572e+01    5.299081e-02
2.253160e+01    4.830292e-02
2.254747e+01    4.980959e-02
2.256335e+01    5.627746e-02
2.257922e+01    5.504625e-02
2.259510e+01    5.348535e-02
2.261097e+01    5.192333e-02
2.262685e+01    5.623673e-02
2.264272e+01    5.064434e-02
2.265860e+01    5.225660e-02
2.267448e+01    5.549934e-02
2.269035e+01    5.369382e-02
2.270623e+01    5.697639e-02
2.272210e+01    5.544857e-02
2.273798e+01    5.354642e-02
2.275385e+01    4.425773e-02
2.276973e+01    4.843205e-02
2.278560e+01    4.689640e-02
2.280148e+01    4.843904e-02
2.281736e+01    4.926987e-02
2.283323e+01    5.238776e-02
2.284911e+01    4.929705e-02
2.286498e+01    4.488884e-02
2.288086e+01    4.466595e-02
2.289673e+01    4.975216e-02
2.291261e+01    5.154765e-02
2.292848e+01    4.997599e-02
2.294436e+01    4.971222e-02
2.296024e+01    4.894383e-02
2.297611e+01    4.732959e-02
2.299199e+01    4.800154e-02
2.300786e+01    4.460287e-02
2.302374e+01    4.485911e-02
2.303961e+01    4.322060e-02
2.305549e+01    4.758107e-02
2.307137e+01    4.677590e-02
2.308724e+01    4.532756e-02
2.310312e+01    4.174362e-02
2.311899e+01    5.020091e-02
2.313487e+01    5.337355e-02
2.315074e+01    5.004606e-02
2.316662e+01    4.425358e-02
2.318249e+01    4.341374e-02
2.319837e+01    4.063192e-02
2.321425e+01    4.113711e-02
2.323012e+01    4.577217e-02
2.324600e+01    4.935197e-02
2.326187e+01    4.355259e-02
2.327775e+01    4.730672e-02
2.329362e+01    4.734357e-02
2.330950e+01    4.470199e-02
2.332537e+01    4.526242e-02
2.334125e+01    4.698924e-02
2.335713e+01    4.838231e-02
2.337300e+01    4.255603e-02
2.338888e+01    4.212653e-02
2.340475e+01    4.379671e-02
2.342063e+01    4.675853e-02
2.343650e+01    4.522284e-02
2.345238e+01    4.449745e-02
2.346825e+01    4.478042e-02
2.348413e+01    4.410974e-02
2.350001e+01    4.763693e-02
2.351588e+01    4.396406e-02
2.353176e+01    4.020009e-02
2.354763e+01    4.834075e-02
2.356351e+01    4.994466e-02
2.357938e+01    4.475322e-02
2.359526e+01    4.595723e-02
2.361113e+01    4.854250e-02
2.362701e+01    4.507954e-02
2.364289e+01    4.512446e-02
2.365876e+01    4.115595e-02
2.367464e+01    4.430482e-02
2.369051e+01    4.473404e-02
2.370639e+01    4.530051e-02
2.372226e+01    4.465004e-02
2.373814e+01    4.211874e-02
2.375401e+01    4.209558e-02
2.376989e+01    4.682909e-02
2.378577e+01    4.311408e-02
2.380164e+01    3.785958e-02
2.381752e+01    3.714853e-02
2.383339e+01    4.076770e-02
2.384927e+01    4.226439e-02
2.386514e+01    4.393816e-02
2.388102e+01    4.731987e-02
2.389689e+01    4.749031e-02
2.391277e+01    4.185031e-02
2.392865e+01    4.051661e-02
2.394452e+01    4.262879e-02
2.396040e+01    4.109005e-02
2.397627e+01    4.016663e-02
2.399215e+01    4.330752e-02
2.400802e+01    4.696951e-02
2.402390e+01    3.893662e-02
2.403978e+01    3.925486e-02
2.405565e+01    4.286438e-02
2.407153e+01    4.707359e-02
2.408740e+01    4.175851e-02
2.410328e+01    4.303532e-02
2.411915e+01    4.193975e-02
2.413503e+01    4.333946e-02
2.415090e+01    4.281263e-02
2.416678e+01    4.086149e-02
2.418266e+01    4.263461e-02
2.419853e+01    4.135375e-02
2.421441e+01    4.430686e-02
2.423028e+01    4.221094e-02
2.424616e+01    4.572860e-02
2.426203e+01    4.377311e-02
2.427791e+01    4.569786e-02
2.429378e+01    4.552023e-02
2.430966e+01    4.611112e-02
2.432554e+01    4.830990e-02
2.434141e+01    5.285532e-02
2.435729e+01    5.463628e-02
2.437316e+01    5.685246e-02
2.438904e+01    5.936203e-02
2.440491e+01    5.798771e-02
2.442079e+01    5.402114e-02
2.443666e+01    5.690711e-02
2.445254e+01    6.295288e-02
2.446842e+01    6.322723e-02
2.448429e+01    5.986381e-02
2.450017e+01    5.413246e-02
2.451604e+01    4.702281e-02
2.453192e+01    4.227619e-02
2.454779e+01    4.339506e-02
2.456367e+01    4.677173e-02
2.457954e+01    4.493650e-02
2.459542e+01    4.199612e-02
2.461130e+01    4.524582e-02
2.462717e+01    4.763742e-02
2.464305e+01    4.414588e-02
2.465892e+01    4.645833e-02
2.467480e+01    4.349880e-02
2.469067e+01    4.128723e-02
2.470655e+01    3.905085e-02
2.472242e+01    4.197092e-02
2.473830e+01    4.281696e-02
2.475418e+01    4.691763e-02
2.477005e+01    4.572644e-02
2.478593e+01    4.017896e-02
2.480180e+01    4.032890e-02
2.481768e+01    4.502604e-02
2.483355e+01    4.491563e-02
2.484943e+01    3.949777e-02
2.486530e+01    4.702816e-02
2.488118e+01    4.987670e-02
2.489706e+01    4.521588e-02
2.491293e+01    4.558911e-02
2.492881e+01    4.660001e-02
2.494468e+01    4.539809e-02
2.496056e+01    4.952715e-02
2.497643e+01    4.771968e-02
2.499231e+01    4.492738e-02
2.500819e+01    4.839675e-02
2.502406e+01    5.152537e-02
2.503994e+01    4.919833e-02
2.505581e+01    4.880369e-02
2.507169e+01    4.651562e-02
2.508756e+01    5.006096e-02
2.510344e+01    5.476115e-02
2.511931e+01    5.310159e-02
2.513519e+01    4.915906e-02
2.515107e+01    5.008854e-02
2.516694e+01    4.988600e-02
2.518282e+01    5.809330e-02
2.519869e+01    5.339866e-02
2.521457e+01    6.104268e-02
2.523044e+01    6.433734e-02
2.524632e+01    6.621010e-02
2.526219e+01    7.373160e-02
2.527807e+01    7.545614e-02
2.529395e+01    8.014154e-02
2.530982e+01    8.260859e-02
2.532570e+01    9.485010e-02
2.534157e+01    1.071719e-01
2.535745e+01    1.200344e-01
2.537332e+01    1.388040e-01
2.538920e+01    1.531740e-01
2.540507e+01    1.754621e-01
2.542095e+01    1.963169e-01
2.543683e+01    2.148656e-01
2.545270e+01    2.376770e-01
2.546858e+01    2.704419e-01
2.548445e+01    2.805192e-01
2.550033e+01    2.960637e-01
2.551620e+01    3.064717e-01
2.553208e+01    2.888413e-01
2.554795e+01    2.705208e-01
2.556383e+01    2.454777e-01
2.557971e+01    2.234287e-01
2.559558e+01    1.892473e-01
2.561146e+01    1.671256e-01
2.562733e+01    1.501342e-01
2.564321e+01    1.273608e-01
2.565908e+01    1.119252e-01
2.567496e+01    1.074254e-01
2.569083e+01    9.480833e-02
2.570671e+01    8.781987e-02
2.572259e+01    8.157108e-02
2.573846e+01    7.832266e-02
2.575434e+01    7.054525e-02
2.577021e+01    6.544053e-02
2.578609e+01    5.895795e-02
2.580196e+01    6.294476e-02
2.581784e+01    6.109240e-02
2.583371e+01    6.380283e-02
2.584959e+01    6.050738e-02
2.586547e+01    5.379553e-02
2.588134e+01    5.439174e-02
2.589722e+01    5.544820e-02
2.591309e+01    5.642258e-02
2.592897e+01    5.762972e-02
2.594484e+01    5.767493e-02
2.596072e+01    5.437542e-02
2.597660e+01    5.485263e-02
2.599247e+01    5.666399e-02
2.600835e+01    5.608474e-02
2.602422e+01    5.161269e-02
2.604010e+01    5.708869e-02
2.605597e+01    5.658472e-02
2.607185e+01    5.788702e-02
2.608772e+01    5.021148e-02
2.610360e+01    4.751471e-02
2.611948e+01    4.752570e-02
2.613535e+01    4.923145e-02
2.615123e+01    4.862963e-02
2.616710e+01    4.906009e-02
2.618298e+01    5.162501e-02
2.619885e+01    4.905417e-02
2.621473e+01    4.393457e-02
2.623060e+01    5.061578e-02
2.624648e+01    4.572653e-02
2.626236e+01    4.699544e-02
2.627823e+01    4.712749e-02
2.629411e+01    5.019591e-02
2.630998e+01    4.638392e-02
2.632586e+01    4.448510e-02
2.634173e+01    4.625504e-02
2.635761e+01    5.022923e-02
2.637348e+01    4.346297e-02
2.638936e+01    4.968185e-02
2.640524e+01    4.320268e-02
2.642111e+01    4.414510e-02
2.643699e+01    5.110211e-02
2.645286e+01    4.778210e-02
2.646874e+01    4.815394e-02
2.648461e+01    4.604167e-02
2.650049e+01    4.804812e-02
2.651636e+01    4.863254e-02
2.653224e+01    4.684706e-02
2.654812e+01    4.634497e-02
2.656399e+01    4.918281e-02
2.657987e+01    4.883567e-02
2.659574e+01    4.486018e-02
2.661162e+01    4.363666e-02
2.662749e+01    4.160939e-02
2.664337e+01    4.596853e-02
2.665924e+01    4.906308e-02
2.667512e+01    4.719860e-02
2.669100e+01    5.173471e-02
2.670687e+01    5.026574e-02
2.672275e+01    4.609119e-02
2.673862e+01    4.561436e-02
2.675450e+01    4.682614e-02
2.677037e+01    5.123116e-02
2.678625e+01    4.742038e-02
2.680212e+01    4.512792e-02
2.681800e+01    5.537376e-02
2.683388e+01    5.169680e-02
2.684975e+01    4.627871e-02
2.686563e+01    4.309095e-02
2.688150e+01    4.545804e-02
2.689738e+01    4.965939e-02
2.691325e+01    4.490446e-02
2.692913e+01    4.694044e-02
2.694501e+01    4.883892e-02
2.696088e+01    5.115150e-02
2.697676e+01    5.024419e-02
2.699263e+01    4.829172e-02
2.700851e+01    5.000025e-02
2.702438e+01    5.172017e-02
2.704026e+01    5.043996e-02
2.705613e+01    4.717864e-02
2.707201e+01    4.445297e-02
2.708789e+01    4.713812e-02
2.710376e+01    4.445050e-02
2.711964e+01    5.252632e-02
2.713551e+01    5.349307e-02
2.715139e+01    4.284340e-02
2.716726e+01    4.722251e-02
2.718314e+01    5.011634e-02
2.719901e+01    4.800246e-02
2.721489e+01    5.250956e-02
2.723077e+01    5.409298e-02
2.724664e+01    4.989370e-02
2.726252e+01    5.151767e-02
2.727839e+01    5.148806e-02
2.729427e+01    4.695836e-02
2.731014e+01    4.887207e-02
2.732602e+01    4.726862e-02
2.734189e+01    4.749796e-02
2.735777e+01    5.023655e-02
2.737365e+01    5.119572e-02
2.738952e+01    5.243898e-02
2.740540e+01    5.326536e-02
2.742127e+01    5.118098e-02
2.743715e+01    5.596610e-02
2.745302e+01    5.431706e-02
2.746890e+01    5.523247e-02
2.748477e+01    5.670130e-02
2.750065e+01    5.717535e-02
2.751653e+01    5.542530e-02
2.753240e+01    5.190140e-02
2.754828e+01    5.016759e-02
2.756415e+01    5.392617e-02
2.758003e+01    5.631832e-02
2.759590e+01    6.453644e-02
2.761178e+01    6.609017e-02
2.762765e+01    7.241838e-02
2.764353e+01    6.614875e-02
2.765941e+01    6.558827e-02
2.767528e+01    7.580271e-02
2.769116e+01    8.113519e-02
2.770703e+01    8.158857e-02
2.772291e+01    8.107036e-02
2.773878e+01    8.563583e-02
2.775466e+01    9.474556e-02
2.777054e+01    9.840143e-02
2.778641e+01    1.013213e-01
2.780229e+01    1.240487e-01
2.781816e+01    1.423555e-01
2.783404e+01    1.484699e-01
2.784991e+01    1.845061e-01
2.786579e+01    2.141606e-01
2.788166e+01    2.385814e-01
2.789754e+01    2.809990e-01
2.791342e+01    3.339850e-01
2.792929e+01    3.902822e-01
2.794517e+01    4.444236e-01
2.796104e+01    5.331491e-01
2.797692e+01    5.891091e-01
2.799279e+01    6.155728e-01
2.800867e+01    6.470900e-01
2.802454e+01    6.229321e-01
2.804042e+01    5.970942e-01
2.805630e+01    5.464244e-01
2.807217e+01    4.833749e-01
2.808805e+01    4.214042e-01
2.810392e+01    3.692759e-01
2.811980e+01    3.200557e-01
2.813567e+01    2.890776e-01
2.815155e+01    2.395355e-01
2.816742e+01    2.102626e-01
2.818330e+01    1.974031e-01
2.819918e+01    1.756427e-01
2.821505e+01    1.663725e-01
2.823093e+01    1.518741e-01
2.824680e+01    1.362195e-01
2.826268e+01    1.215347e-01
2.827855e+01    1.238506e-01
2.829443e+01    1.136395e-01
2.831030e+01    1.066687e-01
2.832618e+01    1.067629e-01
2.834206e+01    1.058084e-01
2.835793e+01    9.979941e-02
2.837381e+01    8.954474e-02
2.838968e+01    9.327479e-02
2.840556e+01    9.703600e-02
2.842143e+01    9.340051e-02
2.843731e+01    9.584339e-02
2.845318e+01    8.713217e-02
2.846906e+01    8.298883e-02
2.848494e+01    8.882429e-02
2.850081e+01    8.586275e-02
2.851669e+01    8.227346e-02
2.853256e+01    8.878420e-02
2.854844e+01    9.567416e-02
2.856431e+01    1.093528e-01
2.858019e+01    1.065632e-01
2.859606e+01    1.130981e-01
2.861194e+01    1.130027e-01
2.862782e+01    1.280349e-01
2.864369e+01    1.490837e-01
2.865957e+01    1.574840e-01
2.867544e+01    1.839802e-01
2.869132e+01    2.214590e-01
2.870719e+01    2.369694e-01
2.872307e+01    2.784534e-01
2.873895e+01    3.248630e-01
2.875482e+01    3.752130e-01
2.877070e+01    4.132155e-01
2.878657e+01    4.426990e-01
2.880245e+01    4.613424e-01
2.881832e+01    4.737718e-01
2.883420e+01    4.439277e-01
2.885007e+01    4.155949e-01
2.886595e+01    3.734031e-01
2.888183e+01    3.389695e-01
2.889770e+01    2.954949e-01
2.891358e+01    2.573444e-01
2.892945e+01    2.213209e-01
2.894533e+01    1.999422e-01
2.896120e+01    1.701678e-01
2.897708e+01    1.596918e-01
2.899295e+01    1.460016e-01
2.900883e+01    1.330620e-01
2.902471e+01    1.196228e-01
2.904058e+01    1.140503e-01
2.905646e+01    1.090785e-01
2.907233e+01    1.033404e-01
2.908821e+01    1.003845e-01
2.910408e+01    9.752629e-02
2.911996e+01    9.076349e-02
2.913583e+01    8.944438e-02
2.915171e+01    8.440083e-02
2.916759e+01    8.602852e-02
2.918346e+01    8.263678e-02
2.919934e+01    7.592805e-02
2.921521e+01    8.055146e-02
2.923109e+01    7.669672e-02
2.924696e+01    7.868592e-02
2.926284e+01    7.622010e-02
2.927871e+01    7.559033e-02
2.929459e+01    6.971768e-02
2.931047e+01    7.052559e-02
2.932634e+01    6.173711e-02
2.934222e+01    6.914724e-02
2.935809e+01    6.883752e-02
2.937397e+01    6.711801e-02
2.938984e+01    7.325049e-02
2.940572e+01    7.202147e-02
2.942159e+01    6.767225e-02
2.943747e+01    6.262791e-02
2.945335e+01    6.188673e-02
2.946922e+01    6.151285e-02
2.948510e+01    5.988370e-02
2.950097e+01    6.129869e-02
2.951685e+01    6.196725e-02
2.953272e+01    6.257642e-02
2.954860e+01    5.800615e-02
2.956447e+01    6.287986e-02
2.958035e+01    6.161433e-02
2.959623e+01    5.741888e-02
2.961210e+01    5.999551e-02
2.962798e+01    5.938342e-02
2.964385e+01    5.789152e-02
2.965973e+01    5.982171e-02
2.967560e+01    5.958677e-02
2.969148e+01    6.140757e-02
2.970736e+01    5.210689e-02
2.972323e+01    5.309605e-02
2.973911e+01    5.718708e-02
2.975498e+01    5.662798e-02
2.977086e+01    5.778028e-02
2.978673e+01    5.414337e-02
2.980261e+01    5.135847e-02
2.981848e+01    4.797720e-02
2.983436e+01    4.790505e-02
2.985024e+01    5.289919e-02
2.986611e+01    5.756994e-02
2.988199e+01    5.000152e-02
2.989786e+01    4.995726e-02
2.991374e+01    4.694406e-02
2.992961e+01    5.143925e-02
2.994549e+01    5.619186e-02
2.996136e+01    6.015656e-02
2.997724e+01    5.182865e-02
2.999312e+01    5.583766e-02
3.000899e+01    5.011385e-02
3.002487e+01    5.122773e-02
3.004074e+01    4.756660e-02
3.005662e+01    4.810075e-02
3.007249e+01    5.302479e-02
3.008837e+01    5.799164e-02
3.010424e+01    4.860790e-02
3.012012e+01    5.266724e-02
3.013600e+01    5.388915e-02
3.015187e+01    4.936029e-02
3.016775e+01    5.003525e-02
3.018362e+01    5.590503e-02
3.019950e+01    5.651354e-02
3.021537e+01    5.289977e-02
3.023125e+01    4.695571e-02
3.024712e+01    5.384318e-02
3.026300e+01    5.212628e-02
3.027888e+01    4.541152e-02
3.029475e+01    4.737343e-02
3.031063e+01    4.846497e-02
3.032650e+01    4.685624e-02
3.034238e+01    4.629309e-02
3.035825e+01    4.670475e-02
3.037413e+01    5.388893e-02
3.039000e+01    4.784992e-02
3.040588e+01    4.985324e-02
3.042176e+01    4.913464e-02
3.043763e+01    4.744483e-02
3.045351e+01    4.969797e-02
3.046938e+01    4.921560e-02
3.048526e+01    4.876318e-02
3.050113e+01    4.631218e-02
3.051701e+01    4.810702e-02
3.053288e+01    4.867822e-02
3.054876e+01    4.842046e-02
3.056464e+01    5.162805e-02
3.058051e+01    5.437143e-02
3.059639e+01    4.998613e-02
3.061226e+01    4.804965e-02
3.062814e+01    5.544202e-02
3.064401e+01    4.636375e-02
3.065989e+01    4.584390e-02
3.067577e+01    4.997854e-02
3.069164e+01    5.081599e-02
3.070752e+01    5.205703e-02
3.072339e+01    5.331112e-02
3.073927e+01    4.974321e-02
3.075514e+01    4.776762e-02
3.077102e+01    4.931998e-02
3.078689e+01    4.926785e-02
3.080277e+01    5.135991e-02
3.081865e+01    5.130162e-02
3.083452e+01    5.224929e-02
3.085040e+01    4.792786e-02
3.086627e+01    5.159985e-02
3.088215e+01    4.932903e-02
3.089802e+01    5.300384e-02
3.091390e+01    4.908136e-02
3.092977e+01    4.889341e-02
3.094565e+01    4.546322e-02
3.096153e+01    5.060029e-02
3.097740e+01    5.556181e-02
3.099328e+01    5.264064e-02
3.100915e+01    5.889164e-02
3.102503e+01    5.131151e-02
3.104090e+01    5.119343e-02
3.105678e+01    5.408573e-02
3.107265e+01    5.735112e-02
3.108853e+01    5.394071e-02
3.110441e+01    5.369387e-02
3.112028e+01    5.123558e-02
3.113616e+01    5.066967e-02
3.115203e+01    5.732646e-02
3.116791e+01    5.781328e-02
3.118378e+01    5.140473e-02
3.119966e+01    5.155472e-02
3.121553e+01    5.381398e-02
3.123141e+01    5.567034e-02
3.124729e+01    5.526970e-02
3.126316e+01    5.541217e-02
3.127904e+01    5.414762e-02
3.129491e+01    5.588752e-02
3.131079e+01    5.828074e-02
3.132666e+01    5.685442e-02
3.134254e+01    5.889143e-02
3.135841e+01    5.818165e-02
3.137429e+01    5.796852e-02
3.139017e+01    5.896383e-02
3.140604e+01    5.534403e-02
3.142192e+01    5.460547e-02
3.143779e+01    5.999152e-02
3.145367e+01    6.362311e-02
3.146954e+01    6.652873e-02
3.148542e+01    6.643186e-02
3.150129e+01    6.615466e-02
3.151717e+01    6.492485e-02
3.153305e+01    6.695328e-02
3.154892e+01    7.512441e-02
3.156480e+01    7.912683e-02
3.158067e+01    7.753903e-02
3.159655e+01    8.086762e-02
3.161242e+01    8.822371e-02
3.162830e+01    1.002038e-01
3.164418e+01    1.014009e-01
3.166005e+01    1.093521e-01
3.167593e+01    1.247286e-01
3.169180e+01    1.406697e-01
3.170768e+01    1.502928e-01
3.172355e+01    1.703071e-01
3.173943e+01    2.007405e-01
3.175530e+01    2.401936e-01
3.177118e+01    2.749763e-01
3.178706e+01    3.157268e-01
3.180293e+01    3.791257e-01
3.181881e+01    4.486476e-01
3.183468e+01    5.046011e-01
3.185056e+01    5.585898e-01
3.186643e+01    5.812123e-01
3.188231e+01    5.689514e-01
3.189818e+01    5.567226e-01
3.191406e+01    5.249945e-01
3.192994e+01    4.758603e-01
3.194581e+01    4.175375e-01
3.196169e+01    3.668892e-01
3.197756e+01    3.239830e-01
3.199344e+01    2.687238e-01
3.200931e+01    2.284151e-01
3.202519e+01    2.135983e-01
3.204106e+01    2.012683e-01
3.205694e+01    1.776569e-01
3.207282e+01    1.597777e-01
3.208869e+01    1.475076e-01
3.210457e+01    1.320655e-01
3.212044e+01    1.271299e-01
3.213632e+01    1.270504e-01
3.215219e+01    1.096330e-01
3.216807e+01    1.066415e-01
3.218394e+01    1.016282e-01
3.219982e+01    9.491619e-02
3.221570e+01    9.604523e-02
3.223157e+01    9.391361e-02
3.224745e+01    8.740763e-02
3.226332e+01    8.163921e-02
3.227920e+01    8.022331e-02
3.229507e+01    7.785379e-02
3.231095e+01    7.784458e-02
3.232682e+01    8.005994e-02
3.234270e+01    7.470617e-02
3.235858e+01    6.738553e-02
3.237445e+01    6.668105e-02
3.239033e+01    6.708793e-02
3.240620e+01    6.499594e-02
3.242208e+01    6.782033e-02
3.243795e+01    6.677879e-02
3.245383e+01    5.965331e-02
3.246970e+01    5.673170e-02
3.248558e+01    6.748946e-02
3.250146e+01    6.453155e-02
3.251733e+01    5.950130e-02
3.253321e+01    5.993170e-02
3.254908e+01    6.378363e-02